-118.702670	-12.000000
-116.033069	-13.200000
-113.366404	-7.000000
-110.700491	7.400000
-108.037511	3.200000
-105.373100	0.200000
-102.711620	25.200000
-100.048711	13.800000
-97.390908	-8.800000
-94.731676	-23.400000
-92.073192	16.400000
-89.417633	30.600000
-86.760644	-6.000000
-84.108754	-12.600000
-81.455434	-16.800000
-78.805033	4.600000
-76.153204	-6.600000
-73.506465	12.400000
-70.858296	6.400000
-68.210870	-11.000000
-65.566359	6.600000
-62.920418	16.800000
-60.279559	12.000000
-57.637271	5.200000
-54.997892	17.600000
-52.357084	18.000000
-49.717015	18.800000
-47.082020	17.800000
-44.445595	13.000000
-41.812073	-9.600000
-39.177123	19.400000
-36.547239	-2.400000
-33.913761	14.200000
-31.285346	0.000000
-28.657665	7.800000
-26.028555	10.400000
-23.404503	31.000000
-20.776860	29.600000
-18.154272	32.400000
-15.532414	68.600000
-12.911287	113.400000
-10.290891	229.000000
-7.673382	705.800000
-5.054445	2411.400000
-2.438394	5317.000000
0.176930	7053.600000
2.791525	5042.800000
5.403239	894.200000
8.016381	84.800000
10.624489	63.200000
13.236178	42.600000
15.842837	36.200000
18.450925	10.000000
21.058287	15.600000
23.660625	33.400000
26.266542	-13.600000
28.867436	19.800000
31.469758	4.400000
34.067062	1.000000
36.667943	18.000000
39.263808	22.400000
41.861101	13.800000
44.457675	12.200000
47.049240	14.800000
49.642234	20.800000
52.232366	1.400000
54.823925	30.800000
57.412626	24.800000
60.002753	16.200000
62.587881	22.200000
65.174437	-6.400000
67.760278	-23.800000
70.343266	-4.400000
72.927681	0.800000
75.504967	-0.800000
78.085818	-28.000000
80.663822	-4.800000
83.241114	-4.600000
85.819834	8.200000
88.393571	14.000000
90.968735	-2.200000
93.541056	11.600000
96.112670	12.800000
98.681443	-1.800000
101.251643	17.000000
103.819004	15.800000
106.387792	16.600000
108.953743	3.000000
111.516859	-2.400000
114.083531	15.000000
116.640981	2.000000
119.204117	7.200000
121.762294	22.800000
124.324025	27.400000
126.880799	53.000000
129.438999	100.200000
131.992247	105.800000
134.544797	197.800000
137.100897	266.800000
139.652049	324.400000
142.202504	402.600000
144.752261	456.600000
147.299199	530.000000
149.845442	560.000000
152.393110	590.400000
154.940082	589.400000
157.482118	582.600000
160.023462	620.800000
162.564112	611.600000
165.106187	573.800000
167.645452	592.200000
170.181907	599.400000
172.717672	605.800000
175.254862	578.200000
177.791361	615.800000
180.325054	600.400000
182.855943	556.600000
185.386144	551.200000
187.917771	560.000000
190.446596	591.400000
192.972622	559.400000
195.497962	554.400000
198.024727	546.800000
200.548696	565.600000
203.071979	569.600000
205.594578	570.000000
208.114384	553.000000
210.633507	536.000000
213.151947	549.800000
215.671812	524.200000
218.184674	508.200000
220.701068	511.400000
223.216781	545.000000
225.727603	570.000000
228.239850	529.600000
230.749314	552.200000
233.258100	537.600000
235.766208	563.200000
238.275740	549.200000
240.780391	549.200000
243.284366	503.200000
245.789765	572.200000
248.290289	546.200000
250.794336	526.200000
253.291413	561.000000
255.792012	556.400000
258.289840	583.600000
260.786995	581.800000
263.283478	614.200000
265.775097	618.600000
268.270236	634.200000
270.762608	670.600000
273.254310	689.000000
275.743249	752.200000
278.233611	755.200000
280.721212	838.800000
283.206053	944.200000
285.694409	1074.600000
288.175825	1335.200000
290.660755	1810.600000
293.140839	2879.400000
295.624436	4945.000000
298.103191	7872.400000
300.583368	9474.000000
303.060794	7789.000000
305.537556	4271.200000
308.013654	2204.400000
310.487004	1443.600000
312.959693	1136.600000
315.431720	989.000000
317.903085	883.800000
320.371707	884.800000
322.839669	814.400000
325.309054	733.800000
327.773616	708.400000
330.241682	656.600000
332.704927	658.600000
335.167516	648.800000
337.629448	620.400000
340.090723	621.600000
342.549263	657.200000
345.009226	631.800000
347.466457	634.000000
349.923033	624.000000
352.378955	644.600000
354.832147	643.200000
357.286762	621.600000
359.736575	598.200000
362.189884	589.200000
364.638394	608.800000
367.086254	595.800000
369.535536	547.600000
371.980023	604.600000
374.425933	570.400000
376.871194	555.800000
379.313736	551.800000
381.755630	600.400000
384.196876	559.200000
386.635408	530.800000
389.075360	539.800000
391.512599	537.400000
393.947127	550.000000
396.385141	558.400000
398.818380	544.800000
401.253039	557.600000
403.682926	556.200000
406.116298	560.400000
408.544900	541.400000
410.972860	533.200000
413.402241	557.800000
415.826858	538.000000
418.252895	543.000000
420.678293	574.000000
423.103050	561.800000
425.523048	563.400000
427.944468	545.200000
430.363192	552.200000
432.783335	561.400000
435.200784	552.400000
437.619654	543.200000
440.035829	568.600000
442.447258	568.000000
444.862163	585.800000
447.274378	575.000000
449.685960	572.600000
452.096907	570.000000
454.505167	550.000000
456.912796	598.000000
459.319792	558.400000
461.726157	562.000000
464.129839	607.400000
466.532891	548.400000
468.935313	580.200000
471.337105	516.000000
473.736219	581.000000
476.136753	542.000000
478.536658	542.000000
480.931841	510.200000
483.330489	555.200000
485.724418	528.200000
488.117721	524.000000
490.510399	534.000000
492.902451	509.200000
495.295921	475.800000
497.684679	504.600000
500.070771	474.600000
502.458283	449.000000
504.845172	428.400000
507.229396	418.600000
509.615040	415.600000
511.998022	398.400000
514.378342	410.600000
516.760083	418.200000
519.139164	386.600000
521.519663	362.600000
523.897506	406.800000
526.272692	379.000000
528.647261	365.600000
531.023249	380.400000
533.396584	378.600000
535.771336	374.800000
538.141402	376.400000
540.510854	403.800000
542.881723	403.400000
545.247911	409.400000
547.615518	381.200000
549.980479	424.600000
552.344828	412.000000
554.708563	435.600000
557.073716	462.000000
559.434197	427.200000
561.796095	429.600000
564.155354	462.000000
566.511974	457.000000
568.872040	449.800000
571.225414	436.800000
573.582233	456.400000
575.936417	444.400000
578.289992	422.400000
580.642960	384.000000
582.993295	410.000000
585.345048	387.000000
587.690124	372.000000
590.040663	382.200000
592.384530	420.000000
594.733858	406.400000
597.078537	367.400000
599.420592	372.000000
601.764064	344.400000
604.104913	342.800000
606.445159	342.400000
608.782785	305.200000
611.123846	319.200000
613.460270	321.000000
615.798110	287.600000
618.133333	328.800000
620.465939	310.200000
622.799963	275.000000
625.131372	278.600000
627.462183	282.000000
629.792396	260.400000
632.122012	245.400000
634.447004	273.200000
636.777438	272.400000
639.103251	313.200000
641.426456	273.600000
643.751078	263.000000
646.073094	283.000000
648.394516	274.400000
650.713335	293.000000
653.033571	269.600000
655.353212	276.400000
657.670254	274.800000
659.986703	291.000000
662.300554	268.800000
664.615821	294.000000
666.928491	268.400000
669.242576	241.400000
671.552061	281.600000
673.862962	254.400000
676.171270	235.800000
678.478989	245.600000
680.788124	269.000000
683.092666	253.800000
685.396622	275.600000
687.699991	235.400000
690.004776	261.800000
692.304973	236.600000
694.606586	250.600000
696.907613	261.600000
699.204059	268.800000
701.501920	252.200000
703.799197	245.400000
706.095891	233.000000
708.388009	256.600000
710.683538	247.200000
712.974493	251.600000
715.266863	249.000000
717.556657	264.200000
719.845872	246.400000
722.134507	246.400000
724.420569	241.400000
726.708045	295.200000
728.992951	240.200000
731.277279	239.800000
733.559038	246.200000
735.842211	268.000000
738.124807	247.800000
740.402847	267.600000
742.682301	239.200000
744.961180	250.400000
747.239484	270.800000
749.513237	282.200000
751.788405	273.400000
754.062999	285.000000
756.335034	242.000000
758.608482	282.000000
760.879372	273.200000
763.147706	224.600000
765.417453	269.000000
767.684645	291.800000
769.951268	294.200000
772.217320	272.200000
774.480821	264.600000
776.745734	277.600000
779.010079	268.400000
781.269893	273.600000
783.531121	259.200000
785.791781	266.600000
788.049895	292.600000
790.305464	262.200000
792.564423	298.600000
794.816884	272.200000
797.074712	262.200000
799.328021	261.800000
801.578790	281.600000
803.830971	276.600000
806.080613	270.000000
808.331667	290.600000
810.578210	262.800000
812.826166	274.200000
815.071586	275.200000
817.318419	285.400000
819.564689	270.200000
821.806456	224.000000
824.051605	261.800000
826.290283	273.400000
828.532342	219.600000
830.769903	233.000000
833.008876	294.200000
835.245322	258.200000
837.483179	252.000000
839.718511	267.800000
841.951320	268.200000
844.185539	252.800000
846.417237	255.000000
848.648380	247.600000
850.878968	250.000000
853.109002	241.600000
855.338481	251.200000
857.563480	247.800000
859.791852	234.400000
862.015746	256.600000
864.241051	250.000000
866.461880	239.000000
868.686081	277.000000
870.905809	275.600000
873.126947	235.000000
875.347535	269.600000
877.565614	234.600000
879.785102	233.200000
882.000124	259.400000
884.214598	242.600000
886.428525	253.600000
888.641904	271.600000
890.854737	267.400000
893.067022	251.200000
895.276806	267.400000
897.486044	255.800000
899.694737	276.200000
901.900930	244.600000
904.108533	257.400000
906.313639	246.600000
908.518201	271.000000
910.720268	244.200000
912.923744	258.800000
915.124726	226.200000
917.325166	243.800000
919.527015	232.000000
921.722473	261.400000
923.921289	288.600000
926.115668	262.800000
928.313404	268.600000
930.506704	278.000000
932.701413	256.000000
934.893635	234.200000
937.085320	253.800000
939.276467	252.200000
941.465131	275.200000
943.653259	254.400000
945.838905	272.800000
948.027905	262.000000
950.212480	260.400000
952.396521	253.000000
954.583913	286.400000
956.763000	281.000000
958.945438	277.200000
961.127342	292.400000
963.306771	276.800000
965.483728	254.200000
967.662093	302.000000
969.841865	291.400000
972.015288	271.200000
974.192057	295.400000
976.364419	306.800000
978.538189	284.800000
980.707555	295.200000
982.880265	322.600000
985.050510	288.600000
987.220225	314.400000
989.389412	314.200000
991.554202	302.800000
993.722334	331.400000
995.886070	319.800000
998.051214	329.200000
1000.213898	324.800000
1002.376057	321.600000
1004.535759	328.800000
1006.694936	316.600000
1008.855520	330.200000
1011.013649	300.600000
1013.171255	325.600000
1015.328337	351.600000
1017.484895	368.400000
1019.637074	331.400000
1021.790660	305.200000
1023.943724	336.200000
1026.094339	336.600000
1028.246360	355.800000
1030.394009	372.000000
1032.544989	342.200000
1034.691598	337.800000
1036.837688	342.000000
1038.983260	328.800000
1041.130237	341.800000
1043.270925	363.000000
1045.414942	346.800000
1047.556520	355.600000
1049.697580	359.400000
1051.840046	348.600000
1053.976231	327.800000
1056.115743	366.000000
1058.250899	343.000000
1060.389380	368.400000
1062.523508	374.200000
1064.657122	372.400000
1066.792140	369.400000
1068.922810	341.000000
1071.054884	338.200000
1073.184528	345.000000
1075.313661	349.400000
1077.442283	338.400000
1079.570393	346.400000
1081.696077	347.000000
1083.821251	306.000000
1085.947829	323.200000
1088.070069	314.800000
1090.193714	322.000000
1092.313024	327.600000
1094.437563	300.000000
1096.555858	304.800000
1098.675556	322.400000
1100.792837	313.400000
1102.909610	309.600000
1105.025877	298.800000
1107.139729	297.200000
1109.254984	289.000000
1111.365917	312.800000
1113.480162	305.000000
1115.590086	302.200000
1117.701413	282.600000
1119.812237	301.000000
1121.918744	294.800000
1124.028560	287.600000
1126.134062	280.600000
1128.240968	295.000000
1130.341658	279.200000
1132.447560	299.800000
1134.549153	294.600000
1136.652148	290.200000
1138.754644	286.000000
1140.850932	278.200000
1142.952427	268.000000
1145.049620	274.600000
1147.146314	275.000000
1149.242511	271.400000
1151.338209	280.000000
1153.433410	284.000000
1155.526214	304.600000
1157.620420	289.800000
1159.708435	270.600000
1161.801648	321.000000
1163.888674	309.800000
1165.978998	289.800000
1168.065034	261.400000
1170.154368	294.000000
1172.237521	261.200000
1174.322077	274.400000
1176.408034	264.000000
1178.489709	296.200000
1180.572785	289.200000
1182.653476	280.000000
1184.733676	273.800000
1186.813384	275.400000
1188.892601	287.800000
1190.969435	242.400000
1193.043889	287.200000
1195.121635	304.800000
1197.195110	258.600000
1199.269987	268.800000
1201.340596	267.600000
1203.412606	271.200000
1205.482240	273.000000
1207.553275	269.800000
1209.623822	276.800000
1211.690109	266.600000
1213.757796	275.600000
1215.823110	254.800000
1217.889825	281.000000
1219.952284	263.200000
1222.018029	264.000000
1224.079519	244.800000
1226.142410	284.800000
1228.202932	251.400000
1230.262972	237.600000
1232.322528	289.200000
1234.379720	269.800000
1236.436429	250.000000
1238.490776	263.800000
1240.548403	275.600000
1242.603668	253.400000
1244.654693	260.600000
1246.707117	234.800000
1248.759061	265.600000
1250.808647	268.200000
1252.857754	267.600000
1254.906382	226.800000
1256.954532	241.400000
1259.002204	253.400000
1261.045645	255.400000
1263.092362	256.800000
1265.136725	268.200000
1267.180611	274.000000
1269.222147	263.600000
1271.261333	232.000000
1273.303792	282.000000
1275.342028	241.200000
1277.381663	242.200000
1279.420822	250.000000
1281.455764	259.000000
1283.492104	260.200000
1285.526100	276.400000
1287.561493	263.400000
1289.592673	264.200000
1291.625252	268.000000
1293.657359	260.800000
1295.687125	268.400000
1297.718288	227.400000
1299.745244	252.800000
1301.773599	262.600000
1303.797748	273.800000
1305.825163	246.000000
1307.848375	246.200000
1309.872985	271.400000
1311.895260	267.000000
1313.918933	281.000000
1315.940273	282.200000
1317.961146	239.800000
1319.981551	262.800000
1321.997763	262.400000
1324.015372	300.400000
1326.030653	230.800000
1328.049193	274.800000
1330.063543	246.600000
1332.075568	278.000000
1334.090851	288.600000
1336.101948	256.800000
1338.114441	246.000000
1340.122752	263.400000
1342.134319	245.600000
1344.139847	250.800000
1346.148630	241.600000
1348.153235	211.600000
1350.161094	239.000000
1352.168491	260.800000
1354.169857	253.000000
1356.172619	271.800000
1358.174922	283.400000
1360.176765	252.800000
1362.178148	267.000000
1364.177217	255.800000
1366.175828	252.800000
1368.173981	250.600000
1370.171676	241.800000
1372.165208	262.800000
1374.160135	259.600000
1376.154606	248.400000
1378.148620	262.800000
1380.140327	251.000000
1382.131578	244.600000
1384.120524	264.800000
1386.110865	241.800000
1388.100752	257.600000
1390.088334	258.800000
1392.075463	256.400000
1394.060290	252.000000
1396.046512	252.800000
1398.030433	255.600000
1400.013902	246.800000
1401.996919	263.200000
1403.977638	281.800000
1405.959751	262.600000
1407.939567	273.600000
1409.918933	231.800000
1411.894160	261.600000
1413.872625	245.400000
1415.848797	258.800000
1417.824519	276.000000
1419.799792	276.200000
1421.772775	251.800000
1423.745309	259.000000
1425.717395	249.600000
1427.689034	265.600000
1429.656544	247.000000
1431.629128	273.800000
1433.593906	246.200000
1435.563757	259.400000
1437.529483	277.400000
1439.496603	273.200000
1441.461439	275.800000
1443.422155	258.400000
1445.387939	269.400000
1447.347768	247.800000
1449.308991	261.200000
1451.271605	268.000000
1453.230105	262.600000
1455.188163	267.400000
1457.145779	239.600000
1459.102952	277.000000
1461.057850	260.600000
1463.014141	260.800000
1464.968157	242.000000
1466.921732	264.600000
1468.873035	248.000000
1470.825730	266.200000
1472.776154	243.400000
1474.726139	281.000000
1476.675685	277.200000
1478.622962	264.800000
1480.567971	258.600000
1482.514373	233.000000
1484.460337	273.000000
1486.405864	252.600000
1488.349125	249.600000
1490.291950	278.800000
1492.232512	266.600000
1494.174466	256.600000
1496.114157	263.000000
1498.053413	242.600000
1499.992235	251.800000
1501.928797	230.000000
1503.866750	239.000000
1505.802444	291.600000
1507.737705	265.200000
1509.670709	281.200000
1511.603281	264.600000
1513.535421	269.800000
1515.467129	271.400000
1517.396584	302.600000
1519.327429	266.800000
1521.257842	264.200000
1523.184183	294.200000
1525.111914	255.400000
1527.037396	219.200000
1528.962448	271.200000
1530.887070	272.400000
1532.811264	255.400000
1534.733211	270.200000
1536.656548	264.600000
1538.577638	272.000000
1540.496484	253.600000
1542.416720	294.600000
1544.334712	271.800000
1546.252278	244.200000
1548.167603	268.600000
1550.084317	271.800000
1551.996975	275.800000
1553.912838	296.000000
1555.826462	286.600000
1557.737847	289.200000
1559.650622	250.000000
1561.559347	252.800000
1563.469461	287.200000
1565.379152	261.400000
1567.288420	296.200000
1569.195453	273.600000
1571.100254	260.600000
1573.006444	269.200000
1574.910403	244.600000
1576.813940	265.200000
1578.717057	253.400000
1580.617944	278.800000
1582.520220	253.000000
1584.420267	263.800000
1586.321703	287.000000
1588.219104	266.800000
1590.116088	265.600000
1592.012653	258.200000
1593.910605	251.600000
1595.802723	269.600000
1597.698035	267.200000
1599.592928	244.400000
1601.485601	262.400000
1603.377856	277.200000
1605.267892	267.200000
1607.157512	271.200000
1609.046717	265.800000
1610.935506	262.200000
1612.822079	264.800000
1614.710039	246.400000
1616.593982	273.000000
1618.479312	270.800000
1620.364229	265.800000
1622.246932	260.800000
1624.131022	301.400000
1626.011100	256.600000
1627.892566	261.800000
1629.771820	258.000000
1631.652462	249.800000
1633.527299	275.400000
1635.407117	259.200000
1637.282930	269.000000
1639.158334	283.800000
1641.035123	265.800000
1642.906115	304.000000
1644.780290	249.800000
1646.650465	276.000000
1648.523821	262.600000
1650.394974	283.400000
1652.263925	262.000000
1654.134262	261.600000
1656.000606	280.400000
1657.868335	278.000000
1659.733865	257.400000
1661.600781	264.200000
1663.463707	275.600000
1665.328020	264.600000
1667.190136	245.400000
1669.051847	253.000000
1670.914943	268.400000
1672.775845	257.600000
1674.634554	277.800000
1676.492859	274.800000
1678.352548	252.600000
1680.206471	261.200000
1682.063567	260.400000
1683.920259	258.600000
1685.772976	282.200000
1687.628864	262.600000
1689.480778	261.600000
1691.332291	268.800000
1693.183403	228.200000
1695.034114	275.400000
1696.884425	247.200000
1698.732552	254.800000
1700.582063	263.200000
1702.425824	256.200000
1704.274536	273.800000
1706.117501	284.400000
1707.963632	251.400000
1709.805802	259.400000
1711.651137	295.200000
1713.490730	276.200000
1715.331709	238.600000
1717.174070	259.600000
1719.012474	282.800000
1720.852262	253.000000
1722.689875	223.800000
1724.527093	261.200000
1726.362137	251.200000
1728.198564	256.200000
1730.032818	245.200000
1731.866679	266.200000
1733.700145	248.200000
1735.529665	252.200000
1737.362345	275.800000
1739.191079	264.600000
1741.022972	252.800000
1742.850922	288.200000
1744.678480	262.800000
1746.505647	234.400000
1748.332422	262.600000
1750.158805	246.800000
1751.981252	244.200000
1753.806854	273.600000
1755.628520	253.400000
1757.451569	264.000000
1759.272457	248.000000
1761.092955	277.600000
1762.914835	288.800000
1764.731015	288.800000
1766.550347	271.200000
1768.365752	229.600000
1770.184308	257.800000
1771.998938	246.200000
1773.813181	264.600000
1775.627038	231.800000
1777.440508	238.200000
1779.251824	282.400000
1781.064522	297.600000
1782.876834	256.000000
1784.685227	280.000000
1786.495002	252.400000
1788.300861	236.200000
1790.109867	259.200000
1791.914959	240.400000
1793.721432	251.400000
1795.527520	213.200000
1797.329699	260.200000
1799.135021	264.600000
1800.936435	262.600000
1802.739230	266.200000
1804.538118	268.800000
1806.338387	264.200000
1808.138274	273.600000
1809.936019	234.400000
1811.733384	248.600000
1813.530368	241.200000
1815.326972	258.400000
1817.121437	247.000000
1818.917282	255.800000
1820.707471	264.800000
1822.502557	262.200000
1824.291990	252.200000
1826.084561	231.200000
1827.874996	238.400000
1829.663296	252.800000
1831.454732	225.000000
1833.240523	240.800000
1835.027692	257.000000
1836.812731	251.000000
1838.600902	267.800000
1840.385188	274.600000
1842.167345	237.000000
1843.950881	299.800000
1845.732288	231.800000
1847.515073	277.800000
1849.293979	258.200000
1851.074263	243.600000
1852.852422	266.200000
1854.631958	252.800000
1856.409370	252.200000
1858.184659	264.200000
1859.961325	273.800000
1861.735869	231.600000
1863.511790	254.600000
1865.282092	261.600000
1867.055521	230.000000
1868.826830	241.400000
1870.597768	255.600000
1872.370084	266.400000
1874.136786	262.400000
1875.906613	257.200000
1877.672577	259.200000
1879.441665	258.400000
1881.206891	244.200000
1882.971749	253.600000
1884.737983	251.000000
1886.500359	274.400000
1888.262368	247.400000
1890.024010	259.000000
1891.785284	218.600000
1893.546192	252.200000
1895.306732	255.600000
1897.065164	254.400000
1898.823229	229.200000
1900.579187	256.200000
1902.336521	261.000000
1904.093490	253.800000
1905.848352	271.800000
1907.601109	264.400000
1909.353503	249.400000
1911.107273	249.600000
1912.858939	254.800000
1914.608502	252.800000
1916.359442	271.000000
1918.110018	247.200000
1919.856756	272.800000
1921.604869	258.400000
1923.350883	241.200000
1925.098273	249.400000
1926.843564	244.400000
1928.586758	266.000000
1930.331328	228.400000
1932.073801	241.200000
1933.815914	247.600000
1935.557668	245.800000
1937.299061	252.400000
1939.038361	224.200000
1940.777302	250.800000
1942.515884	251.000000
1944.252375	246.200000
1945.988507	249.600000
1947.726015	253.000000
1949.459700	251.800000
1951.194760	225.400000
1952.927731	286.600000
1954.660346	242.800000
1956.392604	260.800000
1958.124506	256.200000
1959.854323	243.000000
1961.582054	235.400000
1963.311160	271.800000
1965.039910	239.400000
1966.766577	244.000000
1968.492890	244.800000
1970.220577	254.800000
1971.942727	225.400000
1973.667978	256.600000
1975.389422	255.800000
1977.113966	273.800000
1978.836431	252.000000
1980.555092	275.800000
1982.276852	226.600000
1983.994811	282.200000
1985.714142	232.600000
1987.429674	250.000000
1989.150026	274.600000
1990.866580	252.000000
1992.579337	245.600000
1994.295190	244.200000
1996.008971	258.200000
1997.722402	245.000000
1999.433762	290.800000
2001.146494	244.800000
2002.855435	253.800000
2004.567470	267.800000
2006.273995	241.200000
2007.983613	233.400000
2009.691163	248.000000
2011.398366	275.800000
2013.103503	226.400000
2014.808293	252.400000
2016.514456	236.800000
2018.216835	260.000000
2019.920587	267.400000
2021.622276	232.200000
2023.323619	257.800000
2025.024618	259.000000
2026.723555	239.800000
2028.423864	219.400000
2030.120397	237.400000
2031.818302	230.000000
2033.514149	271.200000
2035.213081	269.800000
2036.906527	291.200000
2038.601344	253.000000
2040.295818	250.600000
2041.986525	256.200000
2043.680314	239.000000
2045.370338	290.000000
2047.061731	245.600000
2048.751072	261.800000
2050.441784	247.200000
2052.128732	247.200000
2053.815340	251.200000
2055.503319	249.200000
2057.187538	279.200000
2058.873127	210.200000
2060.558377	221.200000
2062.241579	246.800000
2063.926151	245.800000
2065.605259	262.800000
2067.289154	256.200000
2068.967587	237.400000
2070.649098	254.800000
2072.326857	264.000000
2074.004280	259.800000
2075.683072	253.800000
2077.359821	241.800000
2079.034529	235.000000
2080.710607	229.800000
2082.384643	241.800000
2084.058345	254.800000
2085.731711	245.600000
2087.403038	222.200000
2089.074031	270.000000
2090.744690	232.000000
2092.415015	236.000000
2094.085006	239.000000
2095.752960	235.000000
2097.420582	260.200000
2099.086170	235.600000
2100.753126	253.000000
2102.418049	261.200000
2104.082640	252.000000
2105.745199	242.800000
2107.409126	257.000000
2109.071022	255.400000
2110.732587	234.200000
2112.393822	267.800000
2114.053027	244.400000
2115.711903	273.600000
2117.370448	246.200000
2119.028664	230.000000
2120.683157	260.800000
2122.340714	258.600000
2123.997941	255.400000
2125.651448	254.400000
2127.306322	239.000000
2128.957477	242.200000
2130.611695	247.600000
2132.262195	269.400000
2133.914063	280.800000
2135.560522	256.200000
2137.211735	258.200000
2138.859236	256.600000
2140.508103	287.800000
2142.154951	255.400000
2143.801474	238.400000
2145.447671	259.000000
2147.090159	243.200000
2148.735706	262.800000
2150.377546	260.800000
2152.022443	243.800000
2153.663635	233.000000
2155.304503	258.800000
2156.945048	237.400000
2158.583580	258.000000
2160.223478	249.600000
2161.859676	245.200000
2163.497240	233.000000
2165.134482	260.400000
2166.769714	256.200000
2168.404624	246.400000
2170.039213	256.800000
2171.673481	235.800000
2173.304055	260.600000
2174.937681	258.600000
2176.567614	254.200000
2178.198914	232.800000
2179.828208	248.000000
2181.457183	256.800000
2183.085838	261.200000
2184.714174	240.800000
2186.340507	242.400000
2187.966522	261.800000
2189.590536	238.400000
2191.215915	248.800000
2192.839293	263.800000
2194.464036	259.400000
2196.085098	215.400000
2197.705843	240.200000
2199.327952	274.400000
2200.948064	247.200000
2202.566180	221.600000
2204.183980	218.600000
2205.801464	235.800000
2207.418634	214.800000
2209.035487	256.800000
2210.652026	232.200000
2212.266571	230.200000
2213.879125	267.400000
2215.493042	266.800000
2217.104968	242.600000
2218.718257	235.800000
2220.329555	257.600000
2221.938865	242.200000
2223.549537	243.400000
2225.158221	261.400000
2226.766593	239.200000
2228.372978	264.200000
2229.980725	263.000000
2231.586487	237.600000
2233.191937	255.600000
2234.795402	249.600000
2236.400230	261.800000
2238.003074	267.200000
2239.603935	247.000000
2241.206159	246.000000
2242.806401	243.200000
2244.408005	226.800000
2246.005956	243.200000
2247.605270	267.600000
2249.202604	273.400000
2250.799630	249.600000
2252.398017	289.600000
2253.992757	226.600000
2255.585519	282.400000
2257.179644	252.200000
2258.775130	258.000000
2260.366971	242.800000
2261.958506	254.600000
2263.551402	251.800000
2265.138990	248.000000
2266.731273	263.800000
2268.318249	208.200000
2269.908254	264.800000
2271.492954	249.400000
2273.082348	244.600000
2274.666439	245.800000
2276.251892	251.600000
2277.835376	272.800000
2279.421885	227.600000
2281.004761	244.000000
2282.587334	223.800000
2284.169603	253.400000
2285.748242	235.000000
2287.329906	237.200000
2288.907941	237.400000
2290.488999	233.200000
2292.066430	234.100000
2293.641898	235.000000
2295.220388	251.000000
2296.795254	207.600000
2298.369819	220.800000
2299.944083	209.600000
2301.518047	219.400000
2303.091711	215.200000
2304.665075	245.800000
2306.234820	239.600000
2307.804266	242.200000
2309.376730	236.600000
2310.943920	233.600000
2312.514127	234.200000
2314.080721	228.400000
2315.648673	206.000000
2317.214671	256.400000
2318.780371	239.000000
2320.345773	248.800000
2321.909222	220.200000
2323.474030	257.800000
2325.035229	240.200000
2326.599443	256.600000
2328.158396	302.400000
2329.720362	258.400000
2331.280378	260.800000
2332.840098	223.200000
2334.397870	237.000000
2335.955346	240.000000
2337.512528	247.200000
2339.067762	244.000000
2340.622702	236.200000
2342.177349	232.400000
2343.731702	219.200000
2345.285761	258.600000
2346.839527	225.200000
2348.391348	227.200000
2349.941226	242.000000
2351.494113	236.400000
2353.041756	221.000000
2354.592407	245.400000
2356.139468	219.000000
2357.687886	219.800000
2359.236013	236.200000
2360.780551	237.800000
2362.326447	235.000000
2363.870404	222.000000
2365.415719	247.000000
2366.957449	233.400000
2368.500537	238.600000
2370.041688	235.800000
2371.582550	236.400000
2373.123123	254.400000
2374.663407	228.200000
2376.203402	216.200000
2377.739818	261.600000
2379.279236	226.200000
2380.815077	228.000000
2382.352275	237.400000
2383.885897	240.600000
2385.422519	241.800000
2386.957211	228.200000
2388.489972	251.200000
2390.022448	263.800000
2391.552995	258.600000
2393.086540	234.400000
2394.614874	235.400000
2396.144564	238.000000
2397.673969	222.000000
2399.203089	255.600000
2400.731923	235.400000
2402.255553	262.200000
2403.783818	217.800000
2405.306880	248.600000
2406.834577	234.800000
2408.355434	235.200000
2409.880923	238.000000
2411.402853	202.400000
2412.926137	238.600000
2414.447501	226.600000
2415.966945	240.800000
2417.487744	220.400000
2419.006624	222.400000
2420.525223	239.600000
2422.041903	227.600000
2423.559939	242.800000
2425.077693	217.400000
2426.591895	243.200000
2428.105818	235.800000
2429.619460	237.800000
2431.134456	229.800000
2432.645905	231.000000
2434.158707	248.000000
2435.669597	236.600000
2437.180208	232.400000
2438.688907	240.400000
2440.200592	225.600000
2441.708734	232.600000
2443.216598	230.800000
2444.724183	197.200000
2446.228229	224.800000
2447.735259	222.200000
2449.240381	199.800000
2450.745226	229.800000
2452.248164	222.400000
2453.750825	235.200000
2455.253211	223.400000
2456.753690	251.200000
2458.255524	223.600000
2459.755452	218.000000
2461.255105	225.600000
2462.754483	213.600000
2464.251958	218.800000
2465.747531	218.000000
2467.246084	220.400000
2468.741109	226.400000
2470.237486	235.600000
2471.730337	228.800000
2473.224541	212.800000
2474.718471	217.400000
2476.208877	213.000000
2477.702261	241.600000
2479.193747	206.000000
2480.683336	204.200000
2482.172653	219.200000
2483.660074	221.000000
2485.150471	205.200000
2486.637350	210.200000
2488.125580	217.400000
2489.610293	213.200000
2491.094736	201.800000
2492.580531	223.000000
2494.064434	204.200000
2495.549687	220.000000
2497.029807	196.600000
2498.512899	218.400000
2499.994102	212.200000
2501.475035	208.400000
2502.954078	199.400000
2504.432854	209.600000
2505.911361	219.400000
2507.389599	211.000000
2508.867570	217.600000
2510.342035	226.000000
2511.819470	239.600000
2513.293400	205.600000
2514.768682	227.800000
2516.243696	223.800000
2517.715209	189.600000
2519.188073	211.000000
2520.659054	237.400000
2522.131385	199.200000
2523.598602	231.800000
2525.068786	211.600000
2526.537089	224.800000
2528.005126	218.200000
2529.472899	211.800000
2530.940407	230.600000
2532.407651	218.800000
2533.871402	230.600000
2535.336503	216.000000
2536.799727	220.200000
2538.264300	254.800000
2539.725385	217.600000
2541.187819	227.000000
2542.649990	211.400000
2544.108674	217.200000
2545.571931	224.800000
2547.030091	244.000000
2548.489601	216.600000
2549.944016	225.000000
2551.403002	220.400000
2552.860116	235.800000
2554.315358	215.600000
2555.770340	216.200000
2557.223452	218.200000
2558.677913	217.800000
2560.130505	227.600000
2561.582837	222.000000
2563.033301	229.800000
2564.486722	188.000000
2565.935060	216.000000
2567.386353	205.600000
2568.835780	239.400000
2570.281736	202.800000
2571.730646	204.000000
2573.176085	228.200000
2574.622873	226.600000
2576.067797	210.600000
2577.512464	222.600000
2578.958478	211.600000
2580.401025	231.800000
2581.844920	226.000000
2583.285350	219.600000
2584.727128	219.400000
2586.167046	205.800000
2587.608311	217.200000
2589.046114	218.800000
2590.486867	200.000000
2591.922558	205.400000
2593.361197	202.800000
2594.797980	232.800000
2596.232907	228.600000
2597.670781	181.200000
2599.103598	204.400000
2600.537762	209.400000
2601.970071	196.600000
2603.403728	199.600000
2604.835530	197.400000
2606.267080	187.400000
2607.698376	204.000000
2609.127821	209.200000
2610.557013	200.400000
2611.984354	214.800000
2613.413042	204.800000
2614.841477	212.400000
2616.266466	207.800000
2617.692800	194.600000
2619.117287	194.600000
2620.543118	208.600000
2621.965507	209.200000
2623.389240	214.600000
2624.811128	192.600000
2626.232765	205.200000
2627.652558	212.200000
2629.073696	200.000000
2630.494584	212.600000
2631.912033	222.400000
2633.332422	220.000000
2634.749374	210.800000
2636.166078	210.200000
2637.582533	207.600000
2638.998740	223.000000
2640.414699	219.000000
2641.828817	204.400000
2643.242687	216.000000
2644.654718	183.400000
2646.068094	220.400000
2647.478040	192.800000
2648.890922	204.200000
2650.300375	237.600000
2651.709582	217.200000
2653.116953	188.000000
2654.527258	218.000000
2655.935727	209.000000
2657.342362	205.600000
2658.748750	236.200000
2660.153306	221.800000
2661.559205	228.400000
2662.963270	191.000000
2664.367092	228.200000
2665.770669	198.600000
2667.172415	207.600000
2668.575504	220.000000
2669.975175	208.800000
2671.376190	177.200000
2672.773789	223.800000
2674.174317	228.200000
2675.571431	233.000000
2676.969888	192.000000
2678.366517	230.200000
2679.762905	208.400000
2681.159050	211.800000
2682.553369	189.600000
2683.949031	220.400000
2685.341284	188.400000
2686.734879	210.400000
2688.126650	200.400000
2689.519764	204.800000
2690.911053	223.600000
2692.300521	234.200000
2693.689748	209.200000
2695.078735	183.400000
2696.469065	192.200000
2697.854411	202.800000
2699.242680	217.000000
2700.629129	206.800000
2702.015339	212.000000
2703.401310	192.400000
2704.783883	201.400000
2706.167798	215.600000
2707.551474	205.000000
2708.934913	207.000000
2710.314956	201.400000
2711.696341	227.200000
2713.075910	215.400000
2714.456821	189.400000
2715.835917	189.800000
2717.213199	187.400000
2718.591822	172.800000
2719.968631	213.400000
2721.345205	207.200000
2722.721543	215.200000
2724.096069	222.400000
2725.471936	196.000000
2726.844416	186.400000
2728.219813	192.600000
2729.590249	174.800000
2730.962025	184.000000
2732.333568	198.400000
2733.703302	194.800000
2735.074376	217.400000
2736.443643	215.800000
2737.812676	221.000000
2739.179903	191.800000
2740.546896	208.200000
2741.913657	212.000000
2743.280185	191.200000
2744.644909	188.200000
2746.009400	200.200000
2747.373659	202.600000
2748.737687	197.000000
2750.101482	215.000000
2751.461905	203.800000
2752.825237	197.400000
2754.183627	181.400000
2755.544927	213.400000
2756.902857	208.400000
2758.263695	214.800000
2759.622733	177.600000
2760.978403	210.200000
2762.336982	199.000000
2763.692193	192.200000
2765.047175	199.400000
2766.400360	182.800000
2767.756452	191.000000
2769.109180	199.400000
2770.461679	226.400000
2771.813951	231.600000
2773.167560	191.800000
2774.517808	204.600000
2775.866263	185.400000
2777.217622	183.600000
2778.565622	206.400000
2779.914961	187.800000
2781.262507	196.000000
2782.609827	186.600000
2783.956919	195.600000
2785.302221	171.800000
2786.647297	210.200000
2787.992147	204.800000
2789.336771	198.200000
2790.678043	174.400000
2792.020652	165.400000
2793.363037	188.800000
2794.705196	222.000000
2796.044006	188.400000
2797.385716	208.000000
2798.724077	155.400000
2800.063776	165.200000
2801.401689	169.600000
2802.737818	173.600000
2804.073724	195.600000
2805.410967	161.400000
2806.746425	183.600000
2808.081661	194.600000
2809.415115	191.000000
2810.749905	174.800000
2812.081354	194.400000
2813.415699	180.600000
2814.745146	172.000000
2816.075930	168.000000
2817.406492	229.000000
2818.735275	211.600000
2820.065395	192.400000
2821.393736	183.000000
2822.721855	187.200000
2824.048198	186.800000
2825.375876	168.000000
2826.700222	226.400000
2828.025904	182.000000
2829.349810	196.400000
2830.673496	163.400000
2831.998518	181.400000
2833.320211	183.400000
2834.641685	165.400000
2835.962939	201.000000
2837.283975	186.200000
2838.603239	175.000000
2839.923838	176.400000
2841.242665	186.000000
2842.561274	185.200000
2843.878113	178.600000
2845.194734	154.800000
2846.511138	186.200000
2847.825772	190.800000
2849.141741	197.000000
2850.454391	188.000000
2851.768375	176.600000
2853.082143	209.600000
2854.395694	186.400000
2855.707479	185.200000
2857.017497	180.200000
2858.328850	204.400000
2859.636888	152.000000
2860.946260	168.200000
2862.255417	158.400000
2863.564359	194.000000
2864.871538	199.800000
2866.176953	178.400000
2867.483703	193.400000
2868.788691	203.000000
2870.093464	169.200000
2871.396477	189.400000
2872.702370	154.400000
2874.003409	155.600000
2875.305781	191.600000
2876.606395	179.000000
2877.908341	186.000000
2879.210075	188.600000
2880.508505	176.000000
2881.808268	173.800000
2883.106274	195.000000
2884.404068	199.400000
2885.700105	156.400000
2886.997476	175.200000
2888.293092	187.800000
2889.588496	199.600000
2890.883689	157.800000
2892.175585	197.200000
2893.470356	203.800000
2894.761832	175.600000
2896.054640	160.800000
2897.347238	182.400000
2898.636541	161.400000
2899.927178	149.600000
2901.216063	164.800000
2902.506280	201.200000
2903.793206	201.200000
2905.081464	148.600000
2906.367973	183.400000
2907.654273	184.200000
2908.940365	161.200000
2910.224709	169.800000
2911.511925	161.000000
2912.794314	180.200000
2914.078035	187.600000
2915.360009	174.200000
2916.641777	161.800000
2917.921799	170.000000
2919.204691	162.000000
2920.485838	149.800000
2921.763703	198.000000
2923.044437	160.200000
2924.321890	179.800000
2925.599138	178.200000
2926.874643	171.200000
2928.153016	189.600000
2929.426575	180.600000
2930.703001	198.600000
2931.977685	169.800000
2933.250630	175.000000
2934.524906	194.000000
2935.797441	167.800000
2937.069773	162.000000
2938.338832	171.600000
2939.610756	157.000000
2940.880942	164.200000
2942.150924	178.400000
2943.420703	167.600000
2944.688746	153.800000
2945.955052	164.400000
2947.221156	179.600000
2948.488591	180.800000
2949.754290	170.200000
2951.019788	158.200000
2952.285083	182.600000
2953.547113	214.600000
2954.810473	159.200000
2956.073632	164.600000
2957.335058	180.600000
2958.597815	183.000000
2959.858839	149.200000
2961.118133	188.000000
2962.377226	148.800000
2963.636120	161.200000
2964.894812	154.800000
2966.153305	165.600000
2967.410069	193.000000
2968.666634	160.200000
2969.921470	151.000000
2971.177636	195.800000
2972.430547	156.600000
2973.684786	153.600000
2974.938827	193.400000
2976.191142	189.000000
2977.443259	179.600000
2978.693651	186.600000
2979.946898	152.400000
2981.195368	178.400000
2982.446693	158.400000
2983.694768	174.800000
2984.942646	159.800000
2986.190328	157.800000
2987.437812	192.400000
2988.683575	162.600000
2989.929141	171.600000
2991.176036	169.600000
2992.419686	199.400000
2993.664663	184.000000
2994.906398	161.600000
2996.150984	163.400000
2997.393851	164.000000
2998.633477	145.200000
2999.875953	165.400000
3001.115189	158.200000
3002.355753	157.000000
3003.594600	169.200000
3004.833253	153.800000
3006.070190	178.000000
3007.308455	149.600000
3008.545004	178.400000
3009.781360	190.400000
3011.017522	162.000000
3012.251970	163.600000
3013.486225	161.800000
3014.720287	164.600000
3015.952637	147.600000
3017.183275	161.600000
3018.416759	171.200000
3019.648532	193.400000
3020.878593	168.800000
3022.108463	180.200000
3023.336623	144.800000
3024.566110	148.600000
3025.793887	162.400000
3027.021473	163.000000
3028.250385	165.400000
3029.474555	159.200000
3030.701568	176.600000
3031.925358	177.400000
3033.150473	150.200000
3034.373883	190.600000
3035.597102	179.400000
3036.818616	144.600000
3038.042971	147.200000
3039.262591	163.800000
3040.483537	181.000000
3041.704293	146.000000
3042.923347	169.200000
3044.143725	174.000000
3045.360887	163.000000
3046.579374	142.400000
3047.796160	177.600000
3049.012757	173.200000
3050.229167	134.600000
3051.442363	139.600000
3052.658397	154.600000
3053.871219	162.000000
3055.086878	152.800000
3056.297814	153.800000
3057.510076	138.000000
3058.722150	141.000000
3059.934038	156.600000
3061.144229	159.800000
3062.354233	130.800000
3063.564051	173.800000
3064.772173	145.400000
3065.980110	154.200000
3067.186351	145.200000
3068.393917	159.800000
3069.599788	147.500000
3070.805474	135.200000
3072.010976	144.200000
3073.214784	145.400000
3074.419916	138.400000
3075.623355	162.800000
3076.825102	135.000000
3078.026666	171.800000
3079.228046	156.200000
3080.429242	154.000000
3081.628748	162.000000
3082.828071	180.200000
3084.028717	134.400000
3085.227673	138.400000
3086.423434	162.000000
3087.622025	155.200000
3088.817422	176.200000
3090.014143	144.600000
3091.207671	129.200000
3092.404027	134.000000
3093.598696	164.600000
3094.790175	138.200000
3095.985986	172.400000
3097.177102	151.800000
3098.369542	144.400000
3099.558793	138.600000
3100.750871	179.200000
3101.941265	138.000000
3103.128473	168.400000
3104.317003	167.600000
3105.506856	155.000000
3106.693524	162.000000
3107.880013	163.400000
3109.066323	135.800000
3110.253954	158.400000
3111.438403	127.400000
3112.621173	131.800000
3113.806765	168.600000
3114.990678	158.600000
3116.172911	156.800000
3117.354967	138.800000
3118.536844	116.800000
3119.718543	152.000000
3120.898565	179.600000
3122.076910	160.400000
3123.258075	176.600000
3124.436065	143.800000
3125.613878	168.400000
3126.791514	141.800000
3127.967475	144.200000
3129.143260	156.200000
3130.320365	165.800000
3131.495797	182.600000
3132.669555	149.000000
3133.841640	152.200000
3135.015046	154.600000
3136.188277	158.800000
3137.359836	141.800000
3138.532715	149.600000
3139.702427	119.200000
3140.873460	139.600000
3142.042822	144.800000
3143.210515	150.200000
3144.381023	152.800000
3145.546872	171.200000
3146.717031	138.200000
3147.882532	171.200000
3149.047860	162.000000
3150.213014	127.800000
3151.377995	163.000000
3152.544295	174.400000
3153.705942	144.200000
3154.868910	159.800000
3156.031705	171.800000
3157.194326	163.200000
3158.355283	153.000000
3159.516068	146.400000
3160.676680	103.000000
3161.835628	156.200000
3162.994405	154.200000
3164.153009	137.400000
3165.311442	149.800000
3166.469703	138.600000
3167.626303	139.800000
3168.781241	130.600000
3169.937498	143.000000
3171.092094	158.400000
3172.246520	128.200000
3173.399285	156.400000
3174.551881	141.000000
3175.704307	172.400000
3176.856562	146.800000
3178.008648	129.200000
3179.157587	140.600000
3180.309333	143.600000
3181.459422	134.000000
3182.607853	157.000000
3183.756116	151.800000
3184.904210	149.400000
3186.052135	158.000000
3187.198404	148.000000
3188.344505	132.800000
3189.488952	162.400000
3190.633230	154.200000
3191.777341	123.200000
3192.922770	143.000000
3194.065060	130.000000
3195.207182	127.000000
3196.349138	129.000000
3197.490926	135.000000
3198.632547	186.200000
3199.771033	120.000000
3200.910836	144.600000
3202.051956	141.400000
3203.189943	132.600000
3204.326279	157.200000
3205.462451	152.800000
3206.599939	123.000000
3207.735779	142.800000
3208.872936	133.200000
3210.005480	145.400000
3211.142305	135.200000
3212.274520	145.800000
3213.408051	144.000000
3214.541417	145.200000
3215.671657	125.200000
3216.804694	105.200000
3217.934605	116.400000
3219.065832	145.000000
3220.193934	111.200000
3221.324834	122.000000
3222.454089	128.800000
3223.581701	145.200000
3224.706190	128.400000
3225.834955	105.200000
3226.960598	133.400000
3228.086078	127.000000
3229.209917	155.600000
3230.336551	113.400000
3231.458587	148.200000
3232.581939	155.600000
3233.705128	142.200000
3234.828156	142.000000
3235.949544	151.400000
3237.070771	148.200000
3238.190359	126.800000
3239.309786	134.800000
3240.427576	117.600000
3241.548157	123.200000
3242.665625	137.000000
3243.782932	131.000000
3244.900079	117.400000
3246.015589	126.800000
3247.132415	149.200000
3248.246130	124.800000
3249.362636	133.400000
3250.477506	144.800000
3251.589268	132.400000
3252.700871	147.800000
3253.813789	145.000000
3254.926547	130.000000
3256.036199	105.400000
3257.147166	125.600000
3258.257974	123.800000
3259.367150	142.200000
3260.474695	142.800000
3261.583555	113.600000
3262.692256	121.800000
3263.797855	141.000000
3264.904769	154.000000
3266.010053	159.200000
3267.116651	142.400000
3268.220149	137.400000
3269.324961	160.000000
3270.429616	98.600000
3271.531173	143.200000
3272.632573	121.800000
3273.735287	114.000000
3274.837845	136.000000
3275.937306	135.000000
3277.039551	112.000000
3278.138700	120.400000
3279.236224	122.800000
3280.333594	121.400000
3281.433745	129.800000
3282.530804	138.400000
3283.627707	107.200000
3284.724455	88.600000
3285.816644	149.800000
3286.913083	117.000000
3288.007899	123.000000
3289.102560	138.200000
3290.195600	135.400000
3291.288486	103.600000
3292.379751	143.400000
3293.472329	108.200000
3294.563287	98.600000
3295.652625	116.800000
3296.741810	141.400000
3297.832307	142.800000
3298.919721	135.200000
3300.006981	116.200000
3301.095554	128.000000
3302.183974	120.600000
3303.267848	135.400000
3304.355963	107.600000
3305.440996	156.200000
3306.524414	93.400000
3307.609144	141.400000
3308.692258	131.000000
3309.776684	115.800000
3310.858033	120.000000
3311.940693	152.000000
3313.021738	96.600000
3314.102633	137.600000
3315.181915	135.200000
3316.261046	94.000000
3317.341489	117.000000
3318.418857	130.600000
3319.497537	118.000000
3320.574605	148.800000
3321.651523	146.000000
3322.726831	120.400000
3323.801989	154.200000
3324.878458	131.600000
3325.951857	118.800000
3327.025106	124.000000
3328.099667	103.400000
3329.172619	106.800000
3330.243962	111.400000
3331.316616	147.000000
3332.386203	115.000000
3333.457101	108.400000
3334.526393	125.200000
3335.596994	103.000000
3336.665989	103.800000
3337.733379	109.200000
3338.799163	114.600000
3339.869173	105.400000
3340.936120	122.800000
3342.000005	144.200000
3343.066657	105.400000
3344.131706	123.800000
3345.195151	94.400000
3346.258450	111.200000
3347.321602	123.200000
3348.384608	122.400000
3349.447468	122.600000
3350.508725	116.600000
3351.566926	142.000000
3352.629348	130.400000
3353.688714	136.400000
3354.747934	125.600000
3355.808463	134.000000
3356.864484	113.800000
3357.923268	130.000000
3358.977545	121.600000
3360.034586	126.000000
3361.090028	116.400000
3362.146780	118.200000
3363.201933	142.400000
3364.255489	124.600000
3365.307448	131.200000
3366.362170	125.400000
3367.413842	119.800000
3368.465370	114.000000
3369.518208	91.800000
3370.567998	150.800000
3371.619097	134.000000
3372.667149	129.200000
3373.717962	111.000000
3374.765729	103.000000
3375.813354	119.000000
3376.860837	125.600000
3377.906727	127.200000
3378.953925	101.000000
3379.998080	111.800000
3381.044995	105.400000
3382.090317	110.800000
3383.132598	112.400000
3384.174738	92.400000
3385.218187	136.400000
3386.261494	106.000000
3387.303211	111.200000
3388.344788	141.000000
3389.386223	128.400000
3390.426070	116.800000
3391.464328	124.600000
3392.503894	112.400000
3393.543320	126.000000
3394.581158	130.400000
3395.617409	119.200000
3396.653520	130.600000
3397.690939	137.600000
3398.725325	113.400000
3399.761019	147.200000
3400.796573	125.000000
3401.829095	138.200000
3402.864371	126.600000
3403.896617	112.800000
3404.928723	131.400000
3405.959247	126.800000
3406.991077	129.400000
3408.022769	131.800000
3409.051433	124.800000
3410.079960	118.200000
3411.109793	119.800000
3412.139489	123.400000
3413.166159	129.600000
3414.194135	110.600000
3415.219087	122.000000
3416.246790	119.400000
3417.271468	121.000000
3418.297453	122.200000
3419.321859	120.600000
3420.346128	128.600000
3421.368818	124.200000
3422.391372	88.800000
3423.415232	126.600000
3424.436072	101.000000
3425.456776	89.000000
3426.478786	115.600000
3427.497778	127.200000
3428.516635	107.600000
3429.536798	104.200000
3430.553944	117.000000
