-118.702670	-24.046703
-116.033069	-16.013187
-113.366404	-8.618681
-110.700491	-2.050949
-108.037511	3.502248
-105.373100	7.853147
-102.711620	10.813986
-100.048711	13.441958
-97.390908	11.850350
-94.731676	6.632168
-92.073192	0.826573
-89.417633	-2.344056
-86.760644	-4.588811
-84.108754	-1.727273
-81.455434	-1.406993
-78.805033	1.058741
-76.153204	2.078322
-73.506465	1.695105
-70.858296	4.937063
-68.210870	5.261538
-65.566359	7.096503
-62.920418	5.965035
-60.279559	4.268531
-57.637271	1.909091
-54.997892	1.483916
-52.357084	1.398601
-49.717015	0.672727
-47.082020	2.914685
-44.445595	4.876923
-41.812073	4.289510
-39.177123	6.541259
-36.547239	6.751049
-33.913761	8.118881
-31.285346	5.020979
-28.657665	2.640559
-26.028555	2.113287
-23.404503	4.032168
-20.776860	4.404196
-18.154272	-0.475524
-15.532414	2.767832
-12.911287	11.890909
-10.290891	27.000000
-7.673382	40.367832
-5.054445	51.930070
-2.438394	55.965035
0.176930	52.372028
2.791525	46.460140
5.403239	40.846154
8.016381	30.379021
10.624489	13.194406
13.236178	-2.545455
15.842837	-8.801399
18.450925	-5.647552
21.058287	-2.216783
23.660625	2.636364
26.266542	3.734266
28.867436	5.348252
31.469758	5.755245
34.067062	5.068531
36.667943	6.920280
39.263808	6.937063
41.861101	5.752448
44.457675	5.116084
47.049240	1.163636
49.642234	1.836364
52.232366	-2.569231
54.823925	-0.457343
57.412626	-2.075524
60.002753	0.134266
62.587881	1.811189
65.174437	1.765035
67.760278	4.061538
70.343266	5.697902
72.927681	5.833566
75.504967	9.738462
78.085818	10.758042
80.663822	13.307692
83.241114	14.857343
85.819834	14.338462
88.393571	14.060140
90.968735	14.448951
93.541056	14.149650
96.112670	12.710490
98.681443	8.495105
101.251643	8.706294
103.819004	3.704895
106.387792	5.579021
108.953743	5.627972
111.516859	9.124476
114.083531	14.441958
116.640981	14.444755
119.204117	17.844755
121.762294	22.958042
124.324025	29.481119
126.880799	42.248951
129.438999	59.426573
131.992247	86.422378
134.544797	118.040559
137.100897	157.033566
139.652049	204.113287
142.202504	247.386014
144.752261	286.339860
147.299199	319.033566
149.845442	344.109091
152.393110	357.524476
154.940082	366.246154
157.482118	372.046154
160.023462	370.749650
162.564112	368.363636
165.106187	368.875524
167.645452	367.692308
170.181907	370.808392
172.717672	368.790210
175.254862	367.513287
177.791361	368.000000
180.325054	368.173427
182.855943	367.949650
185.386144	367.574825
187.917771	371.426573
190.446596	371.037762
192.972622	374.565035
195.497962	377.029371
198.024727	379.623776
200.548696	380.753846
203.071979	380.513287
205.594578	377.278322
208.114384	374.044755
210.633507	372.352448
213.151947	371.686713
215.671812	371.976224
218.184674	372.977622
220.701068	370.595804
223.216781	371.220979
225.727603	370.406993
228.239850	375.513287
230.749314	378.572028
233.258100	380.653147
235.766208	382.008392
238.275740	384.910490
240.780391	382.667133
243.284366	386.465734
245.789765	389.481119
248.290289	385.772028
250.794336	382.032168
253.291413	383.247552
255.792012	383.054545
258.289840	385.390210
260.786995	383.510490
263.283478	385.848951
265.775097	382.506294
268.270236	382.026573
270.762608	375.141259
273.254310	375.728671
275.743249	378.144056
278.233611	375.732867
280.721212	374.938462
283.206053	376.986014
285.694409	379.025175
288.175825	383.237762
290.660755	381.632168
293.140839	385.215385
295.624436	380.669930
298.103191	382.769231
300.583368	376.490909
303.060794	376.784615
305.537556	381.688112
308.013654	381.227972
310.487004	384.341259
312.959693	387.563636
315.431720	391.022378
317.903085	394.149650
320.371707	391.774825
322.839669	391.552448
325.309054	391.302098
327.773616	387.794406
330.241682	381.634965
332.704927	381.474126
335.167516	383.689510
337.629448	383.718881
340.090723	384.787413
342.549263	381.268531
345.009226	379.556643
347.466457	379.780420
349.923033	377.528671
352.378955	374.819580
354.832147	374.373427
357.286762	373.858741
359.736575	379.076923
362.189884	379.580420
364.638394	383.088112
367.086254	381.980420
369.535536	383.404196
371.980023	383.222378
374.425933	386.886713
376.871194	386.248951
379.313736	378.932867
381.755630	375.562238
384.196876	377.166434
386.635408	380.920280
389.075360	382.450350
391.512599	379.906294
393.947127	379.840559
396.385141	377.216783
398.818380	378.692308
401.253039	380.166434
403.682926	378.641958
406.116298	376.330070
408.544900	371.265734
410.972860	375.400000
413.402241	381.439161
415.826858	381.457343
418.252895	383.351049
420.678293	382.471329
423.103050	379.363636
425.523048	376.683916
427.944468	372.113287
430.363192	368.460140
432.783335	362.581818
435.200784	364.425175
437.619654	366.068531
440.035829	374.095105
442.447258	379.627972
444.862163	383.359441
447.274378	389.187413
449.685960	393.148252
452.096907	396.099301
454.505167	396.788811
456.912796	393.569231
459.319792	387.641958
461.726157	384.820979
464.129839	381.509091
466.532891	381.023776
468.935313	383.116084
471.337105	380.002797
473.736219	379.360839
476.136753	380.844755
478.536658	383.524476
480.931841	390.448951
483.330489	394.395804
485.724418	395.994406
488.117721	395.759441
490.510399	397.176224
492.902451	390.337063
495.295921	388.527273
497.684679	388.131469
500.070771	380.895105
502.458283	378.570629
504.845172	375.513287
507.229396	376.405594
509.615040	381.046154
511.998022	383.462937
514.378342	384.889510
516.760083	387.099301
519.139164	387.718881
521.519663	387.904895
523.897506	386.816783
526.272692	388.914685
528.647261	383.702098
531.023249	381.990210
533.396584	378.868531
535.771336	380.262937
538.141402	378.639161
540.510854	378.011189
542.881723	377.987413
545.247911	377.986014
547.615518	381.460140
549.980479	386.895105
552.344828	385.586014
554.708563	388.125874
557.073716	388.843357
559.434197	389.103497
561.796095	391.794406
564.155354	397.699301
566.511974	393.612587
568.872040	391.867133
571.225414	391.482517
573.582233	391.318881
575.936417	390.812587
578.289992	387.748252
580.642960	383.706294
582.993295	382.699301
585.345048	376.000000
587.690124	371.994406
590.040663	372.546853
592.384530	371.314685
594.733858	366.030769
597.078537	370.324476
599.420592	374.613986
601.764064	380.595804
604.104913	384.110490
606.445159	392.353846
608.782785	397.032168
611.123846	398.825175
613.460270	393.809790
615.798110	395.036364
618.133333	391.271329
620.465939	385.786014
622.799963	380.304895
625.131372	380.082517
627.462183	376.720280
629.792396	377.053147
632.122012	378.187413
634.447004	383.088112
636.777438	381.797203
639.103251	381.744056
641.426456	380.251748
643.751078	381.553846
646.073094	376.661538
648.394516	375.667133
650.713335	373.560839
653.033571	379.537063
655.353212	384.377622
657.670254	390.303497
659.986703	394.297902
662.300554	399.180420
664.615821	399.113287
666.928491	397.563636
669.242576	392.593007
671.552061	389.513287
673.862962	384.179021
676.171270	382.370629
678.478989	382.222378
680.788124	382.433566
683.092666	379.725874
685.396622	380.430769
687.699991	380.213986
690.004776	380.542657
692.304973	376.370629
694.606586	380.429371
696.907613	379.240559
699.204059	382.566434
701.501920	388.344056
703.799197	389.131469
706.095891	390.591608
708.388009	386.307692
710.683538	382.611189
712.974493	381.735664
715.266863	377.879720
717.556657	376.780420
719.845872	376.269930
722.134507	385.537063
724.420569	386.160839
726.708045	389.191608
728.992951	389.681119
731.277279	390.281119
733.559038	390.892308
735.842211	389.910490
738.124807	388.657343
740.402847	385.839161
742.682301	384.562238
744.961180	385.587413
747.239484	386.923077
749.513237	392.390210
751.788405	393.393007
754.062999	392.977622
756.335034	388.499301
758.608482	394.370629
760.879372	392.437762
763.147706	390.485315
765.417453	389.620979
767.684645	388.500699
769.951268	389.388811
772.217320	390.509091
774.480821	390.892308
776.745734	396.341259
779.010079	398.892308
781.269893	402.490909
783.531121	400.309091
785.791781	403.637762
788.049895	399.146853
790.305464	396.212587
792.564423	390.647552
794.816884	384.394406
797.074712	383.921678
799.328021	380.260140
801.578790	381.124476
803.830971	386.341259
806.080613	384.071329
808.331667	389.437762
810.578210	386.286713
812.826166	389.246154
815.071586	388.848951
817.318419	390.394406
819.564689	389.511888
821.806456	391.376224
824.051605	396.339860
826.290283	393.521678
828.532342	392.725874
830.769903	392.394406
833.008876	388.864336
835.245322	394.956643
837.483179	395.580420
839.718511	396.397203
841.951320	396.804196
844.185539	400.121678
846.417237	400.558042
848.648380	400.716084
850.878968	397.886713
853.109002	390.390210
855.338481	384.713287
857.563480	380.558042
859.791852	381.387413
862.015746	382.907692
864.241051	387.194406
866.461880	392.413986
868.686081	402.558042
870.905809	405.619580
873.126947	406.142657
875.347535	405.806993
877.565614	405.826573
879.785102	401.826573
882.000124	395.556643
884.214598	386.083916
886.428525	379.436364
888.641904	368.781818
890.854737	364.097902
893.067022	359.636364
895.276806	357.893706
897.486044	355.619580
899.694737	356.379021
901.900930	357.724476
904.108533	362.286713
906.313639	365.156643
908.518201	370.433566
910.720268	380.858741
912.923744	385.261538
915.124726	388.753846
917.325166	389.027972
919.527015	389.321678
921.722473	394.524476
923.921289	395.843357
926.115668	395.304895
928.313404	392.678322
930.506704	390.889510
932.701413	393.685315
934.893635	398.925874
937.085320	406.910490
939.276467	402.518881
941.465131	401.065734
943.653259	402.296503
945.838905	401.047552
948.027905	401.829371
950.212480	399.104895
952.396521	398.786014
954.583913	399.464336
956.763000	399.222378
958.945438	404.310490
961.127342	405.345455
963.306771	402.218182
965.483728	399.356643
967.662093	398.069930
969.841865	403.027972
972.015288	401.874126
974.192057	404.930070
976.364419	407.220979
978.538189	410.314685
980.707555	415.430769
982.880265	417.325874
985.050510	420.604196
987.220225	417.464336
989.389412	410.977622
991.554202	406.134266
993.722334	406.281119
995.886070	405.567832
998.051214	405.013986
1000.213898	405.440559
1002.376057	408.483916
1004.535759	414.127273
1006.694936	420.474126
1008.855520	423.188811
1011.013649	426.997203
1013.171255	423.917483
1015.328337	416.678322
1017.484895	408.674126
1019.637074	411.304895
1021.790660	403.851748
1023.943724	406.510490
1026.094339	402.355245
1028.246360	402.608392
1030.394009	403.253147
1032.544989	407.745455
1034.691598	407.620979
1036.837688	412.436364
1038.983260	413.769231
1041.130237	412.306294
1043.270925	414.015385
1045.414942	417.373427
1047.556520	419.728671
1049.697580	424.095105
1051.840046	418.876923
1053.976231	422.310490
1056.115743	420.613986
1058.250899	423.604196
1060.389380	421.397203
1062.523508	422.676923
1064.657122	420.450350
1066.792140	419.338462
1068.922810	417.451748
1071.054884	415.079720
1073.184528	413.250350
1075.313661	413.152448
1077.442283	409.546853
1079.570393	412.074126
1081.696077	409.858741
1083.821251	413.956643
1085.947829	416.165035
1088.070069	419.906294
1090.193714	425.474126
1092.313024	426.072727
1094.437563	420.847552
1096.555858	421.613986
1098.675556	417.317483
1100.792837	418.342657
1102.909610	417.513287
1105.025877	420.169231
1107.139729	420.822378
1109.254984	422.439161
1111.365917	416.928671
1113.480162	420.938462
1115.590086	424.544056
1117.701413	415.553846
1119.812237	410.123077
1121.918744	409.906294
1124.028560	407.036364
1126.134062	410.254545
1128.240968	415.339860
1130.341658	418.209790
1132.447560	419.921678
1134.549153	419.232168
1136.652148	414.461538
1138.754644	419.436364
1140.850932	417.700699
1142.952427	412.090909
1145.049620	409.260140
1147.146314	413.060140
1149.242511	417.497902
1151.338209	421.695105
1153.433410	425.149650
1155.526214	424.373427
1157.620420	422.830769
1159.708435	425.510490
1161.801648	424.349650
1163.888674	422.825175
1165.978998	419.443357
1168.065034	419.565035
1170.154368	420.090909
1172.237521	427.696503
1174.322077	428.934266
1176.408034	429.611189
1178.489709	432.096503
1180.572785	429.306294
1182.653476	429.167832
1184.733676	435.493706
1186.813384	429.510490
1188.892601	427.194406
1190.969435	426.476923
1193.043889	426.468531
1195.121635	428.546853
1197.195110	435.918881
1199.269987	438.102098
1201.340596	442.471329
1203.412606	449.181818
1205.482240	449.892308
1207.553275	453.882517
1209.623822	453.556643
1211.690109	451.282517
1213.757796	450.800000
1215.823110	447.132867
1217.889825	442.553846
1219.952284	443.152448
1222.018029	439.893706
1224.079519	439.148252
1226.142410	437.850350
1228.202932	436.352448
1230.262972	435.311888
1232.322528	436.353846
1234.379720	433.180420
1236.436429	436.237762
1238.490776	440.413986
1240.548403	439.524476
1242.603668	440.772028
1244.654693	444.672727
1246.707117	444.560839
1248.759061	453.006993
1250.808647	457.332867
1252.857754	461.641958
1254.906382	468.373427
1256.954532	470.781818
1259.002204	473.444755
1261.045645	475.309091
1263.092362	478.260140
1265.136725	475.195804
1267.180611	477.439161
1269.222147	476.027972
1271.261333	476.408392
1273.303792	479.654545
1275.342028	484.651748
1277.381663	494.535664
1279.420822	502.457343
1281.455764	506.490909
1283.492104	514.176224
1285.526100	517.106294
1287.561493	522.303497
1289.592673	531.370629
1291.625252	541.046154
1293.657359	552.051748
1295.687125	565.903497
1297.718288	578.517483
1299.745244	597.314685
1301.773599	616.695105
1303.797748	633.384615
1305.825163	653.711888
1307.848375	681.418182
1309.872985	696.426573
1311.895260	687.580420
1313.918933	580.902098
1315.940273	94.648951
1317.961146	-680.130070
1319.981551	176.051748
1321.997763	4560.797203
1324.015372	11370.896503
1326.030653	17826.117483
1328.049193	22564.581818
1330.063543	25294.160839
1332.075568	25916.244755
1334.090851	24421.973427
1336.101948	20886.867133
1338.114441	15521.033566
1340.122752	8873.784615
1342.134319	2505.827972
1344.139847	-1016.562238
1346.148630	-1097.271329
1348.153235	33.472727
1350.161094	531.072727
1352.168491	592.128671
1354.169857	593.194406
1356.172619	582.104895
1358.174922	568.316084
1360.176765	549.862937
1362.178148	533.753846
1364.177217	521.206993
1366.175828	505.679720
1368.173981	496.426573
1370.171676	491.930070
1372.165208	488.683916
1374.160135	491.548252
1376.154606	490.220979
1378.148620	489.530070
1380.140327	490.201399
1382.131578	486.351049
1384.120524	488.360839
1386.110865	483.219580
1388.100752	479.166434
1390.088334	477.420979
1392.075463	479.576224
1394.060290	480.783217
1396.046512	473.538462
1398.030433	476.232168
1400.013902	472.583217
1401.996919	472.946853
1403.977638	476.004196
1405.959751	473.200000
1407.939567	478.346853
1409.918933	475.429371
1411.894160	478.173427
1413.872625	482.662937
1415.848797	485.218182
1417.824519	487.237762
1419.799792	487.900699
1421.772775	493.057343
1423.745309	492.984615
1425.717395	496.198601
1427.689034	501.055944
1429.656544	504.236364
1431.629128	505.608392
1433.593906	504.337063
1435.563757	503.493706
1437.529483	500.367832
1439.496603	496.966434
1441.461439	496.699301
1443.422155	494.327273
1445.387939	492.923077
1447.347768	490.206993
1449.308991	490.489510
1451.271605	492.293706
1453.230105	499.711888
1455.188163	503.483916
1457.145779	509.413986
1459.102952	507.180420
1461.057850	505.658741
1463.014141	505.258741
1464.968157	498.786014
1466.921732	497.034965
1468.873035	493.879720
1470.825730	489.857343
1472.776154	488.760839
1474.726139	488.420979
1476.675685	492.739860
1478.622962	494.537063
1480.567971	498.643357
1482.514373	496.468531
1484.460337	497.534266
1486.405864	496.956643
1488.349125	490.945455
1490.291950	490.661538
1492.232512	490.890909
1494.174466	487.330070
1496.114157	488.848951
1498.053413	488.674126
1499.992235	487.672727
1501.928797	486.191608
1503.866750	486.425175
1505.802444	486.805594
1507.737705	489.511888
1509.670709	489.290909
1511.603281	491.078322
1513.535421	492.090909
1515.467129	498.376224
1517.396584	496.967832
1519.327429	501.356643
1521.257842	502.879720
1523.184183	497.806993
1525.111914	494.826573
1527.037396	493.051748
1528.962448	494.846154
1530.887070	497.079720
1532.811264	497.595804
1534.733211	505.359441
1536.656548	504.931469
1538.577638	510.633566
1540.496484	512.760839
1542.416720	515.395804
1544.334712	513.439161
1546.252278	508.208392
1548.167603	508.295105
1550.084317	503.523077
1551.996975	497.549650
1553.912838	493.404196
1555.826462	493.467133
1557.737847	492.871329
1559.650622	488.416783
1561.559347	488.959441
1563.469461	490.200000
1565.379152	492.496503
1567.288420	491.885315
1569.195453	493.983217
1571.100254	497.717483
1573.006444	492.503497
1574.910403	489.745455
1576.813940	487.611189
1578.717057	486.504895
1580.617944	485.716084
1582.520220	483.881119
1584.420267	483.030769
1586.321703	488.211189
1588.219104	491.938462
1590.116088	495.135664
1592.012653	499.125874
1593.910605	502.002797
1595.802723	495.798601
1597.698035	492.471329
1599.592928	489.804196
1601.485601	487.601399
1603.377856	490.730070
1605.267892	486.683916
1607.157512	489.944056
1609.046717	499.623776
1610.935506	498.405594
1612.822079	501.462937
1614.710039	502.029371
1616.593982	498.619580
1618.479312	495.106294
1620.364229	493.709091
1622.246932	488.380420
1624.131022	486.179021
1626.011100	482.728671
1627.892566	480.337063
1629.771820	483.448951
1631.652462	485.460140
1633.527299	487.609790
1635.407117	493.187413
1637.282930	496.306294
1639.158334	499.962238
1641.035123	501.889510
1642.906115	496.374825
1644.780290	493.552448
1646.650465	493.871329
1648.523821	492.316084
1650.394974	495.862937
1652.263925	496.332867
1654.134262	502.065734
1656.000606	506.169231
1657.868335	509.840559
1659.733865	509.762238
1661.600781	508.296503
1663.463707	502.685315
1665.328020	493.963636
1667.190136	492.500699
1669.051847	489.583217
1670.914943	489.867133
1672.775845	492.218182
1674.634554	491.509091
1676.492859	498.506294
1678.352548	497.851748
1680.206471	504.023776
1682.063567	502.023776
1683.920259	502.995804
1685.772976	505.734266
1687.628864	504.044755
1689.480778	505.307692
1691.332291	502.527273
1693.183403	503.022378
1695.034114	500.548252
1696.884425	496.251748
1698.732552	499.055944
1700.582063	498.696503
1702.425824	499.490909
1704.274536	497.274126
1706.117501	500.054545
1707.963632	504.840559
1709.805802	506.608392
1711.651137	511.046154
1713.490730	514.787413
1715.331709	515.144056
1717.174070	513.521678
1719.012474	512.365035
1720.852262	513.744056
1722.689875	512.704895
1724.527093	508.353846
1726.362137	502.897902
1728.198564	499.183217
1730.032818	501.409790
1731.866679	499.099301
1733.700145	503.379021
1735.529665	504.416783
1737.362345	498.738462
1739.191079	501.248951
1741.022972	504.795804
1742.850922	510.921678
1744.678480	507.914685
1746.505647	503.653147
1748.332422	498.626573
1750.158805	500.888112
1751.981252	504.830769
1753.806854	504.625175
1755.628520	508.562238
1757.451569	505.648951
1759.272457	502.717483
1761.092955	505.739860
1762.914835	509.229371
1764.731015	513.786014
1766.550347	510.218182
1768.365752	507.662937
1770.184308	508.629371
1771.998938	513.895105
1773.813181	514.239161
1775.627038	519.674126
1777.440508	521.576224
1779.251824	519.980420
1781.064522	522.416783
1782.876834	525.174825
1784.685227	528.535664
1786.495002	529.141259
1788.300861	530.204196
1790.109867	527.693706
1791.914959	531.693706
1793.721432	531.172028
1795.527520	533.116084
1797.329699	534.008392
1799.135021	531.878322
1800.936435	533.142657
1802.739230	532.476923
1804.538118	536.043357
1806.338387	533.813986
1808.138274	529.671329
1809.936019	533.334266
1811.733384	532.061538
1813.530368	536.627972
1815.326972	535.711888
1817.121437	537.808392
1818.917282	535.661538
1820.707471	534.609790
1822.502557	538.531469
1824.291990	538.349650
1826.084561	539.282517
1827.874996	542.138462
1829.663296	543.500699
1831.454732	547.611189
1833.240523	548.504895
1835.027692	547.801399
1836.812731	548.220979
1838.600902	551.893706
1840.385188	548.229371
1842.167345	549.323077
1843.950881	554.927273
1845.732288	554.650350
1847.515073	553.998601
1849.293979	557.686713
1851.074263	555.390210
1852.852422	550.194406
1854.631958	550.507692
1856.409370	548.173427
1858.184659	550.318881
1859.961325	552.034965
1861.735869	549.211189
1863.511790	555.215385
1865.282092	560.973427
1867.055521	563.138462
1868.826830	563.395804
1870.597768	563.490909
1872.370084	564.994406
1874.136786	563.079720
1875.906613	563.637762
1877.672577	565.980420
1879.441665	564.902098
1881.206891	564.090909
1882.971749	562.685315
1884.737983	568.288112
1886.500359	572.055944
1888.262368	576.509091
1890.024010	578.167832
1891.785284	581.895105
1893.546192	585.837762
1895.306732	581.268531
1897.065164	575.278322
1898.823229	572.966434
1900.579187	567.808392
1902.336521	567.074126
1904.093490	560.307692
1905.848352	563.204196
1907.601109	569.353846
1909.353503	574.180420
1911.107273	582.623776
1912.858939	588.004196
1914.608502	592.086713
1916.359442	589.225175
1918.110018	590.872727
1919.856756	586.832168
1921.604869	591.520280
1923.350883	592.537063
1925.098273	591.303497
1926.843564	594.434965
1928.586758	596.639161
1930.331328	597.765035
1932.073801	604.502098
1933.815914	605.490909
1935.557668	604.427972
1937.299061	601.683916
1939.038361	601.427972
1940.777302	598.127273
1942.515884	603.801399
1944.252375	599.682517
1945.988507	602.669930
1947.726015	600.850350
1949.459700	601.633566
1951.194760	610.125874
1952.927731	611.183217
1954.660346	612.594406
1956.392604	616.730070
1958.124506	619.574825
1959.854323	623.756643
1961.582054	622.079720
1963.311160	623.144056
1965.039910	618.524476
1966.766577	620.002797
1968.492890	619.788811
1970.220577	621.763636
1971.942727	621.935664
1973.667978	619.475524
1975.389422	627.289510
1977.113966	630.718881
1978.836431	637.208392
1980.555092	642.006993
1982.276852	647.013986
1983.994811	647.855944
1985.714142	645.139860
1987.429674	648.128671
1989.150026	649.457343
1990.866580	647.651748
1992.579337	644.195804
1994.295190	646.283916
1996.008971	652.591608
1997.722402	652.179021
1999.433762	659.401399
2001.146494	663.741259
2002.855435	670.469930
2004.567470	665.510490
2006.273995	664.581818
2007.983613	667.609790
2009.691163	668.622378
2011.398366	668.703497
2013.103503	666.646154
2014.808293	669.165035
2016.514456	669.012587
2018.216835	667.367832
2019.920587	666.548252
2021.622276	669.202797
2023.323619	669.819580
2025.024618	674.262937
2026.723555	680.791608
2028.423864	688.076923
2030.120397	694.591608
2031.818302	696.878322
2033.514149	698.714685
2035.213081	698.328671
2036.906527	697.180420
2038.601344	694.325874
2040.295818	694.258741
2041.986525	694.188811
2043.680314	692.551049
2045.370338	701.647552
2047.061731	705.387413
2048.751072	705.286713
2050.441784	705.048951
2052.128732	702.510490
2053.815340	701.381818
2055.503319	696.116084
2057.187538	700.858741
2058.873127	698.941259
2060.558377	699.661538
2062.241579	699.153846
2063.926151	698.823776
2065.605259	701.458741
2067.289154	696.802797
2068.967587	695.727273
2070.649098	693.867133
2072.326857	694.493706
2074.004280	695.072727
2075.683072	696.163636
2077.359821	700.916084
2079.034529	704.103497
2080.710607	709.591608
2082.384643	713.986014
2084.058345	714.990210
2085.731711	714.558042
2087.403038	711.151049
2089.074031	716.606993
2090.744690	718.261538
2092.415015	726.917483
2094.085006	725.351049
2095.752960	722.844755
2097.420582	723.622378
2099.086170	726.064336
2100.753126	728.857343
2102.418049	727.227972
2104.082640	728.011189
2105.745199	726.048951
2107.409126	726.356643
2109.071022	733.009790
2110.732587	738.983217
2112.393822	743.450350
2114.053027	735.195804
2115.711903	734.755245
2117.370448	735.121678
2119.028664	735.977622
2120.683157	741.864336
2122.340714	747.110490
2123.997941	753.283916
2125.651448	758.678322
2127.306322	763.316084
2128.957477	767.037762
2130.611695	770.149650
2132.262195	768.707692
2133.914063	761.226573
2135.560522	758.843357
2137.211735	758.248951
2138.859236	761.436364
2140.508103	768.046154
2142.154951	773.394406
2143.801474	776.769231
2145.447671	780.574825
2147.090159	777.626573
2148.735706	780.552448
2150.377546	780.674126
2152.022443	779.594406
2153.663635	779.946853
2155.304503	777.239161
2156.945048	780.145455
2158.583580	785.788811
2160.223478	787.254545
2161.859676	791.159441
2163.497240	789.594406
2165.134482	791.959441
2166.769714	794.183217
2168.404624	800.581818
2170.039213	803.353846
2171.673481	809.892308
2173.304055	816.468531
2174.937681	815.425175
2176.567614	815.752448
2178.198914	814.981818
2179.828208	816.279720
2181.457183	818.516084
2183.085838	823.170629
2184.714174	826.296503
2186.340507	825.916084
2187.966522	824.204196
2189.590536	823.423776
2191.215915	822.300699
2192.839293	822.535664
2194.464036	812.626573
2196.085098	805.334266
2197.705843	807.085315
2199.327952	810.078322
2200.948064	809.363636
2202.566180	815.517483
2204.183980	815.391608
2205.801464	823.602797
2207.418634	829.128671
2209.035487	832.061538
2210.652026	832.800000
2212.266571	833.400000
2213.879125	828.671329
2215.493042	829.023776
2217.104968	834.826573
2218.718257	830.925874
2220.329555	825.853147
2221.938865	831.048951
2223.549537	836.805594
2225.158221	845.517483
2226.766593	845.057343
2228.372978	851.882517
2229.980725	855.383217
2231.586487	860.495105
2233.191937	864.939860
2234.795402	868.054545
2236.400230	876.606993
2238.003074	881.132867
2239.603935	886.195804
2241.206159	893.026573
2242.806401	893.565035
2244.408005	891.381818
2246.005956	887.993007
2247.605270	890.963636
2249.202604	893.892308
2250.799630	894.745455
2252.398017	893.965035
2253.992757	891.190210
2255.585519	896.220979
2257.179644	900.763636
2258.775130	905.137063
2260.366971	903.369231
2261.958506	902.275524
2263.551402	899.509091
2265.138990	903.413986
2266.731273	906.241958
2268.318249	913.537063
2269.908254	917.987413
2271.492954	924.093706
2273.082348	926.037762
2274.666439	926.089510
2276.251892	926.641958
2277.835376	925.586014
2279.421885	918.040559
2281.004761	917.641958
2282.587334	916.776224
2284.169603	920.053147
2285.748242	919.016783
2287.329906	919.746853
2288.907941	926.071329
2290.488999	929.709091
2292.066430	928.559441
2293.641898	924.759441
2295.220388	927.499301
2296.795254	928.897902
2298.369819	929.506294
2299.944083	935.251748
2301.518047	938.834965
2303.091711	938.669930
2304.665075	941.408392
2306.234820	941.797203
2307.804266	943.553846
2309.376730	943.516084
2310.943920	938.426573
2312.514127	944.531469
2314.080721	948.041958
2315.648673	953.963636
2317.214671	962.092308
2318.780371	966.455944
2320.345773	976.850350
2321.909222	980.253147
2323.474030	990.688112
2325.035229	997.367832
2326.599443	1000.827972
2328.158396	1002.387413
2329.720362	999.702098
2331.280378	1004.809790
2332.840098	1004.420979
2334.397870	1006.886713
2335.955346	1004.142657
2337.512528	1004.018182
2339.067762	1011.265734
2340.622702	1016.309091
2342.177349	1022.370629
2343.731702	1023.686713
2345.285761	1022.404196
2346.839527	1025.359441
2348.391348	1024.356643
2349.941226	1023.306294
2351.494113	1023.523077
2353.041756	1022.493706
2354.592407	1015.699301
2356.139468	1018.067133
2357.687886	1026.334266
2359.236013	1036.197203
2360.780551	1035.773427
2362.326447	1044.044755
2363.870404	1056.651748
2365.415719	1064.643357
2366.957449	1071.408392
2368.500537	1078.187413
2370.041688	1082.565035
2371.582550	1083.039161
2373.123123	1083.751049
2374.663407	1084.931469
2376.203402	1086.001399
2377.739818	1086.380420
2379.279236	1089.204196
2380.815077	1100.271329
2382.352275	1103.734266
2383.885897	1104.727273
2385.422519	1112.053147
2386.957211	1114.272727
2388.489972	1116.766434
2390.022448	1116.749650
2391.552995	1116.502098
2393.086540	1115.953846
2394.614874	1120.057343
2396.144564	1128.545455
2397.673969	1144.500699
2399.203089	1152.622378
2400.731923	1161.832168
2402.255553	1176.351049
2403.783818	1184.641958
2405.306880	1194.401399
2406.834577	1199.246154
2408.355434	1194.345455
2409.880923	1193.646154
2411.402853	1196.278322
2412.926137	1196.304895
2414.447501	1193.205594
2415.966945	1190.325874
2417.487744	1186.914685
2419.006624	1189.688112
2420.525223	1195.345455
2422.041903	1192.697902
2423.559939	1197.937063
2425.077693	1197.976224
2426.591895	1202.601399
2428.105818	1216.738462
2429.619460	1225.812587
2431.134456	1229.560839
2432.645905	1239.318881
2434.158707	1238.048951
2435.669597	1240.187413
2437.180208	1245.511888
2438.688907	1248.836364
2440.200592	1245.875524
2441.708734	1251.299301
2443.216598	1253.752448
2444.724183	1267.374825
2446.228229	1276.576224
2447.735259	1281.412587
2449.240381	1291.783217
2450.745226	1294.146853
2452.248164	1290.173427
2453.750825	1297.443357
2455.253211	1304.965035
2456.753690	1308.197203
2458.255524	1312.139860
2459.755452	1315.213986
2461.255105	1316.134266
2462.754483	1321.739860
2464.251958	1321.198601
2465.747531	1322.671329
2467.246084	1322.892308
2468.741109	1315.562238
2470.237486	1314.208392
2471.730337	1317.281119
2473.224541	1321.837762
2474.718471	1327.604196
2476.208877	1331.264336
2477.702261	1337.917483
2479.193747	1346.061538
2480.683336	1347.513287
2482.172653	1351.514685
2483.660074	1356.128671
2485.150471	1355.984615
2486.637350	1354.268531
2488.125580	1348.875524
2489.610293	1346.089510
2491.094736	1347.453147
2492.580531	1349.162238
2494.064434	1348.000000
2495.549687	1350.672727
2497.029807	1358.016783
2498.512899	1352.351049
2499.994102	1353.744056
2501.475035	1358.731469
2502.954078	1358.553846
2504.432854	1355.246154
2505.911361	1352.791608
2507.389599	1346.921678
2508.867570	1344.426573
2510.342035	1343.121678
2511.819470	1339.650350
2513.293400	1339.271329
2514.768682	1339.878322
2516.243696	1332.560839
2517.715209	1335.460140
2519.188073	1343.664336
2520.659054	1341.548252
2522.131385	1344.416783
2523.598602	1340.041958
2525.068786	1341.597203
2526.537089	1343.601399
2528.005126	1343.408392
2529.472899	1337.848951
2530.940407	1345.563636
2532.407651	1337.011189
2533.871402	1336.469930
2535.336503	1333.927273
2536.799727	1339.539860
2538.264300	1338.962238
2539.725385	1345.932867
2541.187819	1350.079720
2542.649990	1359.948252
2544.108674	1363.983217
2545.571931	1371.990210
2547.030091	1375.834965
2548.489601	1391.538462
2549.944016	1392.411189
2551.403002	1393.093706
2552.860116	1383.209790
2554.315358	1388.412587
2555.770340	1392.065734
2557.223452	1400.662937
2558.677913	1402.246154
2560.130505	1405.798601
2561.582837	1402.365035
2563.033301	1403.893706
2564.486722	1405.019580
2565.935060	1414.667133
2567.386353	1418.834965
2568.835780	1411.813986
2570.281736	1404.144056
2571.730646	1409.618182
2573.176085	1414.739860
2574.622873	1424.086713
2576.067797	1426.669930
2577.512464	1436.219580
2578.958478	1436.338462
2580.401025	1447.710490
2581.844920	1454.134266
2583.285350	1463.285315
2584.727128	1463.311888
2586.167046	1462.511888
2587.608311	1469.443357
2589.046114	1476.738462
2590.486867	1480.931469
2591.922558	1491.798601
2593.361197	1498.612587
2594.797980	1502.219580
2596.232907	1513.446154
2597.670781	1522.141259
2599.103598	1517.806993
2600.537762	1517.853147
2601.970071	1507.327273
2603.403728	1498.255944
2604.835530	1504.191608
2606.267080	1501.236364
2607.698376	1499.095105
2609.127821	1508.250350
2610.557013	1511.618182
2611.984354	1513.296503
2613.413042	1526.302098
2614.841477	1529.899301
2616.266466	1531.328671
2617.692800	1538.040559
2619.117287	1532.520280
2620.543118	1532.630769
2621.965507	1538.320280
2623.389240	1536.913287
2624.811128	1539.609790
2626.232765	1548.928671
2627.652558	1544.406993
2629.073696	1539.773427
2630.494584	1536.889510
2631.912033	1540.928671
2633.332422	1544.639161
2634.749374	1555.846154
2636.166078	1564.275524
2637.582533	1572.268531
2638.998740	1574.597203
2640.414699	1576.479720
2641.828817	1580.786014
2643.242687	1577.419580
2644.654718	1570.366434
2646.068094	1567.479720
2647.478040	1565.460140
2648.890922	1573.348252
2650.300375	1570.188811
2651.709582	1579.490909
2653.116953	1586.200000
2654.527258	1586.195804
2655.935727	1585.033566
2657.342362	1585.250350
2658.748750	1588.605594
2660.153306	1588.363636
2661.559205	1595.344056
2662.963270	1599.155245
2664.367092	1601.376224
2665.770669	1609.704895
2667.172415	1605.779021
2668.575504	1612.766434
2669.975175	1610.763636
2671.376190	1609.760839
2672.773789	1607.450350
2674.174317	1603.800000
2675.571431	1606.100699
2676.969888	1603.002797
2678.366517	1597.202797
2679.762905	1597.620979
2681.159050	1601.977622
2682.553369	1605.875524
2683.949031	1606.170629
2685.341284	1607.398601
2686.734879	1604.165035
2688.126650	1605.622378
2689.519764	1606.181818
2690.911053	1600.486713
2692.300521	1604.495105
2693.689748	1602.243357
2695.078735	1601.344056
2696.469065	1609.900699
2697.854411	1617.447552
2699.242680	1619.285315
2700.629129	1627.580420
2702.015339	1629.700699
2703.401310	1634.489510
2704.783883	1634.310490
2706.167798	1634.965035
2707.551474	1634.367832
2708.934913	1637.983217
2710.314956	1637.116084
2711.696341	1645.700699
2713.075910	1649.247552
2714.456821	1656.402797
2715.835917	1660.434965
2717.213199	1667.476923
2718.591822	1675.551049
2719.968631	1674.216783
2721.345205	1672.983217
2722.721543	1673.886713
2724.096069	1673.162238
2725.471936	1670.201399
2726.844416	1665.074126
2728.219813	1667.093706
2729.590249	1666.384615
2730.962025	1672.889510
2732.333568	1670.942657
2733.703302	1680.302098
2735.074376	1694.946853
2736.443643	1702.986014
2737.812676	1717.809790
2739.179903	1726.102098
2740.546896	1729.850350
2741.913657	1734.268531
2743.280185	1737.327273
2744.644909	1747.095105
2746.009400	1754.867133
2747.373659	1760.641958
2748.737687	1761.381818
2750.101482	1775.248951
2751.461905	1782.937063
2752.825237	1788.795804
2754.183627	1794.163636
2755.544927	1793.353846
2756.902857	1788.542657
2758.263695	1786.788811
2759.622733	1787.420979
2760.978403	1787.027972
2762.336982	1779.637762
2763.692193	1779.225175
2765.047175	1781.619580
2766.400360	1788.562238
2767.756452	1794.762238
2769.109180	1802.843357
2770.461679	1811.313287
2771.813951	1817.441958
2773.167560	1813.707692
2774.517808	1810.387413
2775.866263	1811.660140
2777.217622	1812.197203
2778.565622	1810.455944
2779.914961	1819.272727
2781.262507	1825.502098
2782.609827	1831.351049
2783.956919	1835.402797
2785.302221	1839.967832
2786.647297	1846.013986
2787.992147	1852.268531
2789.336771	1843.193007
2790.678043	1843.507692
2792.020652	1847.158042
2793.363037	1852.351049
2794.705196	1853.004196
2796.044006	1868.646154
2797.385716	1870.581818
2798.724077	1872.718881
2800.063776	1883.834965
2801.401689	1888.840559
2802.737818	1902.527273
2804.073724	1914.169231
2805.410967	1919.780420
2806.746425	1926.409790
2808.081661	1927.753846
2809.415115	1929.152448
2810.749905	1938.089510
2812.081354	1946.902098
2813.415699	1941.972028
2814.745146	1940.128671
2816.075930	1947.330070
2817.406492	1944.682517
2818.735275	1957.036364
2820.065395	1960.918881
2821.393736	1967.724476
2822.721855	1971.081119
2824.048198	1973.486713
2825.375876	1972.851748
2826.700222	1981.524476
2828.025904	1971.830769
2829.349810	1965.145455
2830.673496	1966.464336
2831.998518	1968.497902
2833.320211	1975.018182
2834.641685	1983.069930
2835.962939	1986.146853
2837.283975	1988.302098
2838.603239	1994.598601
2839.923838	2000.307692
2841.242665	1989.969231
2842.561274	1987.559441
2843.878113	1979.553846
2845.194734	1979.923077
2846.511138	1980.485315
2847.825772	1977.991608
2849.141741	1979.198601
2850.454391	1986.212587
2851.768375	1990.921678
2853.082143	1998.034965
2854.395694	2009.987413
2855.707479	2024.005594
2857.017497	2023.867133
2858.328850	2033.184615
2859.636888	2041.503497
2860.946260	2046.934266
2862.255417	2052.531469
2863.564359	2053.781818
2864.871538	2058.075524
2866.176953	2064.370629
2867.483703	2067.829371
2868.788691	2069.608392
2870.093464	2066.913287
2871.396477	2071.829371
2872.702370	2066.008392
2874.003409	2072.875524
2875.305781	2078.096503
2876.606395	2079.088112
2877.908341	2086.188811
2879.210075	2090.078322
2880.508505	2103.885315
2881.808268	2107.005594
2883.106274	2105.004196
2884.404068	2103.006993
2885.700105	2105.959441
2886.997476	2113.064336
2888.293092	2112.380420
2889.588496	2119.032168
2890.883689	2112.839161
2892.175585	2112.979021
2893.470356	2112.306294
2894.761832	2112.766434
2896.054640	2117.643357
2897.347238	2108.862937
2898.636541	2108.093706
2899.927178	2117.483916
2901.216063	2128.138462
2902.506280	2134.850350
2903.793206	2135.706294
2905.081464	2138.186014
2906.367973	2139.401399
2907.654273	2145.149650
2908.940365	2137.623776
2910.224709	2136.001399
2911.511925	2132.952448
2912.794314	2133.956643
2914.078035	2139.892308
2915.360009	2143.787413
2916.641777	2141.953846
2917.921799	2144.732867
2919.204691	2143.138462
2920.485838	2151.016783
2921.763703	2158.780420
2923.044437	2158.404196
2924.321890	2156.335664
2925.599138	2159.053147
2926.874643	2151.535664
2928.153016	2155.097902
2929.426575	2156.026573
2930.703001	2160.688112
2931.977685	2153.415385
2933.250630	2166.345455
2934.524906	2166.597203
2935.797441	2181.195804
2937.069773	2184.516084
2938.338832	2190.243357
2939.610756	2189.001399
2940.880942	2184.837762
2942.150924	2176.913287
2943.420703	2176.120280
2944.688746	2177.262937
2945.955052	2176.413986
2947.221156	2164.479720
2948.488591	2175.008392
2949.754290	2166.088112
2951.019788	2175.177622
2952.285083	2177.090909
2953.547113	2187.790210
2954.810473	2187.907692
2956.073632	2186.699301
2957.335058	2187.847552
2958.597815	2190.001399
2959.858839	2192.019580
2961.118133	2195.246154
2962.377226	2198.181818
2963.636120	2202.338462
2964.894812	2200.600000
2966.153305	2220.318881
2967.410069	2232.055944
2968.666634	2244.625175
2969.921470	2249.415385
2971.177636	2257.895105
2972.430547	2261.355245
2973.684786	2269.362238
2974.938827	2273.163636
2976.191142	2274.395804
2977.443259	2278.307692
2978.693651	2270.316084
2979.946898	2266.886713
2981.195368	2275.281119
2982.446693	2271.730070
2983.694768	2265.204196
2984.942646	2264.553846
2986.190328	2270.055944
2987.437812	2269.970629
2988.683575	2278.641958
2989.929141	2283.051748
2991.176036	2289.707692
2992.419686	2302.804196
2993.664663	2307.408392
2994.906398	2315.939860
2996.150984	2324.703497
2997.393851	2320.616783
2998.633477	2318.696503
2999.875953	2329.483916
3001.115189	2324.667133
3002.355753	2325.474126
3003.594600	2328.655944
3004.833253	2334.342657
3006.070190	2341.995804
3007.308455	2349.549650
3008.545004	2357.341259
3009.781360	2356.981818
3011.017522	2355.692308
3012.251970	2354.823776
3013.486225	2351.247552
3014.720287	2357.262937
3015.952637	2355.653147
3017.183275	2366.899301
3018.416759	2378.104895
3019.648532	2388.781818
3020.878593	2405.261538
3022.108463	2415.797203
3023.336623	2420.356643
3024.566110	2416.742657
3025.793887	2412.920280
3027.021473	2412.090909
3028.250385	2405.511888
3029.474555	2402.197203
3030.701568	2401.763636
3031.925358	2400.300699
3033.150473	2394.895105
3034.373883	2394.760839
3035.597102	2400.409790
3036.818616	2394.296503
3038.042971	2399.282517
3039.262591	2400.138462
3040.483537	2407.285315
3041.704293	2416.346853
3042.923347	2426.486713
3044.143725	2429.174825
3045.360887	2437.693706
3046.579374	2442.696503
3047.796160	2436.509091
3049.012757	2437.483916
3050.229167	2439.548252
3051.442363	2436.366434
3052.658397	2439.544056
3053.871219	2436.927273
3055.086878	2436.241958
3056.297814	2434.134266
3057.510076	2440.269930
3058.722150	2446.482517
3059.934038	2447.918881
3061.144229	2445.773427
3062.354233	2444.097203
3063.564051	2453.995804
3064.772173	2461.782517
3065.980110	2464.946853
3067.186351	2464.708392
3068.393917	2460.548252
3069.599788	2454.803497
3070.805474	2453.563636
3072.010976	2452.672028
3073.214784	2458.983217
3074.419916	2454.502797
3075.623355	2455.349650
3076.825102	2468.537762
3078.026666	2469.735664
3079.228046	2481.381818
3080.429242	2488.211189
3081.628748	2493.986014
3082.828071	2497.598601
3084.028717	2493.047552
3085.227673	2491.081119
3086.423434	2484.527273
3087.622025	2488.341259
3088.817422	2482.379021
3090.014143	2476.704895
3091.207671	2472.865734
3092.404027	2462.404196
3093.598696	2471.714685
3094.790175	2478.577622
3095.985986	2488.805594
3097.177102	2504.983217
3098.369542	2511.055944
3099.558793	2521.493706
3100.750871	2519.907692
3101.941265	2521.309091
3103.128473	2510.534266
3104.317003	2501.523077
3105.506856	2494.699301
3106.693524	2484.576224
3107.880013	2480.791608
3109.066323	2481.586014
3110.253954	2485.165035
3111.438403	2492.290909
3112.621173	2495.033566
3113.806765	2494.662937
3114.990678	2500.516084
3116.172911	2503.353846
3117.354967	2505.018182
3118.536844	2514.521678
3119.718543	2520.924476
3120.898565	2521.939860
3122.076910	2526.869930
3123.258075	2532.548252
3124.436065	2532.493706
3125.613878	2532.516084
3126.791514	2528.822378
3127.967475	2526.081119
3129.143260	2527.416783
3130.320365	2526.212587
3131.495797	2524.118881
3132.669555	2528.798601
3133.841640	2524.240559
3135.015046	2526.278322
3136.188277	2529.815385
3137.359836	2537.461538
3138.532715	2542.573427
3139.702427	2553.854545
3140.873460	2556.576224
3142.042822	2559.524476
3143.210515	2562.034965
3144.381023	2566.169231
3145.546872	2561.278322
3146.717031	2561.756643
3147.882532	2553.096503
3149.047860	2556.027972
3150.213014	2552.138462
3151.377995	2554.534266
3152.544295	2552.980420
3153.705942	2558.909091
3154.868910	2556.960839
3156.031705	2556.367832
3157.194326	2551.804196
3158.355283	2545.416783
3159.516068	2532.144056
3160.676680	2522.594406
3161.835628	2517.661538
3162.994405	2508.601399
3164.153009	2499.342657
3165.311442	2500.331469
3166.469703	2501.636364
3167.626303	2511.937063
3168.781241	2518.413986
3169.937498	2524.903497
3171.092094	2526.219580
3172.246520	2527.032168
3173.399285	2530.081119
3174.551881	2533.338462
3175.704307	2531.742657
3176.856562	2534.516084
3178.008648	2533.675524
3179.157587	2549.093706
3180.309333	2560.262937
3181.459422	2577.450350
3182.607853	2586.972028
3183.756116	2597.657343
3184.904210	2613.797203
3186.052135	2621.793007
3187.198404	2630.013986
3188.344505	2631.776224
3189.488952	2628.612587
3190.633230	2644.506294
3191.777341	2641.176224
3192.922770	2649.709091
3194.065060	2644.495105
3195.207182	2643.151049
3196.349138	2640.208392
3197.490926	2636.194406
3198.632547	2638.412587
3199.771033	2634.490909
3200.910836	2631.461538
3202.051956	2626.436364
3203.189943	2626.841958
3204.326279	2638.269930
3205.462451	2641.675524
3206.599939	2648.299301
3207.735779	2649.490909
3208.872936	2653.969231
3210.005480	2649.646154
3211.142305	2642.855944
3212.274520	2649.325874
3213.408051	2646.492308
3214.541417	2646.857343
3215.671657	2641.069930
3216.804694	2646.299301
3217.934605	2652.706294
3219.065832	2657.629371
3220.193934	2662.088112
3221.324834	2655.549650
3222.454089	2652.349650
3223.581701	2633.825175
3224.706190	2628.636364
3225.834955	2628.166434
3226.960598	2627.320280
3228.086078	2639.269930
3229.209917	2640.899301
3230.336551	2651.500699
3231.458587	2665.497902
3232.581939	2679.944056
3233.705128	2690.490909
3234.828156	2690.632168
3235.949544	2693.321678
3237.070771	2691.811189
3238.190359	2691.471329
3239.309786	2702.005594
3240.427576	2709.365035
3241.548157	2715.363636
3242.665625	2712.152448
3243.782932	2729.226573
3244.900079	2749.250350
3246.015589	2765.555245
3247.132415	2776.405594
3248.246130	2781.618182
3249.362636	2788.313287
3250.477506	2801.969231
3251.589268	2808.819580
3252.700871	2816.394406
3253.813789	2807.948252
3254.926547	2806.036364
3256.036199	2801.292308
3257.147166	2802.204196
3258.257974	2790.546853
3259.367150	2779.020979
3260.474695	2775.639161
3261.583555	2774.264336
3262.692256	2776.197203
3263.797855	2792.676923
3264.904769	2803.661538
3266.010053	2805.516084
3267.116651	2813.353846
3268.220149	2833.753846
3269.324961	2844.567832
3270.429616	2853.303497
3271.531173	2855.406993
3272.632573	2865.079720
3273.735287	2873.394406
3274.837845	2874.429371
3275.937306	2867.793007
3277.039551	2860.309091
3278.138700	2859.264336
3279.236224	2852.977622
3280.333594	2847.674126
3281.433745	2843.471329
3282.530804	2837.902098
3283.627707	2838.429371
3284.724455	2828.664336
3285.816644	2828.972028
3286.913083	2828.523077
3288.007899	2825.629371
3289.102560	2825.300699
3290.195600	2830.648951
3291.288486	2846.018182
3292.379751	2849.302098
3293.472329	2837.324476
3294.563287	2837.931469
3295.652625	2834.004196
3296.741810	2832.023776
3297.832307	2822.760839
3298.919721	2828.606993
3300.006981	2839.036364
3301.095554	2844.513287
3302.183974	2853.160839
3303.267848	2865.524476
3304.355963	2871.931469
3305.440996	2868.029371
3306.524414	2865.717483
3307.609144	2873.797203
3308.692258	2865.090909
3309.776684	2869.420979
3310.858033	2874.883916
3311.940693	2875.858741
3313.021738	2879.686713
3314.102633	2889.290909
3315.181915	2896.983217
3316.261046	2904.341259
3317.341489	2909.913287
3318.418857	2904.046154
3319.497537	2915.937063
3320.574605	2915.679720
3321.651523	2918.539860
3322.726831	2925.180420
3323.801989	2924.247552
3324.878458	2917.451748
3325.951857	2919.514685
3327.025106	2928.889510
3328.099667	2929.937063
3329.172619	2923.046154
3330.243962	2921.145455
3331.316616	2905.713287
3332.386203	2906.469930
3333.457101	2900.904895
3334.526393	2896.534266
3335.596994	2891.015385
3336.665989	2886.980420
3337.733379	2884.542657
3338.799163	2887.332867
3339.869173	2887.827972
3340.936120	2879.910490
3342.000005	2873.055944
3343.066657	2868.069930
3344.131706	2864.229371
3345.195151	2863.893706
3346.258450	2864.103497
3347.321602	2862.216783
3348.384608	2866.896503
3349.447468	2870.226573
3350.508725	2879.625175
3351.566926	2890.654545
3352.629348	2891.373427
3353.688714	2894.016783
3354.747934	2895.794406
3355.808463	2902.949650
3356.864484	2912.001399
3357.923268	2913.781818
3358.977545	2914.986014
3360.034586	2919.237762
3361.090028	2924.728671
3362.146780	2925.798601
3363.201933	2927.290909
3364.255489	2927.674126
3365.307448	2932.725874
3366.362170	2936.193007
3367.413842	2932.132867
3368.465370	2940.967832
3369.518208	2944.088112
3370.567998	2943.244755
3371.619097	2940.679720
3372.667149	2945.606993
3373.717962	2947.795804
3374.765729	2944.682517
3375.813354	2942.381818
3376.860837	2947.867133
3377.906727	2948.383217
3378.953925	2942.405594
3379.998080	2946.363636
3381.044995	2958.855944
3382.090317	2956.737063
3383.132598	2959.800000
3384.174738	2956.176224
3385.218187	2958.086713
3386.261494	2955.058741
3387.303211	2959.313287
3388.344788	2961.502098
3389.386223	2955.062937
3390.426070	2946.896503
3391.464328	2944.075524
3392.503894	2953.149650
3393.543320	2955.790210
3394.581158	2949.713287
3395.617409	2959.813986
3396.653520	2958.272727
3397.690939	2960.706294
3398.725325	2961.525874
3399.761019	2963.239161
3400.796573	2968.132867
3401.829095	2960.296503
3402.864371	2961.974825
3403.896617	2961.598601
3404.928723	2962.612587
3405.959247	2958.769231
3406.991077	2960.443357
3408.022769	2967.739860
3409.051433	2964.779021
3410.079960	2961.216783
3411.109793	2954.818182
3412.139489	2947.913287
3413.166159	2951.181818
3414.194135	2950.697902
3415.219087	2956.591608
3416.246790	2959.376224
3417.271468	2964.145455
3418.297453	2964.813986
3419.321859	2975.725874
3420.346128	2970.527273
3421.368818	2969.234965
3422.391372	2970.464336
3423.415232	2963.467133
3424.436072	2964.939860
3425.456776	2966.905295
3426.478786	2965.557443
3427.497778	2958.886513
3428.516635	2944.882717
3429.536798	2921.536264
3430.553944	2886.837363
