-118.702670	6.200000
-116.033069	3.400000
-113.366404	-19.800000
-110.700491	-2.600000
-108.037511	33.400000
-105.373100	-8.800000
-102.711620	15.200000
-100.048711	21.400000
-97.390908	-0.200000
-94.731676	9.200000
-92.073192	-7.200000
-89.417633	-12.000000
-86.760644	3.400000
-84.108754	24.000000
-81.455434	1.400000
-78.805033	16.400000
-76.153204	13.800000
-73.506465	24.600000
-70.858296	4.400000
-68.210870	18.400000
-65.566359	-7.000000
-62.920418	16.800000
-60.279559	19.400000
-57.637271	13.200000
-54.997892	-7.200000
-52.357084	17.000000
-49.717015	0.200000
-47.082020	6.800000
-44.445595	-1.600000
-41.812073	11.400000
-39.177123	26.800000
-36.547239	3.800000
-33.913761	20.400000
-31.285346	-4.000000
-28.657665	6.800000
-26.028555	23.800000
-23.404503	16.400000
-20.776860	15.600000
-18.154272	8.400000
-15.532414	10.600000
-12.911287	4.200000
-10.290891	10.000000
-7.673382	9.800000
-5.054445	43.400000
-2.438394	140.800000
0.176930	96.400000
2.791525	76.600000
5.403239	0.600000
8.016381	16.800000
10.624489	19.000000
13.236178	10.800000
15.842837	6.600000
18.450925	21.800000
21.058287	4.000000
23.660625	1.200000
26.266542	-2.200000
28.867436	-13.200000
31.469758	15.200000
34.067062	-3.400000
36.667943	35.000000
39.263808	-15.200000
41.861101	8.000000
44.457675	2.400000
47.049240	-3.800000
49.642234	-7.000000
52.232366	-13.000000
54.823925	8.600000
57.412626	6.000000
60.002753	7.400000
62.587881	27.600000
65.174437	4.200000
67.760278	-1.000000
70.343266	9.600000
72.927681	-5.200000
75.504967	11.000000
78.085818	-3.000000
80.663822	8.400000
83.241114	26.200000
85.819834	-3.400000
88.393571	17.800000
90.968735	5.400000
93.541056	22.800000
96.112670	4.600000
98.681443	14.400000
101.251643	29.200000
103.819004	19.600000
106.387792	-9.600000
108.953743	6.800000
111.516859	21.800000
114.083531	17.600000
116.640981	2.200000
119.204117	22.800000
121.762294	25.200000
124.324025	27.000000
126.880799	25.400000
129.438999	59.600000
131.992247	97.000000
134.544797	118.800000
137.100897	151.000000
139.652049	200.200000
142.202504	269.800000
144.752261	298.400000
147.299199	304.200000
149.845442	365.200000
152.393110	349.800000
154.940082	373.200000
157.482118	367.000000
160.023462	376.000000
162.564112	343.400000
165.106187	370.600000
167.645452	371.600000
170.181907	356.600000
172.717672	377.600000
175.254862	394.400000
177.791361	381.800000
180.325054	374.600000
182.855943	354.400000
185.386144	383.000000
187.917771	371.000000
190.446596	376.000000
192.972622	394.400000
195.497962	390.200000
198.024727	384.000000
200.548696	400.000000
203.071979	371.400000
205.594578	388.800000
208.114384	394.400000
210.633507	371.600000
213.151947	358.800000
215.671812	357.600000
218.184674	367.600000
220.701068	363.800000
223.216781	369.400000
225.727603	396.200000
228.239850	397.600000
230.749314	384.600000
233.258100	347.000000
235.766208	398.400000
238.275740	393.400000
240.780391	401.800000
243.284366	339.800000
245.789765	389.000000
248.290289	365.600000
250.794336	384.200000
253.291413	375.400000
255.792012	419.000000
258.289840	371.800000
260.786995	393.800000
263.283478	374.200000
265.775097	375.200000
268.270236	374.600000
270.762608	357.800000
273.254310	409.000000
275.743249	376.000000
278.233611	377.200000
280.721212	395.600000
283.206053	379.200000
285.694409	385.400000
288.175825	398.600000
290.660755	383.000000
293.140839	380.200000
295.624436	368.600000
298.103191	368.400000
300.583368	366.200000
303.060794	358.800000
305.537556	372.600000
308.013654	369.400000
310.487004	390.000000
312.959693	378.200000
315.431720	382.200000
317.903085	381.800000
320.371707	406.400000
322.839669	403.800000
325.309054	389.800000
327.773616	386.000000
330.241682	396.400000
332.704927	364.800000
335.167516	398.400000
337.629448	383.000000
340.090723	384.800000
342.549263	400.000000
345.009226	386.000000
347.466457	421.000000
349.923033	395.400000
352.378955	370.400000
354.832147	397.400000
357.286762	385.600000
359.736575	366.400000
362.189884	387.000000
364.638394	371.000000
367.086254	361.800000
369.535536	406.200000
371.980023	413.600000
374.425933	384.000000
376.871194	383.000000
379.313736	371.800000
381.755630	407.400000
384.196876	400.000000
386.635408	395.600000
389.075360	359.000000
391.512599	398.800000
393.947127	397.400000
396.385141	401.800000
398.818380	393.600000
401.253039	364.400000
403.682926	367.200000
406.116298	389.000000
408.544900	393.800000
410.972860	368.000000
413.402241	353.800000
415.826858	404.600000
418.252895	380.800000
420.678293	389.600000
423.103050	389.000000
425.523048	363.200000
427.944468	387.600000
430.363192	352.600000
432.783335	390.800000
435.200784	403.600000
437.619654	377.600000
440.035829	386.800000
442.447258	365.400000
444.862163	350.200000
447.274378	372.400000
449.685960	374.200000
452.096907	407.800000
454.505167	340.400000
456.912796	382.800000
459.319792	398.800000
461.726157	398.800000
464.129839	375.400000
466.532891	392.600000
468.935313	394.200000
471.337105	374.600000
473.736219	383.600000
476.136753	385.000000
478.536658	376.200000
480.931841	397.400000
483.330489	380.200000
485.724418	399.800000
488.117721	349.400000
490.510399	381.200000
492.902451	423.400000
495.295921	382.800000
497.684679	370.400000
500.070771	400.200000
502.458283	379.000000
504.845172	399.400000
507.229396	375.000000
509.615040	390.000000
511.998022	376.800000
514.378342	397.800000
516.760083	350.000000
519.139164	396.000000
521.519663	378.000000
523.897506	385.400000
526.272692	378.400000
528.647261	380.600000
531.023249	393.000000
533.396584	398.800000
535.771336	374.600000
538.141402	415.000000
540.510854	392.600000
542.881723	375.200000
545.247911	373.000000
547.615518	368.400000
549.980479	382.600000
552.344828	361.400000
554.708563	394.000000
557.073716	415.600000
559.434197	379.800000
561.796095	377.200000
564.155354	395.200000
566.511974	372.200000
568.872040	379.800000
571.225414	372.200000
573.582233	384.400000
575.936417	396.000000
578.289992	383.000000
580.642960	394.000000
582.993295	387.000000
585.345048	419.000000
587.690124	361.800000
590.040663	373.800000
592.384530	378.000000
594.733858	374.000000
597.078537	369.400000
599.420592	381.600000
601.764064	391.200000
604.104913	386.600000
606.445159	375.400000
608.782785	391.600000
611.123846	382.600000
613.460270	398.600000
615.798110	369.000000
618.133333	370.200000
620.465939	368.400000
622.799963	364.400000
625.131372	401.200000
627.462183	367.200000
629.792396	420.200000
632.122012	412.200000
634.447004	372.400000
636.777438	407.800000
639.103251	381.200000
641.426456	381.400000
643.751078	392.000000
646.073094	395.600000
648.394516	383.000000
650.713335	408.200000
653.033571	377.800000
655.353212	395.800000
657.670254	363.600000
659.986703	401.800000
662.300554	383.400000
664.615821	418.200000
666.928491	388.400000
669.242576	412.200000
671.552061	391.600000
673.862962	379.200000
676.171270	378.800000
678.478989	384.600000
680.788124	382.400000
683.092666	400.000000
685.396622	400.600000
687.699991	350.600000
690.004776	350.800000
692.304973	386.400000
694.606586	376.400000
696.907613	385.400000
699.204059	389.800000
701.501920	396.400000
703.799197	389.200000
706.095891	386.600000
708.388009	387.600000
710.683538	398.200000
712.974493	383.800000
715.266863	402.400000
717.556657	392.000000
719.845872	381.000000
722.134507	362.000000
724.420569	409.000000
726.708045	391.600000
728.992951	399.600000
731.277279	361.000000
733.559038	402.600000
735.842211	399.400000
738.124807	358.000000
740.402847	373.800000
742.682301	392.000000
744.961180	376.000000
747.239484	394.800000
749.513237	380.800000
751.788405	379.400000
754.062999	382.000000
756.335034	402.600000
758.608482	400.600000
760.879372	410.800000
763.147706	381.800000
765.417453	416.600000
767.684645	376.400000
769.951268	420.600000
772.217320	359.400000
774.480821	364.800000
776.745734	390.800000
779.010079	386.600000
781.269893	411.400000
783.531121	404.400000
785.791781	421.600000
788.049895	402.000000
790.305464	393.000000
792.564423	398.400000
794.816884	377.000000
797.074712	420.000000
799.328021	384.200000
801.578790	356.000000
803.830971	394.200000
806.080613	408.800000
808.331667	433.800000
810.578210	380.600000
812.826166	375.800000
815.071586	408.200000
817.318419	399.000000
819.564689	378.600000
821.806456	399.400000
824.051605	388.600000
826.290283	384.800000
828.532342	402.200000
830.769903	384.000000
833.008876	386.200000
835.245322	398.400000
837.483179	366.800000
839.718511	400.800000
841.951320	403.000000
844.185539	403.600000
846.417237	407.600000
848.648380	390.400000
850.878968	368.400000
853.109002	383.600000
855.338481	378.000000
857.563480	391.200000
859.791852	404.600000
862.015746	405.200000
864.241051	386.600000
866.461880	408.200000
868.686081	397.000000
870.905809	398.600000
873.126947	394.200000
875.347535	411.200000
877.565614	421.400000
879.785102	391.200000
882.000124	390.000000
884.214598	412.800000
886.428525	400.600000
888.641904	414.400000
890.854737	401.600000
893.067022	404.200000
895.276806	387.000000
897.486044	362.400000
899.694737	360.600000
901.900930	353.400000
904.108533	380.600000
906.313639	366.600000
908.518201	405.600000
910.720268	394.600000
912.923744	384.800000
915.124726	387.400000
917.325166	410.400000
919.527015	369.400000
921.722473	419.000000
923.921289	376.400000
926.115668	389.400000
928.313404	388.400000
930.506704	417.000000
932.701413	406.800000
934.893635	413.200000
937.085320	393.400000
939.276467	407.400000
941.465131	393.000000
943.653259	413.600000
945.838905	399.000000
948.027905	406.600000
950.212480	402.600000
952.396521	404.800000
954.583913	422.200000
956.763000	396.000000
958.945438	393.400000
961.127342	418.400000
963.306771	414.800000
965.483728	428.400000
967.662093	408.000000
969.841865	418.200000
972.015288	405.400000
974.192057	410.200000
976.364419	408.800000
978.538189	423.600000
980.707555	410.400000
982.880265	411.000000
985.050510	401.000000
987.220225	444.400000
989.389412	408.400000
991.554202	404.000000
993.722334	428.600000
995.886070	421.400000
998.051214	399.200000
1000.213898	398.800000
1002.376057	423.800000
1004.535759	433.200000
1006.694936	416.400000
1008.855520	407.600000
1011.013649	435.800000
1013.171255	415.600000
1015.328337	431.400000
1017.484895	429.600000
1019.637074	409.600000
1021.790660	416.000000
1023.943724	388.400000
1026.094339	403.600000
1028.246360	394.000000
1030.394009	436.400000
1032.544989	401.200000
1034.691598	415.000000
1036.837688	388.400000
1038.983260	436.400000
1041.130237	450.400000
1043.270925	435.200000
1045.414942	377.400000
1047.556520	420.800000
1049.697580	390.200000
1051.840046	417.400000
1053.976231	428.200000
1056.115743	421.600000
1058.250899	396.400000
1060.389380	406.200000
1062.523508	408.400000
1064.657122	395.200000
1066.792140	388.600000
1068.922810	426.400000
1071.054884	431.400000
1073.184528	412.200000
1075.313661	411.800000
1077.442283	403.400000
1079.570393	408.600000
1081.696077	433.600000
1083.821251	413.800000
1085.947829	450.200000
1088.070069	407.600000
1090.193714	416.200000
1092.313024	410.400000
1094.437563	417.000000
1096.555858	420.800000
1098.675556	424.600000
1100.792837	394.000000
1102.909610	401.200000
1105.025877	440.400000
1107.139729	417.800000
1109.254984	409.000000
1111.365917	424.200000
1113.480162	389.400000
1115.590086	446.200000
1117.701413	418.000000
1119.812237	396.600000
1121.918744	397.200000
1124.028560	435.800000
1126.134062	428.200000
1128.240968	442.000000
1130.341658	427.800000
1132.447560	428.200000
1134.549153	405.800000
1136.652148	407.000000
1138.754644	435.600000
1140.850932	431.600000
1142.952427	422.400000
1145.049620	414.000000
1147.146314	413.600000
1149.242511	424.200000
1151.338209	412.800000
1153.433410	434.000000
1155.526214	416.800000
1157.620420	439.600000
1159.708435	438.600000
1161.801648	421.000000
1163.888674	414.800000
1165.978998	444.200000
1168.065034	442.000000
1170.154368	459.200000
1172.237521	403.000000
1174.322077	437.400000
1176.408034	418.600000
1178.489709	429.400000
1180.572785	408.000000
1182.653476	459.800000
1184.733676	406.400000
1186.813384	448.400000
1188.892601	437.200000
1190.969435	405.000000
1193.043889	431.800000
1195.121635	444.400000
1197.195110	417.000000
1199.269987	434.200000
1201.340596	428.000000
1203.412606	432.200000
1205.482240	441.600000
1207.553275	461.600000
1209.623822	427.800000
1211.690109	459.400000
1213.757796	458.800000
1215.823110	451.800000
1217.889825	435.800000
1219.952284	437.600000
1222.018029	433.600000
1224.079519	440.200000
1226.142410	451.200000
1228.202932	413.000000
1230.262972	492.800000
1232.322528	451.400000
1234.379720	440.400000
1236.436429	449.200000
1238.490776	447.600000
1240.548403	478.600000
1242.603668	435.400000
1244.654693	438.600000
1246.707117	455.400000
1248.759061	469.400000
1250.808647	454.400000
1252.857754	486.600000
1254.906382	455.400000
1256.954532	470.000000
1259.002204	426.200000
1261.045645	473.400000
1263.092362	459.400000
1265.136725	473.400000
1267.180611	458.800000
1269.222147	466.600000
1271.261333	458.600000
1273.303792	456.800000
1275.342028	518.000000
1277.381663	500.400000
1279.420822	516.400000
1281.455764	536.200000
1283.492104	488.000000
1285.526100	527.200000
1287.561493	488.400000
1289.592673	506.400000
1291.625252	529.800000
1293.657359	545.400000
1295.687125	573.600000
1297.718288	538.200000
1299.745244	569.400000
1301.773599	588.200000
1303.797748	643.400000
1305.825163	658.600000
1307.848375	676.800000
1309.872985	733.400000
1311.895260	816.800000
1313.918933	912.600000
1315.940273	1043.000000
1317.961146	1276.200000
1319.981551	1633.600000
1321.997763	2352.400000
1324.015372	3822.200000
1326.030653	7481.200000
1328.049193	18158.200000
1330.063543	36875.400000
1332.075568	45747.600000
1334.090851	33083.400000
1336.101948	13312.400000
1338.114441	4584.800000
1340.122752	2427.400000
1342.134319	1567.800000
1344.139847	1125.400000
1346.148630	898.800000
1348.153235	793.800000
1350.161094	733.000000
1352.168491	671.600000
1354.169857	633.800000
1356.172619	597.200000
1358.174922	544.400000
1360.176765	559.000000
1362.178148	532.000000
1364.177217	513.200000
1366.175828	536.000000
1368.173981	516.600000
1370.171676	487.000000
1372.165208	495.200000
1374.160135	474.600000
1376.154606	504.200000
1378.148620	480.600000
1380.140327	476.000000
1382.131578	463.400000
1384.120524	507.800000
1386.110865	475.600000
1388.100752	481.200000
1390.088334	487.200000
1392.075463	486.600000
1394.060290	498.200000
1396.046512	471.800000
1398.030433	492.200000
1400.013902	468.000000
1401.996919	487.400000
1403.977638	491.000000
1405.959751	473.800000
1407.939567	493.400000
1409.918933	452.400000
1411.894160	482.000000
1413.872625	487.600000
1415.848797	464.600000
1417.824519	514.600000
1419.799792	473.000000
1421.772775	495.600000
1423.745309	490.400000
1425.717395	516.200000
1427.689034	505.000000
1429.656544	495.000000
1431.629128	487.600000
1433.593906	466.400000
1435.563757	526.000000
1437.529483	515.600000
1439.496603	522.400000
1441.461439	506.200000
1443.422155	520.000000
1445.387939	510.600000
1447.347768	494.600000
1449.308991	506.800000
1451.271605	465.000000
1453.230105	502.800000
1455.188163	494.000000
1457.145779	486.400000
1459.102952	491.200000
1461.057850	510.800000
1463.014141	468.000000
1464.968157	491.200000
1466.921732	454.400000
1468.873035	478.200000
1470.825730	500.000000
1472.776154	490.800000
1474.726139	469.600000
1476.675685	479.600000
1478.622962	487.600000
1480.567971	491.000000
1482.514373	481.400000
1484.460337	502.800000
1486.405864	507.400000
1488.349125	457.600000
1490.291950	487.000000
1492.232512	508.600000
1494.174466	483.400000
1496.114157	487.600000
1498.053413	492.600000
1499.992235	486.800000
1501.928797	483.400000
1503.866750	471.400000
1505.802444	500.600000
1507.737705	500.600000
1509.670709	497.000000
1511.603281	507.600000
1513.535421	493.400000
1515.467129	492.600000
1517.396584	489.600000
1519.327429	526.600000
1521.257842	496.200000
1523.184183	510.800000
1525.111914	485.600000
1527.037396	493.400000
1528.962448	497.400000
1530.887070	514.400000
1532.811264	479.200000
1534.733211	492.600000
1536.656548	500.000000
1538.577638	528.800000
1540.496484	471.800000
1542.416720	503.200000
1544.334712	495.200000
1546.252278	470.200000
1548.167603	512.800000
1550.084317	505.800000
1551.996975	489.000000
1553.912838	494.000000
1555.826462	478.200000
1557.737847	482.600000
1559.650622	498.200000
1561.559347	505.800000
1563.469461	495.400000
1565.379152	497.000000
1567.288420	493.200000
1569.195453	507.000000
1571.100254	492.400000
1573.006444	497.000000
1574.910403	495.600000
1576.813940	498.600000
1578.717057	479.400000
1580.617944	502.200000
1582.520220	471.400000
1584.420267	476.200000
1586.321703	469.000000
1588.219104	486.600000
1590.116088	479.800000
1592.012653	489.600000
1593.910605	487.000000
1595.802723	479.000000
1597.698035	450.600000
1599.592928	493.000000
1601.485601	505.200000
1603.377856	448.200000
1605.267892	475.000000
1607.157512	516.200000
1609.046717	479.200000
1610.935506	489.400000
1612.822079	492.400000
1614.710039	512.800000
1616.593982	511.600000
1618.479312	506.000000
1620.364229	495.400000
1622.246932	511.600000
1624.131022	487.400000
1626.011100	497.400000
1627.892566	527.800000
1629.771820	526.200000
1631.652462	491.400000
1633.527299	537.600000
1635.407117	469.000000
1637.282930	483.000000
1639.158334	457.600000
1641.035123	481.400000
1642.906115	491.600000
1644.780290	470.200000
1646.650465	506.200000
1648.523821	526.800000
1650.394974	487.600000
1652.263925	515.400000
1654.134262	505.600000
1656.000606	529.000000
1657.868335	500.000000
1659.733865	499.400000
1661.600781	493.200000
1663.463707	528.600000
1665.328020	484.800000
1667.190136	515.800000
1669.051847	483.200000
1670.914943	521.000000
1672.775845	496.600000
1674.634554	490.800000
1676.492859	510.200000
1678.352548	512.600000
1680.206471	479.800000
1682.063567	519.000000
1683.920259	498.400000
1685.772976	534.400000
1687.628864	480.200000
1689.480778	493.800000
1691.332291	503.600000
1693.183403	505.800000
1695.034114	512.200000
1696.884425	508.400000
1698.732552	484.400000
1700.582063	488.000000
1702.425824	510.400000
1704.274536	503.600000
1706.117501	503.600000
1707.963632	498.000000
1709.805802	481.200000
1711.651137	483.200000
1713.490730	469.000000
1715.331709	513.800000
1717.174070	521.400000
1719.012474	501.800000
1720.852262	521.200000
1722.689875	473.800000
1724.527093	494.000000
1726.362137	485.200000
1728.198564	515.800000
1730.032818	480.400000
1731.866679	509.000000
1733.700145	509.000000
1735.529665	495.000000
1737.362345	524.600000
1739.191079	510.000000
1741.022972	487.600000
1742.850922	511.400000
1744.678480	507.000000
1746.505647	471.800000
1748.332422	500.600000
1750.158805	503.800000
1751.981252	503.000000
1753.806854	502.800000
1755.628520	518.400000
1757.451569	507.600000
1759.272457	523.800000
1761.092955	478.800000
1762.914835	528.600000
1764.731015	501.200000
1766.550347	496.600000
1768.365752	515.800000
1770.184308	495.800000
1771.998938	543.200000
1773.813181	561.400000
1775.627038	516.000000
1777.440508	509.800000
1779.251824	497.200000
1781.064522	533.200000
1782.876834	511.400000
1784.685227	527.600000
1786.495002	506.000000
1788.300861	531.800000
1790.109867	531.000000
1791.914959	535.400000
1793.721432	526.800000
1795.527520	553.200000
1797.329699	513.600000
1799.135021	547.200000
1800.936435	536.600000
1802.739230	514.800000
1804.538118	540.800000
1806.338387	528.400000
1808.138274	521.000000
1809.936019	523.600000
1811.733384	516.800000
1813.530368	549.000000
1815.326972	529.600000
1817.121437	569.600000
1818.917282	556.000000
1820.707471	538.200000
1822.502557	534.600000
1824.291990	507.800000
1826.084561	512.600000
1827.874996	507.400000
1829.663296	544.800000
1831.454732	583.600000
1833.240523	531.600000
1835.027692	568.000000
1836.812731	544.000000
1838.600902	546.200000
1840.385188	539.600000
1842.167345	541.000000
1843.950881	530.200000
1845.732288	567.200000
1847.515073	552.400000
1849.293979	562.200000
1851.074263	508.600000
1852.852422	544.200000
1854.631958	549.800000
1856.409370	535.800000
1858.184659	541.600000
1859.961325	548.800000
1861.735869	536.400000
1863.511790	561.600000
1865.282092	526.600000
1867.055521	539.400000
1868.826830	561.600000
1870.597768	592.000000
1872.370084	537.200000
1874.136786	557.000000
1875.906613	569.800000
1877.672577	526.400000
1879.441665	566.200000
1881.206891	542.400000
1882.971749	565.800000
1884.737983	576.200000
1886.500359	599.600000
1888.262368	589.000000
1890.024010	544.400000
1891.785284	589.600000
1893.546192	571.800000
1895.306732	577.800000
1897.065164	577.600000
1898.823229	582.000000
1900.579187	551.600000
1902.336521	574.600000
1904.093490	572.800000
1905.848352	587.600000
1907.601109	599.400000
1909.353503	570.000000
1911.107273	587.200000
1912.858939	589.200000
1914.608502	583.200000
1916.359442	575.800000
1918.110018	579.800000
1919.856756	603.600000
1921.604869	563.600000
1923.350883	616.600000
1925.098273	587.400000
1926.843564	604.600000
1928.586758	589.200000
1930.331328	627.400000
1932.073801	575.800000
1933.815914	593.200000
1935.557668	605.400000
1937.299061	616.000000
1939.038361	604.400000
1940.777302	597.600000
1942.515884	621.000000
1944.252375	610.600000
1945.988507	599.800000
1947.726015	589.000000
1949.459700	600.600000
1951.194760	614.000000
1952.927731	627.800000
1954.660346	617.600000
1956.392604	630.400000
1958.124506	649.400000
1959.854323	612.400000
1961.582054	591.800000
1963.311160	658.400000
1965.039910	645.600000
1966.766577	607.600000
1968.492890	617.000000
1970.220577	613.800000
1971.942727	645.000000
1973.667978	627.000000
1975.389422	640.800000
1977.113966	635.000000
1978.836431	624.000000
1980.555092	649.200000
1982.276852	635.600000
1983.994811	660.800000
1985.714142	628.600000
1987.429674	661.000000
1989.150026	652.800000
1990.866580	656.200000
1992.579337	598.400000
1994.295190	645.400000
1996.008971	674.600000
1997.722402	660.200000
1999.433762	654.400000
2001.146494	683.200000
2002.855435	687.000000
2004.567470	654.800000
2006.273995	655.200000
2007.983613	664.400000
2009.691163	646.000000
2011.398366	660.600000
2013.103503	642.000000
2014.808293	672.200000
2016.514456	640.800000
2018.216835	695.000000
2019.920587	657.600000
2021.622276	673.000000
2023.323619	684.400000
2025.024618	659.200000
2026.723555	670.600000
2028.423864	682.200000
2030.120397	689.200000
2031.818302	666.400000
2033.514149	700.200000
2035.213081	645.600000
2036.906527	692.800000
2038.601344	677.200000
2040.295818	698.600000
2041.986525	694.600000
2043.680314	676.600000
2045.370338	720.000000
2047.061731	695.800000
2048.751072	711.600000
2050.441784	709.800000
2052.128732	725.200000
2053.815340	686.800000
2055.503319	670.800000
2057.187538	678.800000
2058.873127	707.200000
2060.558377	706.800000
2062.241579	687.800000
2063.926151	710.600000
2065.605259	678.000000
2067.289154	717.000000
2068.967587	686.000000
2070.649098	663.000000
2072.326857	687.000000
2074.004280	693.400000
2075.683072	696.000000
2077.359821	712.400000
2079.034529	669.600000
2080.710607	704.000000
2082.384643	705.600000
2084.058345	699.400000
2085.731711	687.200000
2087.403038	730.000000
2089.074031	737.200000
2090.744690	687.800000
2092.415015	718.400000
2094.085006	747.800000
2095.752960	718.200000
2097.420582	730.600000
2099.086170	716.400000
2100.753126	736.000000
2102.418049	683.000000
2104.082640	748.600000
2105.745199	738.000000
2107.409126	721.200000
2109.071022	735.000000
2110.732587	731.200000
2112.393822	748.000000
2114.053027	761.200000
2115.711903	735.600000
2117.370448	759.800000
2119.028664	696.600000
2120.683157	708.800000
2122.340714	752.600000
2123.997941	754.600000
2125.651448	736.000000
2127.306322	774.800000
2128.957477	787.400000
2130.611695	764.400000
2132.262195	747.400000
2133.914063	789.200000
2135.560522	756.000000
2137.211735	783.200000
2138.859236	789.800000
2140.508103	747.200000
2142.154951	738.200000
2143.801474	775.600000
2145.447671	802.600000
2147.090159	780.200000
2148.735706	787.800000
2150.377546	788.000000
2152.022443	762.200000
2153.663635	762.800000
2155.304503	773.200000
2156.945048	790.600000
2158.583580	788.600000
2160.223478	813.400000
2161.859676	783.800000
2163.497240	797.200000
2165.134482	775.000000
2166.769714	785.400000
2168.404624	801.600000
2170.039213	796.400000
2171.673481	791.000000
2173.304055	796.000000
2174.937681	797.200000
2176.567614	789.400000
2178.198914	806.400000
2179.828208	802.400000
2181.457183	820.000000
2183.085838	795.000000
2184.714174	794.800000
2186.340507	820.400000
2187.966522	822.600000
2189.590536	792.800000
2191.215915	787.800000
2192.839293	817.800000
2194.464036	803.600000
2196.085098	815.600000
2197.705843	823.000000
2199.327952	787.600000
2200.948064	821.400000
2202.566180	843.000000
2204.183980	814.600000
2205.801464	832.000000
2207.418634	801.800000
2209.035487	862.600000
2210.652026	828.200000
2212.266571	806.600000
2213.879125	838.200000
2215.493042	846.200000
2217.104968	845.200000
2218.718257	819.200000
2220.329555	804.600000
2221.938865	816.200000
2223.549537	864.600000
2225.158221	849.800000
2226.766593	834.800000
2228.372978	851.400000
2229.980725	864.600000
2231.586487	844.800000
2233.191937	832.600000
2234.795402	865.400000
2236.400230	904.400000
2238.003074	897.800000
2239.603935	871.200000
2241.206159	880.000000
2242.806401	879.000000
2244.408005	877.800000
2246.005956	868.800000
2247.605270	892.200000
2249.202604	885.800000
2250.799630	907.800000
2252.398017	909.600000
2253.992757	918.000000
2255.585519	914.200000
2257.179644	904.000000
2258.775130	871.600000
2260.366971	890.200000
2261.958506	893.600000
2263.551402	905.000000
2265.138990	887.400000
2266.731273	930.600000
2268.318249	935.800000
2269.908254	879.800000
2271.492954	909.000000
2273.082348	918.600000
2274.666439	922.000000
2276.251892	917.400000
2277.835376	919.000000
2279.421885	899.200000
2281.004761	897.400000
2282.587334	931.000000
2284.169603	936.200000
2285.748242	938.400000
2287.329906	959.200000
2288.907941	959.200000
2290.488999	901.400000
2292.066430	911.000000
2293.641898	920.600000
2295.220388	959.800000
2296.795254	885.800000
2298.369819	922.000000
2299.944083	959.800000
2301.518047	954.400000
2303.091711	949.800000
2304.665075	955.800000
2306.234820	983.000000
2307.804266	943.800000
2309.376730	922.400000
2310.943920	936.600000
2312.514127	950.600000
2314.080721	978.600000
2315.648673	919.000000
2317.214671	940.200000
2318.780371	963.200000
2320.345773	971.600000
2321.909222	979.200000
2323.474030	956.400000
2325.035229	993.200000
2326.599443	1003.600000
2328.158396	1005.200000
2329.720362	991.000000
2331.280378	1030.600000
2332.840098	992.400000
2334.397870	983.800000
2335.955346	1004.400000
2337.512528	1017.200000
2339.067762	1047.800000
2340.622702	1002.000000
2342.177349	996.200000
2343.731702	999.200000
2345.285761	1044.200000
2346.839527	1052.200000
2348.391348	1038.800000
2349.941226	1001.000000
2351.494113	1045.400000
2353.041756	1048.400000
2354.592407	1025.600000
2356.139468	1052.800000
2357.687886	1026.600000
2359.236013	1042.600000
2360.780551	1018.600000
2362.326447	1026.200000
2363.870404	1071.200000
2365.415719	1031.600000
2366.957449	1079.800000
2368.500537	1093.800000
2370.041688	1082.400000
2371.582550	1031.400000
2373.123123	1125.800000
2374.663407	1050.600000
2376.203402	1035.600000
2377.739818	1074.400000
2379.279236	1037.200000
2380.815077	1107.400000
2382.352275	1105.800000
2383.885897	1090.200000
2385.422519	1123.800000
2386.957211	1162.200000
2388.489972	1117.200000
2390.022448	1093.600000
2391.552995	1130.800000
2393.086540	1122.400000
2394.614874	1164.000000
2396.144564	1165.800000
2397.673969	1134.000000
2399.203089	1152.800000
2400.731923	1141.000000
2402.255553	1146.800000
2403.783818	1163.000000
2405.306880	1174.200000
2406.834577	1171.400000
2408.355434	1198.000000
2409.880923	1208.800000
2411.402853	1167.200000
2412.926137	1202.400000
2414.447501	1200.800000
2415.966945	1182.800000
2417.487744	1227.600000
2419.006624	1174.600000
2420.525223	1210.600000
2422.041903	1219.600000
2423.559939	1202.000000
2425.077693	1218.000000
2426.591895	1230.600000
2428.105818	1193.400000
2429.619460	1190.800000
2431.134456	1245.400000
2432.645905	1231.400000
2434.158707	1226.600000
2435.669597	1239.400000
2437.180208	1262.000000
2438.688907	1239.800000
2440.200592	1242.800000
2441.708734	1246.400000
2443.216598	1270.800000
2444.724183	1261.200000
2446.228229	1264.200000
2447.735259	1251.400000
2449.240381	1257.400000
2450.745226	1280.200000
2452.248164	1304.400000
2453.750825	1301.200000
2455.253211	1315.800000
2456.753690	1316.400000
2458.255524	1308.000000
2459.755452	1280.800000
2461.255105	1317.200000
2462.754483	1315.800000
2464.251958	1271.000000
2465.747531	1329.400000
2467.246084	1330.800000
2468.741109	1309.000000
2470.237486	1322.400000
2471.730337	1342.200000
2473.224541	1315.200000
2474.718471	1327.000000
2476.208877	1318.000000
2477.702261	1345.800000
2479.193747	1334.800000
2480.683336	1351.200000
2482.172653	1318.400000
2483.660074	1364.600000
2485.150471	1380.800000
2486.637350	1375.200000
2488.125580	1361.000000
2489.610293	1355.800000
2491.094736	1339.400000
2492.580531	1360.800000
2494.064434	1354.200000
2495.549687	1340.000000
2497.029807	1341.200000
2498.512899	1352.000000
2499.994102	1346.400000
2501.475035	1339.400000
2502.954078	1366.000000
2504.432854	1330.800000
2505.911361	1306.000000
2507.389599	1347.600000
2508.867570	1339.600000
2510.342035	1326.400000
2511.819470	1303.600000
2513.293400	1310.600000
2514.768682	1288.400000
2516.243696	1355.200000
2517.715209	1353.000000
2519.188073	1351.800000
2520.659054	1323.400000
2522.131385	1332.400000
2523.598602	1340.800000
2525.068786	1352.000000
2526.537089	1332.600000
2528.005126	1346.800000
2529.472899	1330.200000
2530.940407	1314.800000
2532.407651	1329.400000
2533.871402	1349.200000
2535.336503	1349.800000
2536.799727	1312.200000
2538.264300	1351.200000
2539.725385	1347.400000
2541.187819	1372.200000
2542.649990	1357.000000
2544.108674	1374.200000
2545.571931	1390.800000
2547.030091	1417.000000
2548.489601	1361.400000
2549.944016	1349.800000
2551.403002	1307.600000
2552.860116	1375.200000
2554.315358	1374.400000
2555.770340	1402.400000
2557.223452	1382.000000
2558.677913	1397.600000
2560.130505	1371.400000
2561.582837	1425.200000
2563.033301	1357.200000
2564.486722	1399.200000
2565.935060	1383.600000
2567.386353	1433.200000
2568.835780	1405.800000
2570.281736	1462.200000
2571.730646	1405.400000
2573.176085	1413.000000
2574.622873	1412.000000
2576.067797	1430.600000
2577.512464	1450.000000
2578.958478	1456.600000
2580.401025	1469.800000
2581.844920	1461.600000
2583.285350	1434.800000
2584.727128	1478.000000
2586.167046	1476.400000
2587.608311	1467.000000
2589.046114	1473.000000
2590.486867	1488.200000
2591.922558	1446.400000
2593.361197	1483.000000
2594.797980	1487.400000
2596.232907	1518.400000
2597.670781	1465.800000
2599.103598	1549.400000
2600.537762	1482.400000
2601.970071	1504.400000
2603.403728	1467.600000
2604.835530	1522.200000
2606.267080	1475.200000
2607.698376	1515.400000
2609.127821	1470.000000
2610.557013	1535.200000
2611.984354	1505.800000
2613.413042	1488.600000
2614.841477	1499.600000
2616.266466	1537.600000
2617.692800	1518.200000
2619.117287	1526.800000
2620.543118	1519.600000
2621.965507	1540.000000
2623.389240	1487.600000
2624.811128	1529.400000
2626.232765	1534.600000
2627.652558	1542.600000
2629.073696	1525.400000
2630.494584	1511.000000
2631.912033	1555.800000
2633.332422	1544.400000
2634.749374	1542.800000
2636.166078	1542.400000
2637.582533	1555.800000
2638.998740	1600.400000
2640.414699	1614.400000
2641.828817	1529.000000
2643.242687	1584.600000
2644.654718	1572.000000
2646.068094	1557.000000
2647.478040	1578.000000
2648.890922	1540.200000
2650.300375	1588.200000
2651.709582	1589.400000
2653.116953	1560.400000
2654.527258	1605.000000
2655.935727	1559.600000
2657.342362	1596.400000
2658.748750	1603.600000
2660.153306	1591.400000
2661.559205	1655.400000
2662.963270	1617.000000
2664.367092	1614.000000
2665.770669	1653.200000
2667.172415	1620.400000
2668.575504	1623.600000
2669.975175	1621.400000
2671.376190	1620.200000
2672.773789	1651.800000
2674.174317	1611.200000
2675.571431	1575.000000
2676.969888	1580.200000
2678.366517	1592.000000
2679.762905	1592.800000
2681.159050	1654.200000
2682.553369	1618.400000
2683.949031	1576.000000
2685.341284	1584.200000
2686.734879	1600.400000
2688.126650	1587.800000
2689.519764	1620.800000
2690.911053	1556.000000
2692.300521	1583.200000
2693.689748	1629.600000
2695.078735	1610.400000
2696.469065	1646.400000
2697.854411	1602.400000
2699.242680	1585.000000
2700.629129	1630.400000
2702.015339	1648.000000
2703.401310	1649.600000
2704.783883	1610.000000
2706.167798	1661.400000
2707.551474	1653.800000
2708.934913	1638.200000
2710.314956	1613.200000
2711.696341	1645.000000
2713.075910	1605.000000
2714.456821	1645.400000
2715.835917	1657.400000
2717.213199	1641.400000
2718.591822	1666.800000
2719.968631	1672.800000
2721.345205	1679.000000
2722.721543	1656.400000
2724.096069	1683.400000
2725.471936	1674.200000
2726.844416	1655.400000
2728.219813	1636.600000
2729.590249	1660.000000
2730.962025	1715.800000
2732.333568	1697.400000
2733.703302	1696.000000
2735.074376	1717.000000
2736.443643	1688.000000
2737.812676	1713.600000
2739.179903	1716.000000
2740.546896	1724.000000
2741.913657	1751.800000
2743.280185	1714.600000
2744.644909	1691.600000
2746.009400	1775.400000
2747.373659	1772.600000
2748.737687	1717.200000
2750.101482	1742.800000
2751.461905	1785.000000
2752.825237	1790.200000
2754.183627	1742.400000
2755.544927	1784.600000
2756.902857	1778.800000
2758.263695	1760.600000
2759.622733	1758.800000
2760.978403	1785.800000
2762.336982	1783.400000
2763.692193	1785.800000
2765.047175	1805.800000
2766.400360	1816.000000
2767.756452	1809.400000
2769.109180	1794.800000
2770.461679	1731.800000
2771.813951	1778.400000
2773.167560	1800.800000
2774.517808	1829.800000
2775.866263	1804.200000
2777.217622	1840.600000
2778.565622	1849.400000
2779.914961	1796.400000
2781.262507	1808.200000
2782.609827	1848.400000
2783.956919	1835.000000
2785.302221	1832.200000
2786.647297	1865.600000
2787.992147	1776.800000
2789.336771	1843.600000
2790.678043	1822.000000
2792.020652	1839.000000
2793.363037	1834.400000
2794.705196	1870.600000
2796.044006	1816.800000
2797.385716	1911.800000
2798.724077	1854.800000
2800.063776	1903.200000
2801.401689	1887.200000
2802.737818	1855.800000
2804.073724	1884.200000
2805.410967	1905.200000
2806.746425	1926.400000
2808.081661	1898.200000
2809.415115	1919.600000
2810.749905	1966.200000
2812.081354	1930.400000
2813.415699	1938.000000
2814.745146	1923.000000
2816.075930	1951.800000
2817.406492	1969.200000
2818.735275	1919.600000
2820.065395	1955.000000
2821.393736	2020.800000
2822.721855	1929.400000
2824.048198	1993.200000
2825.375876	2006.800000
2826.700222	1995.600000
2828.025904	1947.200000
2829.349810	1971.000000
2830.673496	1978.400000
2831.998518	1982.800000
2833.320211	1943.600000
2834.641685	1967.000000
2835.962939	1965.200000
2837.283975	2002.600000
2838.603239	1975.800000
2839.923838	2019.200000
2841.242665	2015.200000
2842.561274	2005.400000
2843.878113	1944.600000
2845.194734	1984.000000
2846.511138	1953.000000
2847.825772	1934.000000
2849.141741	2032.600000
2850.454391	1973.400000
2851.768375	2047.600000
2853.082143	2011.200000
2854.395694	2011.000000
2855.707479	2039.600000
2857.017497	1985.400000
2858.328850	2049.600000
2859.636888	2020.200000
2860.946260	2028.600000
2862.255417	2036.800000
2863.564359	2040.000000
2864.871538	2076.600000
2866.176953	2058.000000
2867.483703	2064.200000
2868.788691	2095.400000
2870.093464	2050.400000
2871.396477	2034.200000
2872.702370	2126.800000
2874.003409	2090.600000
2875.305781	2071.400000
2876.606395	2109.600000
2877.908341	2071.200000
2879.210075	2098.200000
2880.508505	2129.400000
2881.808268	2100.400000
2883.106274	2095.400000
2884.404068	2074.200000
2885.700105	2112.000000
2886.997476	2130.400000
2888.293092	2080.800000
2889.588496	2086.200000
2890.883689	2121.000000
2892.175585	2119.200000
2893.470356	2041.800000
2894.761832	2121.000000
2896.054640	2144.400000
2897.347238	2063.400000
2898.636541	2137.400000
2899.927178	2092.200000
2901.216063	2097.200000
2902.506280	2143.200000
2903.793206	2138.200000
2905.081464	2163.000000
2906.367973	2143.600000
2907.654273	2151.000000
2908.940365	2113.200000
2910.224709	2161.000000
2911.511925	2122.600000
2912.794314	2119.800000
2914.078035	2173.000000
2915.360009	2172.800000
2916.641777	2206.000000
2917.921799	2158.000000
2919.204691	2157.200000
2920.485838	2103.800000
2921.763703	2155.400000
2923.044437	2115.800000
2924.321890	2134.200000
2925.599138	2183.000000
2926.874643	2183.800000
2928.153016	2179.600000
2929.426575	2151.600000
2930.703001	2151.600000
2931.977685	2143.400000
2933.250630	2171.600000
2934.524906	2189.400000
2935.797441	2153.800000
2937.069773	2176.400000
2938.338832	2187.600000
2939.610756	2158.200000
2940.880942	2150.000000
2942.150924	2153.400000
2943.420703	2153.600000
2944.688746	2156.400000
2945.955052	2171.600000
2947.221156	2172.200000
2948.488591	2228.000000
2949.754290	2209.600000
2951.019788	2162.800000
2952.285083	2181.000000
2953.547113	2191.000000
2954.810473	2220.600000
2956.073632	2192.400000
2957.335058	2224.800000
2958.597815	2221.200000
2959.858839	2206.800000
2961.118133	2201.800000
2962.377226	2251.600000
2963.636120	2215.400000
2964.894812	2225.400000
2966.153305	2184.800000
2967.410069	2215.000000
2968.666634	2223.000000
2969.921470	2220.000000
2971.177636	2219.200000
2972.430547	2236.200000
2973.684786	2203.600000
2974.938827	2275.200000
2976.191142	2235.800000
2977.443259	2241.800000
2978.693651	2254.800000
2979.946898	2256.000000
2981.195368	2231.600000
2982.446693	2330.000000
2983.694768	2269.600000
2984.942646	2272.800000
2986.190328	2310.000000
2987.437812	2254.200000
2988.683575	2286.400000
2989.929141	2279.800000
2991.176036	2346.000000
2992.419686	2313.400000
2993.664663	2298.600000
2994.906398	2327.000000
2996.150984	2322.200000
2997.393851	2301.000000
2998.633477	2307.600000
2999.875953	2329.000000
3001.115189	2363.800000
3002.355753	2300.600000
3003.594600	2359.800000
3004.833253	2290.000000
3006.070190	2326.600000
3007.308455	2333.200000
3008.545004	2375.600000
3009.781360	2349.800000
3011.017522	2404.200000
3012.251970	2363.400000
3013.486225	2390.200000
3014.720287	2378.800000
3015.952637	2336.200000
3017.183275	2394.000000
3018.416759	2386.000000
3019.648532	2386.800000
3020.878593	2391.800000
3022.108463	2388.800000
3023.336623	2346.600000
3024.566110	2388.600000
3025.793887	2415.200000
3027.021473	2420.600000
3028.250385	2395.400000
3029.474555	2346.000000
3030.701568	2391.000000
3031.925358	2362.800000
3033.150473	2411.400000
3034.373883	2404.400000
3035.597102	2364.200000
3036.818616	2347.400000
3038.042971	2397.200000
3039.262591	2405.600000
3040.483537	2386.200000
3041.704293	2393.200000
3042.923347	2442.200000
3044.143725	2467.200000
3045.360887	2393.400000
3046.579374	2400.000000
3047.796160	2442.400000
3049.012757	2400.200000
3050.229167	2403.200000
3051.442363	2415.400000
3052.658397	2445.800000
3053.871219	2359.800000
3055.086878	2426.600000
3056.297814	2495.800000
3057.510076	2405.400000
3058.722150	2412.800000
3059.934038	2462.800000
3061.144229	2435.200000
3062.354233	2405.600000
3063.564051	2464.600000
3064.772173	2394.600000
3065.980110	2399.600000
3067.186351	2470.200000
3068.393917	2400.200000
3069.599788	2420.500000
3070.805474	2440.800000
3072.010976	2470.400000
3073.214784	2439.600000
3074.419916	2465.000000
3075.623355	2470.600000
3076.825102	2438.600000
3078.026666	2454.400000
3079.228046	2463.800000
3080.429242	2453.200000
3081.628748	2417.800000
3082.828071	2494.200000
3084.028717	2495.000000
3085.227673	2493.600000
3086.423434	2485.600000
3087.622025	2501.200000
3088.817422	2442.200000
3090.014143	2460.800000
3091.207671	2461.200000
3092.404027	2455.000000
3093.598696	2515.000000
3094.790175	2548.200000
3095.985986	2487.400000
3097.177102	2427.600000
3098.369542	2517.600000
3099.558793	2482.600000
3100.750871	2500.800000
3101.941265	2504.800000
3103.128473	2576.800000
3104.317003	2482.800000
3105.506856	2505.000000
3106.693524	2510.400000
3107.880013	2478.000000
3109.066323	2483.400000
3110.253954	2467.600000
3111.438403	2516.400000
3112.621173	2486.800000
3113.806765	2495.200000
3114.990678	2526.800000
3116.172911	2486.200000
3117.354967	2505.000000
3118.536844	2527.800000
3119.718543	2521.600000
3120.898565	2530.800000
3122.076910	2527.400000
3123.258075	2518.800000
3124.436065	2537.200000
3125.613878	2523.400000
3126.791514	2543.800000
3127.967475	2515.400000
3129.143260	2563.200000
3130.320365	2577.000000
3131.495797	2524.400000
3132.669555	2509.000000
3133.841640	2605.800000
3135.015046	2487.800000
3136.188277	2566.200000
3137.359836	2521.400000
3138.532715	2566.800000
3139.702427	2547.400000
3140.873460	2513.800000
3142.042822	2547.600000
3143.210515	2535.600000
3144.381023	2553.200000
3145.546872	2608.800000
3146.717031	2532.000000
3147.882532	2566.200000
3149.047860	2595.400000
3150.213014	2529.000000
3151.377995	2588.200000
3152.544295	2540.000000
3153.705942	2574.400000
3154.868910	2560.800000
3156.031705	2548.600000
3157.194326	2536.000000
3158.355283	2478.000000
3159.516068	2519.400000
3160.676680	2528.000000
3161.835628	2499.000000
3162.994405	2493.000000
3164.153009	2480.000000
3165.311442	2472.200000
3166.469703	2514.600000
3167.626303	2507.800000
3168.781241	2506.000000
3169.937498	2559.600000
3171.092094	2493.400000
3172.246520	2533.400000
3173.399285	2516.000000
3174.551881	2539.600000
3175.704307	2521.200000
3176.856562	2551.000000
3178.008648	2555.200000
3179.157587	2551.200000
3180.309333	2550.000000
3181.459422	2570.400000
3182.607853	2577.800000
3183.756116	2582.600000
3184.904210	2624.600000
3186.052135	2601.000000
3187.198404	2616.800000
3188.344505	2625.400000
3189.488952	2653.800000
3190.633230	2655.800000
3191.777341	2600.200000
3192.922770	2658.800000
3194.065060	2642.000000
3195.207182	2594.800000
3196.349138	2644.600000
3197.490926	2647.200000
3198.632547	2718.200000
3199.771033	2630.400000
3200.910836	2564.800000
3202.051956	2644.400000
3203.189943	2639.000000
3204.326279	2635.800000
3205.462451	2647.600000
3206.599939	2648.200000
3207.735779	2610.800000
3208.872936	2625.200000
3210.005480	2634.400000
3211.142305	2683.400000
3212.274520	2650.800000
3213.408051	2653.400000
3214.541417	2657.400000
3215.671657	2615.200000
3216.804694	2635.800000
3217.934605	2653.200000
3219.065832	2574.000000
3220.193934	2652.800000
3221.324834	2675.600000
3222.454089	2622.600000
3223.581701	2642.000000
3224.706190	2657.200000
3225.834955	2622.600000
3226.960598	2626.000000
3228.086078	2637.200000
3229.209917	2629.600000
3230.336551	2595.400000
3231.458587	2659.000000
3232.581939	2652.400000
3233.705128	2678.200000
3234.828156	2633.200000
3235.949544	2680.000000
3237.070771	2671.800000
3238.190359	2694.800000
3239.309786	2685.000000
3240.427576	2708.200000
3241.548157	2674.600000
3242.665625	2751.200000
3243.782932	2691.800000
3244.900079	2720.800000
3246.015589	2731.400000
3247.132415	2797.600000
3248.246130	2733.000000
3249.362636	2838.600000
3250.477506	2758.600000
3251.589268	2809.400000
3252.700871	2825.000000
3253.813789	2746.000000
3254.926547	2774.400000
3256.036199	2785.200000
3257.147166	2774.600000
3258.257974	2801.400000
3259.367150	2766.800000
3260.474695	2757.800000
3261.583555	2793.000000
3262.692256	2737.400000
3263.797855	2809.600000
3264.904769	2828.200000
3266.010053	2880.400000
3267.116651	2804.400000
3268.220149	2819.000000
3269.324961	2845.200000
3270.429616	2853.600000
3271.531173	2805.200000
3272.632573	2860.000000
3273.735287	2903.400000
3274.837845	2853.200000
3275.937306	2856.200000
3277.039551	2859.400000
3278.138700	2858.800000
3279.236224	2853.200000
3280.333594	2876.400000
3281.433745	2827.200000
3282.530804	2913.600000
3283.627707	2817.400000
3284.724455	2841.000000
3285.816644	2791.800000
3286.913083	2804.000000
3288.007899	2820.400000
3289.102560	2854.600000
3290.195600	2802.800000
3291.288486	2889.400000
3292.379751	2854.600000
3293.472329	2795.400000
3294.563287	2851.000000
3295.652625	2866.800000
3296.741810	2847.800000
3297.832307	2854.400000
3298.919721	2837.400000
3300.006981	2862.400000
3301.095554	2896.200000
3302.183974	2804.600000
3303.267848	2830.800000
3304.355963	2839.200000
3305.440996	2853.400000
3306.524414	2858.200000
3307.609144	2828.800000
3308.692258	2813.200000
3309.776684	2858.800000
3310.858033	2870.800000
3311.940693	2885.200000
3313.021738	2843.800000
3314.102633	2865.000000
3315.181915	2932.000000
3316.261046	2947.000000
3317.341489	2892.000000
3318.418857	2879.400000
3319.497537	2900.000000
3320.574605	2926.200000
3321.651523	2930.400000
3322.726831	2890.000000
3323.801989	2982.000000
3324.878458	2909.200000
3325.951857	2888.600000
3327.025106	2865.400000
3328.099667	2880.400000
3329.172619	2896.200000
3330.243962	2956.000000
3331.316616	2907.000000
3332.386203	2858.800000
3333.457101	2881.200000
3334.526393	2904.200000
3335.596994	2877.800000
3336.665989	2971.600000
3337.733379	2881.200000
3338.799163	2848.600000
3339.869173	2822.200000
3340.936120	2904.400000
3342.000005	2896.800000
3343.066657	2857.600000
3344.131706	2921.200000
3345.195151	2862.800000
3346.258450	2899.000000
3347.321602	2866.800000
3348.384608	2874.600000
3349.447468	2881.200000
3350.508725	2840.400000
3351.566926	2874.600000
3352.629348	2946.200000
3353.688714	2878.400000
3354.747934	2928.400000
3355.808463	2904.400000
3356.864484	2871.400000
3357.923268	2944.600000
3358.977545	2899.600000
3360.034586	2879.400000
3361.090028	2919.600000
3362.146780	2930.200000
3363.201933	2863.600000
3364.255489	2932.200000
3365.307448	2924.000000
3366.362170	2972.000000
3367.413842	2866.600000
3368.465370	2927.400000
3369.518208	2942.400000
3370.567998	2947.000000
3371.619097	2888.000000
3372.667149	2918.800000
3373.717962	2891.400000
3374.765729	2947.400000
3375.813354	2964.000000
3376.860837	2957.800000
3377.906727	2935.600000
3378.953925	2928.400000
3379.998080	2919.600000
3381.044995	2940.000000
3382.090317	2928.200000
3383.132598	2939.400000
3384.174738	2924.800000
3385.218187	2904.400000
3386.261494	2967.600000
3387.303211	2983.200000
3388.344788	2931.200000
3389.386223	2997.400000
3390.426070	2936.600000
3391.464328	2896.400000
3392.503894	3003.400000
3393.543320	2943.800000
3394.581158	2943.600000
3395.617409	2953.400000
3396.653520	2971.400000
3397.690939	2976.800000
3398.725325	2949.000000
3399.761019	2993.800000
3400.796573	2922.400000
3401.829095	3034.600000
3402.864371	2930.800000
3403.896617	2953.800000
3404.928723	2945.600000
3405.959247	2956.000000
3406.991077	2930.600000
3408.022769	2915.200000
3409.051433	2940.400000
3410.079960	2961.800000
3411.109793	2947.400000
3412.139489	2931.600000
3413.166159	2994.400000
3414.194135	2922.200000
3415.219087	2966.600000
3416.246790	2961.800000
3417.271468	2955.400000
3418.297453	2991.000000
3419.321859	3021.800000
3420.346128	2951.000000
3421.368818	2973.000000
3422.391372	2958.600000
3423.415232	2967.000000
3424.436072	2959.800000
3425.456776	2947.600000
3426.478786	2975.600000
3427.497778	2912.000000
3428.516635	2973.800000
3429.536798	2981.000000
3430.553944	2912.200000
