-118.702670	20.253663
-116.033069	12.528938
-113.366404	8.131768
-110.700491	6.356910
-108.037511	6.499118
-105.373100	7.853147
-102.711620	9.713753
-100.048711	8.004196
-97.390908	8.422378
-94.731676	7.788345
-92.073192	8.083450
-89.417633	4.735664
-86.760644	5.737995
-84.108754	7.386014
-81.455434	9.873660
-78.805033	11.159907
-76.153204	11.725874
-73.506465	8.504895
-70.858296	8.654079
-68.210870	6.220513
-65.566359	7.975291
-62.920418	7.125874
-60.279559	6.361305
-57.637271	7.423310
-54.997892	8.543124
-52.357084	9.969231
-49.717015	11.365501
-47.082020	8.123077
-44.445595	4.756177
-41.812073	3.685781
-39.177123	6.103963
-36.547239	7.478322
-33.913761	9.617249
-31.285346	9.041958
-28.657665	9.833566
-26.028555	8.889977
-23.404503	7.817249
-20.776860	5.287179
-18.154272	-2.044755
-15.532414	2.565501
-12.911287	27.135664
-10.290891	62.164103
-7.673382	89.746853
-5.054445	109.041958
-2.438394	119.026107
0.176930	119.719814
2.791525	110.135664
5.403239	90.441026
8.016381	65.733800
10.624489	33.310023
13.236178	3.164103
15.842837	-4.901632
18.450925	0.832634
21.058287	5.403263
23.660625	9.069464
26.266542	10.812587
28.867436	11.905361
31.469758	12.119814
34.067062	10.557576
36.667943	9.469930
39.263808	10.155711
41.861101	8.329138
44.457675	7.049883
47.049240	7.215385
49.642234	7.858741
52.232366	6.234965
54.823925	8.620979
57.412626	9.791608
60.002753	11.506294
62.587881	10.205128
65.174437	10.636364
67.760278	10.805594
70.343266	13.171096
72.927681	10.248019
75.504967	10.639161
78.085818	10.540793
80.663822	10.749184
83.241114	9.497436
85.819834	10.316084
88.393571	11.914219
90.968735	12.061538
93.541056	11.259207
96.112670	10.706760
98.681443	10.146853
101.251643	10.842890
103.819004	10.629371
106.387792	13.362238
108.953743	15.274126
111.516859	15.483450
114.083531	17.164103
116.640981	19.400466
119.204117	24.156177
121.762294	32.822844
124.324025	46.674126
126.880799	73.316084
129.438999	117.584149
131.992247	178.494172
134.544797	257.975291
137.100897	347.372494
139.652049	441.120746
142.202504	527.549184
144.752261	610.370163
147.299199	677.243357
149.845442	728.945455
152.393110	759.503497
154.940082	771.409790
157.482118	777.452681
160.023462	777.264802
162.564112	775.565501
165.106187	775.553380
167.645452	774.807925
170.181907	774.573427
172.717672	773.509557
175.254862	772.359907
177.791361	773.311422
180.325054	773.580886
182.855943	770.114219
185.386144	768.476457
187.917771	766.924476
190.446596	767.021445
192.972622	764.889977
195.497962	767.272261
198.024727	769.175291
200.548696	768.518881
203.071979	767.714685
205.594578	763.916084
208.114384	762.957576
210.633507	764.315152
213.151947	765.486713
215.671812	770.938462
218.184674	770.098368
220.701068	772.762238
223.216781	771.218182
225.727603	776.722145
228.239850	779.747786
230.749314	780.628438
233.258100	783.889044
235.766208	784.046620
238.275740	782.455944
240.780391	784.791608
243.284366	784.379953
245.789765	784.816317
248.290289	781.744522
250.794336	778.777156
253.291413	778.662471
255.792012	778.927273
258.289840	781.023776
260.786995	782.937063
263.283478	784.095105
265.775097	781.666667
268.270236	777.976690
270.762608	776.377622
273.254310	775.948718
275.743249	771.895105
278.233611	769.115618
280.721212	768.958042
283.206053	771.874592
285.694409	771.517016
288.175825	773.685781
290.660755	774.845688
293.140839	776.581352
295.624436	776.307226
298.103191	776.961305
300.583368	780.799068
303.060794	782.551515
305.537556	778.931002
308.013654	780.558974
310.487004	783.474126
312.959693	785.646620
315.431720	785.035897
317.903085	782.233100
320.371707	782.815851
322.839669	783.464336
325.309054	781.733800
327.773616	781.704429
330.241682	783.057343
332.704927	783.884382
335.167516	779.903030
337.629448	782.766900
340.090723	783.633566
342.549263	784.570629
345.009226	782.620979
347.466457	783.385548
349.923033	785.204662
352.378955	782.282984
354.832147	779.768765
357.286762	779.808392
359.736575	779.035897
362.189884	779.841492
364.638394	778.723543
367.086254	780.087646
369.535536	777.750117
371.980023	775.234965
374.425933	774.448951
376.871194	775.361305
379.313736	773.741725
381.755630	772.465734
384.196876	773.248485
386.635408	774.199534
389.075360	773.752448
391.512599	773.030303
393.947127	772.940326
396.385141	772.594406
398.818380	770.448485
401.253039	768.889977
403.682926	768.331469
406.116298	770.264802
408.544900	770.126340
410.972860	771.911422
413.402241	772.470862
415.826858	771.648019
418.252895	770.630303
420.678293	769.344988
423.103050	771.246154
425.523048	773.640093
427.944468	772.658275
430.363192	773.464336
432.783335	775.382751
435.200784	777.986480
437.619654	777.250816
440.035829	781.326340
442.447258	783.844755
444.862163	784.144056
447.274378	786.004662
449.685960	786.943124
452.096907	787.993939
454.505167	789.479254
456.912796	787.535198
459.319792	785.775758
461.726157	782.858275
464.129839	783.134732
466.532891	781.400000
468.935313	784.720280
471.337105	783.927739
473.736219	779.444289
476.136753	778.119814
478.536658	776.598135
480.931841	778.223776
483.330489	778.183217
485.724418	772.701632
488.117721	771.795804
490.510399	773.403730
492.902451	776.833566
495.295921	776.852681
497.684679	778.889977
500.070771	777.076923
502.458283	773.949184
504.845172	773.587413
507.229396	775.608392
509.615040	777.021445
511.998022	776.692308
514.378342	774.688578
516.760083	776.658275
519.139164	777.272261
521.519663	776.470396
523.897506	776.846620
526.272692	778.897902
528.647261	779.740326
531.023249	780.989744
533.396584	782.462005
535.771336	781.623776
538.141402	780.379953
540.510854	780.953380
542.881723	777.734732
545.247911	779.117016
547.615518	779.653147
549.980479	779.842890
552.344828	782.350117
554.708563	785.050350
557.073716	785.395338
559.434197	785.823310
561.796095	785.152914
564.155354	782.605594
566.511974	781.972028
568.872040	783.558974
571.225414	784.075058
573.582233	786.366900
575.936417	785.029837
578.289992	782.876457
580.642960	780.117016
582.993295	777.529138
585.345048	776.747786
587.690124	777.027972
590.040663	774.398601
592.384530	774.448019
594.733858	777.024242
597.078537	777.880653
599.420592	779.278322
601.764064	778.196270
604.104913	778.444755
606.445159	777.593473
608.782785	775.873660
611.123846	776.946853
613.460270	775.777622
615.798110	775.905361
618.133333	774.282517
620.465939	773.509557
622.799963	773.335664
625.131372	771.790210
627.462183	772.924942
629.792396	773.385548
632.122012	775.992075
634.447004	778.520280
636.777438	779.201399
639.103251	782.015385
641.426456	782.473660
643.751078	787.716550
646.073094	790.327739
648.394516	789.101166
650.713335	789.883450
653.033571	789.265734
655.353212	787.084848
657.670254	784.671795
659.986703	782.174825
662.300554	778.701166
664.615821	774.309557
666.928491	770.035897
669.242576	768.427972
671.552061	771.238228
673.862962	775.236830
676.171270	778.957110
678.478989	780.099301
680.788124	782.634965
683.092666	785.963636
685.396622	785.478322
687.699991	786.101632
690.004776	786.964569
692.304973	786.446154
694.606586	783.867599
696.907613	783.073660
699.204059	779.763636
701.501920	777.495105
703.799197	774.267133
706.095891	769.990676
708.388009	770.062471
710.683538	770.255012
712.974493	768.363636
715.266863	769.883450
717.556657	773.431702
719.845872	775.034499
722.134507	778.490909
724.420569	781.296503
726.708045	778.412121
728.992951	780.387879
731.277279	781.874126
733.559038	783.739860
735.842211	785.939860
738.124807	785.824242
740.402847	784.246154
742.682301	784.887179
744.961180	785.212587
747.239484	787.158508
749.513237	789.914685
751.788405	792.976224
754.062999	791.779487
756.335034	792.944522
758.608482	791.834033
760.879372	793.438228
763.147706	795.628438
765.417453	796.283916
767.684645	794.747319
769.951268	796.215385
772.217320	795.790210
774.480821	798.696037
776.745734	801.581352
779.010079	800.297436
781.269893	799.843357
783.531121	800.120746
785.791781	797.742657
788.049895	798.227506
790.305464	797.009324
792.564423	795.495105
794.816884	790.420979
797.074712	791.590676
799.328021	790.908625
801.578790	790.456876
803.830971	791.636830
806.080613	791.447086
808.331667	794.923543
810.578210	796.545921
812.826166	795.803263
815.071586	795.750117
817.318419	793.129604
819.564689	791.586946
821.806456	789.109557
824.051605	789.872727
826.290283	788.125408
828.532342	784.678322
830.769903	785.622378
833.008876	787.387413
835.245322	784.819114
837.483179	783.496037
839.718511	781.050350
841.951320	779.019114
844.185539	778.110023
846.417237	779.100233
848.648380	782.577622
850.878968	785.868531
853.109002	784.296503
855.338481	782.890443
857.563480	784.379487
859.791852	783.747786
862.015746	783.588345
864.241051	784.459674
866.461880	781.809324
868.686081	781.902564
870.905809	784.354779
873.126947	789.037296
875.347535	794.493240
877.565614	793.329604
879.785102	792.842890
882.000124	793.288578
884.214598	795.028904
886.428525	794.070862
888.641904	796.030769
890.854737	794.505361
893.067022	791.604662
895.276806	789.058275
897.486044	789.308159
899.694737	791.002797
901.900930	791.479254
904.108533	789.074126
906.313639	793.215385
908.518201	791.142191
910.720268	793.715618
912.923744	791.444755
915.124726	794.901166
917.325166	795.129604
919.527015	796.143590
921.722473	794.231702
923.921289	795.273660
926.115668	799.242890
928.313404	799.663403
930.506704	798.612121
932.701413	800.670396
934.893635	799.920280
937.085320	802.834033
939.276467	802.975291
941.465131	806.070396
943.653259	808.926340
945.838905	813.216317
948.027905	812.344056
950.212480	814.360839
952.396521	816.533800
954.583913	812.907692
956.763000	811.279254
958.945438	811.212587
961.127342	814.134732
963.306771	813.739860
965.483728	813.721212
967.662093	815.284848
969.841865	818.656876
972.015288	822.131469
974.192057	821.990210
976.364419	821.797669
978.538189	824.720746
980.707555	824.327739
982.880265	827.393007
985.050510	828.224242
987.220225	832.579487
989.389412	829.881119
991.554202	829.091375
993.722334	829.847086
995.886070	827.494639
998.051214	827.348252
1000.213898	826.821911
1002.376057	825.358508
1004.535759	830.371562
1006.694936	830.027506
1008.855520	831.196737
1011.013649	828.670862
1013.171255	827.646620
1015.328337	824.137063
1017.484895	822.629371
1019.637074	822.144056
1021.790660	818.878322
1023.943724	818.673193
1026.094339	820.578555
1028.246360	823.140793
1030.394009	825.063403
1032.544989	826.825175
1034.691598	827.510956
1036.837688	825.108625
1038.983260	825.302098
1041.130237	822.739394
1043.270925	821.329604
1045.414942	820.378555
1047.556520	817.203730
1049.697580	817.073660
1051.840046	817.180420
1053.976231	818.515152
1056.115743	817.211189
1058.250899	822.164569
1060.389380	823.898368
1062.523508	826.850350
1064.657122	831.698834
1066.792140	828.430769
1068.922810	831.868065
1071.054884	833.042890
1073.184528	833.599534
1075.313661	832.353380
1077.442283	829.430303
1079.570393	831.085315
1081.696077	828.088112
1083.821251	831.436830
1085.947829	832.249883
1088.070069	834.618182
1090.193714	835.741259
1092.313024	835.680186
1094.437563	840.355711
1096.555858	842.297436
1098.675556	842.580420
1100.792837	843.324942
1102.909610	842.165967
1105.025877	845.705361
1107.139729	842.840093
1109.254984	843.498834
1111.365917	841.173893
1113.480162	842.178555
1115.590086	841.810723
1117.701413	842.249883
1119.812237	843.759441
1121.918744	845.394872
1124.028560	843.523543
1126.134062	847.712821
1128.240968	848.152914
1130.341658	851.015851
1132.447560	851.082051
1134.549153	851.484382
1136.652148	855.223310
1138.754644	857.278788
1140.850932	856.778555
1142.952427	857.332401
1145.049620	858.594872
1147.146314	860.068065
1149.242511	857.588345
1151.338209	861.787413
1153.433410	859.539860
1155.526214	857.199068
1157.620420	857.905361
1159.708435	858.155711
1161.801648	859.613054
1163.888674	857.353380
1165.978998	857.572960
1168.065034	859.533333
1170.154368	860.914219
1172.237521	867.246154
1174.322077	872.479720
1176.408034	877.918881
1178.489709	875.131002
1180.572785	874.220513
1182.653476	873.363170
1184.733676	870.494639
1186.813384	867.896970
1188.892601	866.374359
1190.969435	865.602797
1193.043889	867.112821
1195.121635	868.428904
1197.195110	875.242424
1199.269987	878.282517
1201.340596	880.186480
1203.412606	881.388345
1205.482240	882.411189
1207.553275	884.811655
1209.623822	886.559907
1211.690109	887.560373
1213.757796	890.886713
1215.823110	890.289510
1217.889825	893.696970
1219.952284	895.835431
1222.018029	898.847552
1224.079519	897.015385
1226.142410	902.020047
1228.202932	905.329138
1230.262972	904.338462
1232.322528	906.542191
1234.379720	909.840559
1236.436429	911.115152
1238.490776	915.608858
1240.548403	912.880186
1242.603668	917.455478
1244.654693	919.563636
1246.707117	922.120746
1248.759061	927.615851
1250.808647	935.445688
1252.857754	935.735198
1254.906382	935.585082
1256.954532	939.644755
1259.002204	947.489977
1261.045645	948.730536
1263.092362	953.220513
1265.136725	952.584615
1267.180611	958.369231
1269.222147	959.499767
1271.261333	969.137995
1273.303792	975.037762
1275.342028	978.733333
1277.381663	980.314685
1279.420822	988.243357
1281.455764	997.150117
1283.492104	1011.938928
1285.526100	1024.413520
1287.561493	1045.256410
1289.592673	1061.449883
1291.625252	1084.469930
1293.657359	1102.608392
1295.687125	1126.676923
1297.718288	1146.160373
1299.745244	1172.757576
1301.773599	1203.572028
1303.797748	1241.578089
1305.825163	1287.456410
1307.848375	1344.112354
1309.872985	1387.741259
1311.895260	1384.645221
1313.918933	1144.378555
1315.940273	124.900699
1317.961146	-589.922611
1319.981551	2642.466200
1321.997763	9195.412587
1324.015372	20346.698368
1326.030653	31351.797669
1328.049193	39482.273193
1330.063543	44132.069464
1332.075568	45105.017249
1334.090851	42386.586946
1336.101948	36137.527739
1338.114441	26773.996270
1340.122752	15470.928671
1342.134319	5468.272261
1344.139847	106.219114
1346.148630	-1804.836830
1348.153235	78.811189
1350.161094	1072.602331
1352.168491	1203.753846
1354.169857	1209.052214
1356.172619	1184.857343
1358.174922	1148.990210
1360.176765	1115.332401
1362.178148	1088.121212
1364.177217	1067.721212
1366.175828	1051.144988
1368.173981	1040.984149
1370.171676	1027.906294
1372.165208	1019.474592
1374.160135	1010.148252
1376.154606	1002.303497
1378.148620	992.535198
1380.140327	983.446620
1382.131578	972.881585
1384.120524	968.441958
1386.110865	965.566434
1388.100752	962.074126
1390.088334	961.733800
1392.075463	963.209324
1394.060290	963.896503
1396.046512	966.747786
1398.030433	968.694639
1400.013902	970.701166
1401.996919	971.175291
1403.977638	968.989277
1405.959751	968.365501
1407.939567	968.824709
1409.918933	966.374359
1411.894160	965.533800
1413.872625	965.813520
1415.848797	970.385082
1417.824519	970.689977
1419.799792	971.550117
1421.772775	976.750583
1423.745309	983.073193
1425.717395	984.743590
1427.689034	985.537995
1429.656544	989.543124
1431.629128	991.320746
1433.593906	990.417716
1435.563757	995.603263
1437.529483	1000.728205
1439.496603	1006.055944
1441.461439	1005.888578
1443.422155	1007.945455
1445.387939	1010.681585
1447.347768	1013.416783
1449.308991	1012.134732
1451.271605	1008.543124
1453.230105	1009.802331
1455.188163	1004.178555
1457.145779	997.191608
1459.102952	996.201399
1461.057850	995.352448
1463.014141	995.702564
1464.968157	995.784149
1466.921732	997.221911
1468.873035	996.058275
1470.825730	995.700699
1472.776154	994.390210
1474.726139	990.358508
1476.675685	989.323077
1478.622962	983.041492
1480.567971	976.480186
1482.514373	977.051282
1484.460337	977.177156
1486.405864	980.881119
1488.349125	980.987879
1490.291950	981.953846
1492.232512	978.218648
1494.174466	976.493240
1496.114157	975.610256
1498.053413	977.060606
1499.992235	979.662471
1501.928797	978.418182
1503.866750	979.686247
1505.802444	986.160839
1507.737705	985.408858
1509.670709	988.987879
1511.603281	986.374825
1513.535421	989.935664
1515.467129	990.903030
1517.396584	992.684848
1519.327429	997.533333
1521.257842	1001.692308
1523.184183	1003.479720
1525.111914	1003.703497
1527.037396	1007.681119
1528.962448	1009.882051
1530.887070	1005.938928
1532.811264	1006.377156
1534.733211	1005.548718
1536.656548	1006.890443
1538.577638	1007.365035
1540.496484	1006.651282
1542.416720	1005.957576
1544.334712	1002.684382
1546.252278	1002.365035
1548.167603	1003.479720
1550.084317	1002.969697
1551.996975	1001.616317
1553.912838	1003.034033
1555.826462	1002.637296
1557.737847	1000.818182
1559.650622	1001.820047
1561.559347	1000.999534
1563.469461	1001.331469
1565.379152	1001.863869
1567.288420	1001.682051
1569.195453	1001.634033
1571.100254	1000.593939
1573.006444	997.620513
1574.910403	996.877389
1576.813940	1001.155245
1578.717057	997.506760
1580.617944	994.906294
1582.520220	993.693240
1584.420267	990.609790
1586.321703	990.977622
1588.219104	987.951981
1590.116088	987.327739
1592.012653	989.252681
1593.910605	989.451282
1595.802723	986.822844
1597.698035	990.334732
1599.592928	994.526340
1601.485601	994.716550
1603.377856	993.478788
1605.267892	993.649417
1607.157512	993.087646
1609.046717	991.371096
1610.935506	989.287646
1612.822079	989.827972
1614.710039	991.814918
1616.593982	991.380886
1618.479312	989.371096
1620.364229	993.531469
1622.246932	995.022378
1624.131022	999.235897
1626.011100	1000.089977
1627.892566	1004.125874
1629.771820	1004.786946
1631.652462	1004.242890
1633.527299	1004.088112
1635.407117	1001.537063
1637.282930	1002.354312
1639.158334	1002.754312
1641.035123	1000.581352
1642.906115	1000.318415
1644.780290	1001.145455
1646.650465	1003.017249
1648.523821	1003.936131
1650.394974	1006.514685
1652.263925	1006.238228
1654.134262	1006.652214
1656.000606	1004.093706
1657.868335	1001.377622
1659.733865	999.234033
1661.600781	998.094639
1663.463707	995.732401
1665.328020	995.553846
1667.190136	993.288112
1669.051847	994.719814
1670.914943	994.436364
1672.775845	999.690909
1674.634554	1000.664802
1676.492859	1001.152448
1678.352548	999.958042
1680.206471	1002.361772
1682.063567	1001.513753
1683.920259	996.380420
1685.772976	995.641958
1687.628864	996.000932
1689.480778	992.866667
1691.332291	994.679720
1693.183403	995.753846
1695.034114	1002.169231
1696.884425	1000.103497
1698.732552	1003.752448
1700.582063	1008.130070
1702.425824	1013.544522
1704.274536	1014.428904
1706.117501	1010.792075
1707.963632	1012.311888
1709.805802	1012.837762
1711.651137	1010.158508
1713.490730	1008.350117
1715.331709	1004.797669
1717.174070	1004.352914
1719.012474	1001.913287
1720.852262	1003.950117
1722.689875	1003.536597
1724.527093	1008.336131
1726.362137	1009.041958
1728.198564	1011.506760
1730.032818	1011.569231
1731.866679	1014.216783
1733.700145	1013.877389
1735.529665	1011.885781
1737.362345	1013.354312
1739.191079	1016.022378
1741.022972	1016.131002
1742.850922	1017.520746
1744.678480	1020.943590
1746.505647	1022.264336
1748.332422	1025.492308
1750.158805	1027.312821
1751.981252	1028.725408
1753.806854	1033.443823
1755.628520	1031.450350
1757.451569	1031.291375
1759.272457	1033.821911
1761.092955	1029.798135
1762.914835	1032.735664
1764.731015	1035.255012
1766.550347	1034.863869
1768.365752	1034.474126
1770.184308	1037.739860
1771.998938	1036.848951
1773.813181	1041.393939
1775.627038	1042.800932
1777.440508	1041.213520
1779.251824	1043.761305
1781.064522	1042.614918
1782.876834	1045.675524
1784.685227	1052.878788
1786.495002	1055.975291
1788.300861	1057.373427
1790.109867	1061.873660
1791.914959	1062.732867
1793.721432	1065.245221
1795.527520	1067.871329
1797.329699	1068.281119
1799.135021	1072.601399
1800.936435	1075.001865
1802.739230	1075.525874
1804.538118	1078.807925
1806.338387	1080.319347
1808.138274	1083.283916
1809.936019	1081.434499
1811.733384	1081.275991
1813.530368	1079.633566
1815.326972	1080.406061
1817.121437	1082.324009
1818.917282	1085.651748
1820.707471	1088.423310
1822.502557	1090.331935
1824.291990	1093.100233
1826.084561	1094.710023
1827.874996	1096.984149
1829.663296	1102.049883
1831.454732	1101.477855
1833.240523	1107.115152
1835.027692	1107.765967
1836.812731	1111.954312
1838.600902	1111.489044
1840.385188	1116.483916
1842.167345	1115.320746
1843.950881	1117.155245
1845.732288	1118.946853
1847.515073	1118.321678
1849.293979	1118.195338
1851.074263	1118.549650
1852.852422	1119.345921
1854.631958	1121.979953
1856.409370	1120.832168
1858.184659	1122.565967
1859.961325	1121.401399
1861.735869	1127.372494
1863.511790	1126.589277
1865.282092	1128.242424
1867.055521	1134.121212
1868.826830	1135.366900
1870.597768	1137.570163
1872.370084	1139.144056
1874.136786	1142.049417
1875.906613	1146.613054
1877.672577	1150.751049
1879.441665	1151.069930
1881.206891	1156.168765
1882.971749	1155.779487
1884.737983	1157.680186
1886.500359	1156.537995
1888.262368	1161.620513
1890.024010	1163.662005
1891.785284	1164.660140
1893.546192	1166.920746
1895.306732	1167.333800
1897.065164	1168.673193
1898.823229	1164.191142
1900.579187	1163.529138
1902.336521	1165.434499
1904.093490	1160.168298
1905.848352	1162.183217
1907.601109	1159.120280
1909.353503	1163.143590
1911.107273	1169.133333
1912.858939	1169.427972
1914.608502	1173.896503
1916.359442	1176.970629
1918.110018	1183.629837
1919.856756	1184.349650
1921.604869	1191.585548
1923.350883	1195.413520
1925.098273	1196.713753
1926.843564	1201.034965
1928.586758	1203.304429
1930.331328	1206.478788
1932.073801	1208.773893
1933.815914	1206.314685
1935.557668	1208.656876
1937.299061	1212.314219
1939.038361	1216.983683
1940.777302	1217.645688
1942.515884	1224.215385
1944.252375	1229.699767
1945.988507	1231.087646
1947.726015	1232.232634
1949.459700	1239.261072
1951.194760	1243.132401
1952.927731	1242.980886
1954.660346	1243.520746
1956.392604	1243.952448
1958.124506	1244.993473
1959.854323	1250.169697
1961.582054	1255.343124
1963.311160	1259.406993
1965.039910	1258.822378
1966.766577	1255.936131
1968.492890	1255.595804
1970.220577	1260.609324
1971.942727	1263.260606
1973.667978	1264.271795
1975.389422	1265.928671
1977.113966	1266.118415
1978.836431	1272.143590
1980.555092	1278.392075
1982.276852	1285.358974
1983.994811	1291.210256
1985.714142	1294.703030
1987.429674	1300.095105
1989.150026	1308.449883
1990.866580	1314.206993
1992.579337	1317.359441
1994.295190	1318.029837
1996.008971	1318.246154
1997.722402	1320.724009
1999.433762	1324.635897
2001.146494	1324.776690
2002.855435	1330.446154
2004.567470	1337.583683
2006.273995	1343.799534
2007.983613	1347.986014
2009.691163	1351.409790
2011.398366	1353.660140
2013.103503	1352.159907
2014.808293	1351.482051
2016.514456	1352.660140
2018.216835	1356.228904
2019.920587	1358.386946
2021.622276	1360.307226
2023.323619	1365.592541
2025.024618	1371.134732
2026.723555	1374.689044
2028.423864	1377.947319
2030.120397	1382.099301
2031.818302	1386.448485
2033.514149	1390.026573
2035.213081	1392.176224
2036.906527	1394.393939
2038.601344	1398.248485
2040.295818	1400.983217
2041.986525	1402.406527
2043.680314	1401.496037
2045.370338	1400.121212
2047.061731	1401.616783
2048.751072	1401.958974
2050.441784	1400.340326
2052.128732	1402.433566
2053.815340	1404.973427
2055.503319	1404.469464
2057.187538	1406.075524
2058.873127	1407.968298
2060.558377	1406.675058
2062.241579	1403.772028
2063.926151	1401.523543
2065.605259	1403.425641
2067.289154	1401.824709
2068.967587	1396.410723
2070.649098	1398.341725
2072.326857	1404.788811
2074.004280	1406.420513
2075.683072	1411.019580
2077.359821	1417.606527
2079.034529	1420.355245
2080.710607	1424.240093
2082.384643	1428.713287
2084.058345	1428.654079
2085.731711	1428.691841
2087.403038	1424.969231
2089.074031	1423.979953
2090.744690	1425.341259
2092.415015	1428.746853
2094.085006	1425.981818
2095.752960	1431.824242
2097.420582	1437.725874
2099.086170	1445.853613
2100.753126	1456.485315
2102.418049	1467.639627
2104.082640	1472.383217
2105.745199	1477.582284
2107.409126	1484.085781
2109.071022	1490.285781
2110.732587	1491.014452
2112.393822	1498.697902
2114.053027	1495.599534
2115.711903	1498.099301
2117.370448	1501.159441
2119.028664	1503.568765
2120.683157	1506.322611
2122.340714	1511.863869
2123.997941	1511.731469
2125.651448	1513.870862
2127.306322	1518.659207
2128.957477	1527.486247
2130.611695	1529.559441
2132.262195	1537.283450
2133.914063	1539.871795
2135.560522	1543.964569
2137.211735	1553.090443
2138.859236	1555.773427
2140.508103	1557.506294
2142.154951	1559.044289
2143.801474	1560.919347
2145.447671	1563.536597
2147.090159	1564.528205
2148.735706	1568.694639
2150.377546	1565.673193
2152.022443	1569.379953
2153.663635	1574.578555
2155.304503	1577.690909
2156.945048	1586.958508
2158.583580	1587.892774
2160.223478	1590.173427
2161.859676	1594.074592
2163.497240	1599.452214
2165.134482	1601.634033
2166.769714	1600.967366
2168.404624	1604.572494
2170.039213	1605.316550
2171.673481	1607.092774
2173.304055	1611.929604
2174.937681	1613.038695
2176.567614	1616.206061
2178.198914	1618.041026
2179.828208	1620.294172
2181.457183	1625.932867
2183.085838	1629.226107
2184.714174	1635.220979
2186.340507	1636.098834
2187.966522	1643.251282
2189.590536	1644.029837
2191.215915	1647.025175
2192.839293	1651.963170
2194.464036	1655.535664
2196.085098	1657.112354
2197.705843	1656.632634
2199.327952	1653.874126
2200.948064	1655.411655
2202.566180	1654.256410
2204.183980	1659.826573
2205.801464	1658.332867
2207.418634	1662.900699
2209.035487	1664.798135
2210.652026	1670.365035
2212.266571	1678.581352
2213.879125	1686.170629
2215.493042	1690.398135
2217.104968	1698.202797
2218.718257	1700.370629
2220.329555	1708.050816
2221.938865	1711.110956
2223.549537	1714.068531
2225.158221	1716.945455
2226.766593	1724.482984
2228.372978	1730.685315
2229.980725	1735.785082
2231.586487	1747.489977
2233.191937	1752.085315
2234.795402	1761.088578
2236.400230	1767.057809
2238.003074	1768.740326
2239.603935	1776.595338
2241.206159	1776.723077
2242.806401	1778.555245
2244.408005	1782.091841
2246.005956	1788.162238
2247.605270	1793.231702
2249.202604	1797.725408
2250.799630	1807.421911
2252.398017	1813.831702
2253.992757	1822.893240
2255.585519	1824.656410
2257.179644	1831.694639
2258.775130	1833.176224
2260.366971	1832.734732
2261.958506	1835.181352
2263.551402	1833.871329
2265.138990	1839.215851
2266.731273	1840.103030
2268.318249	1842.801865
2269.908254	1850.342657
2271.492954	1854.001865
2273.082348	1859.900233
2274.666439	1860.389277
2276.251892	1862.437762
2277.835376	1857.852681
2279.421885	1855.251748
2281.004761	1854.449417
2282.587334	1854.873427
2284.169603	1861.096970
2285.748242	1864.305128
2287.329906	1867.201865
2288.907941	1872.105128
2290.488999	1872.758508
2292.066430	1882.582984
2293.641898	1885.979487
2295.220388	1889.403497
2296.795254	1893.546853
2298.369819	1898.284149
2299.944083	1901.795338
2301.518047	1908.118182
2303.091711	1913.955711
2304.665075	1910.663869
2306.234820	1910.882984
2307.804266	1910.322145
2309.376730	1915.254545
2310.943920	1922.546387
2312.514127	1928.295105
2314.080721	1932.006061
2315.648673	1942.491375
2317.214671	1949.250816
2318.780371	1954.170163
2320.345773	1962.732867
2321.909222	1973.706760
2323.474030	1977.672727
2325.035229	1985.901632
2326.599443	1994.922145
2328.158396	2007.953846
2329.720362	2015.880186
2331.280378	2027.895571
2332.840098	2033.758042
2334.397870	2042.461072
2335.955346	2045.671329
2337.512528	2052.841958
2339.067762	2061.270862
2340.622702	2068.331469
2342.177349	2071.413054
2343.731702	2073.446154
2345.285761	2076.136597
2346.839527	2077.754312
2348.391348	2077.604196
2349.941226	2084.688578
2351.494113	2084.267133
2353.041756	2088.335198
2354.592407	2094.002331
2356.139468	2104.349184
2357.687886	2112.044755
2359.236013	2119.830303
2360.780551	2130.628438
2362.326447	2142.102564
2363.870404	2142.967366
2365.415719	2152.650350
2366.957449	2153.281585
2368.500537	2163.052214
2370.041688	2169.080653
2371.582550	2173.811655
2373.123123	2187.955245
2374.663407	2197.759907
2376.203402	2203.984149
2377.739818	2208.095571
2379.279236	2217.127739
2380.815077	2224.448019
2382.352275	2225.767832
2383.885897	2234.727739
2385.422519	2240.422844
2386.957211	2254.368765
2388.489972	2264.532867
2390.022448	2274.930070
2391.552995	2290.761772
2393.086540	2296.371096
2394.614874	2297.833100
2396.144564	2304.077855
2397.673969	2312.997669
2399.203089	2322.983683
2400.731923	2328.596737
2402.255553	2341.580886
2403.783818	2351.270862
2405.306880	2361.029371
2406.834577	2371.675524
2408.355434	2382.364569
2409.880923	2389.449417
2411.402853	2393.245688
2412.926137	2397.533333
2414.447501	2407.253147
2415.966945	2413.632634
2417.487744	2418.863869
2419.006624	2421.210723
2420.525223	2433.448019
2422.041903	2436.814452
2423.559939	2444.963636
2425.077693	2454.684382
2426.591895	2462.837296
2428.105818	2474.703963
2429.619460	2479.094639
2431.134456	2484.356643
2432.645905	2493.958508
2434.158707	2499.370629
2435.669597	2508.287179
2437.180208	2518.017249
2438.688907	2527.952914
2440.200592	2533.100233
2441.708734	2539.418648
2443.216598	2547.074126
2444.724183	2554.081585
2446.228229	2562.648019
2447.735259	2565.545921
2449.240381	2576.989744
2450.745226	2591.967832
2452.248164	2602.454079
2453.750825	2622.249417
2455.253211	2635.288112
2456.753690	2640.995338
2458.255524	2648.375291
2459.755452	2653.348252
2461.255105	2652.934266
2462.754483	2652.337063
2464.251958	2649.978555
2465.747531	2649.480653
2467.246084	2655.544522
2468.741109	2661.026573
2470.237486	2670.806993
2471.730337	2681.504895
2473.224541	2682.824709
2474.718471	2684.795804
2476.208877	2696.924009
2477.702261	2702.946387
2479.193747	2705.212121
2480.683336	2710.489977
2482.172653	2718.184149
2483.660074	2722.589277
2485.150471	2729.256410
2486.637350	2734.928205
2488.125580	2741.552914
2489.610293	2742.462471
2491.094736	2742.401399
2492.580531	2747.090909
2494.064434	2749.876923
2495.549687	2751.093240
2497.029807	2752.877855
2498.512899	2749.993007
2499.994102	2751.265734
2501.475035	2748.786480
2502.954078	2746.878322
2504.432854	2739.993473
2505.911361	2733.913287
2507.389599	2730.086247
2508.867570	2727.189277
2510.342035	2717.389277
2511.819470	2711.243823
2513.293400	2708.250816
2514.768682	2705.642890
2516.243696	2705.794406
2517.715209	2709.141725
2519.188073	2711.916550
2520.659054	2712.203263
2522.131385	2712.696503
2523.598602	2710.569231
2525.068786	2710.673193
2526.537089	2710.844289
2528.005126	2709.053147
2529.472899	2710.426107
2530.940407	2713.320280
2532.407651	2716.500233
2533.871402	2725.736597
2535.336503	2728.851282
2536.799727	2733.781818
2538.264300	2740.487646
2539.725385	2750.020513
2541.187819	2750.137995
2542.649990	2755.939860
2544.108674	2766.723543
2545.571931	2773.908625
2547.030091	2779.795338
2548.489601	2789.347319
2549.944016	2798.915618
2551.403002	2806.204196
2552.860116	2804.758974
2554.315358	2810.497902
2555.770340	2808.931935
2557.223452	2811.960373
2558.677913	2809.432168
2560.130505	2815.355245
2561.582837	2822.343590
2563.033301	2826.316084
2564.486722	2836.339860
2565.935060	2844.375758
2567.386353	2858.500233
2568.835780	2866.841026
2570.281736	2876.695571
2571.730646	2888.422844
2573.176085	2895.332867
2574.622873	2908.328205
2576.067797	2919.643357
2577.512464	2930.310956
2578.958478	2934.468531
2580.401025	2940.281119
2581.844920	2949.482051
2583.285350	2954.446620
2584.727128	2961.054079
2586.167046	2969.416783
2587.608311	2974.325408
2589.046114	2978.452214
2590.486867	2989.498834
2591.922558	2999.682517
2593.361197	3005.945455
2594.797980	3011.550117
2596.232907	3017.456876
2597.670781	3027.264336
2599.103598	3034.925874
2600.537762	3035.668065
2601.970071	3040.293240
2603.403728	3041.755245
2604.835530	3041.396737
2606.267080	3045.971562
2607.698376	3048.708159
2609.127821	3047.876457
2610.557013	3047.994406
2611.984354	3049.127739
2613.413042	3051.131469
2614.841477	3059.377156
2616.266466	3068.886247
2617.692800	3079.275058
2619.117287	3095.671329
2620.543118	3099.505828
2621.965507	3109.040093
2623.389240	3114.977156
2624.811128	3118.132401
2626.232765	3119.823310
2627.652558	3123.490443
2629.073696	3123.970163
2630.494584	3124.313287
2631.912033	3132.179953
2633.332422	3136.505361
2634.749374	3138.436364
2636.166078	3143.027040
2637.582533	3144.475991
2638.998740	3144.393939
2640.414699	3146.373893
2641.828817	3146.766434
2643.242687	3151.332867
2644.654718	3165.403730
2646.068094	3178.661538
2647.478040	3185.629371
2648.890922	3194.524476
2650.300375	3199.778089
2651.709582	3203.882517
2653.116953	3205.298368
2654.527258	3204.463403
2655.935727	3201.778555
2657.342362	3207.509091
2658.748750	3210.274126
2660.153306	3222.048019
2661.559205	3240.711422
2662.963270	3256.241492
2664.367092	3269.459674
2665.770669	3279.943590
2667.172415	3287.054545
2668.575504	3290.838228
2669.975175	3281.315618
2671.376190	3271.069464
2672.773789	3258.919347
2674.174317	3253.145455
2675.571431	3248.510956
2676.969888	3242.019580
2678.366517	3241.432634
2679.762905	3235.264802
2681.159050	3235.705361
2682.553369	3234.615385
2683.949031	3231.972494
2685.341284	3237.807459
2686.734879	3230.586480
2688.126650	3233.562238
2689.519764	3229.024242
2690.911053	3233.572494
2692.300521	3241.197203
2693.689748	3243.453147
2695.078735	3250.368765
2696.469065	3251.160839
2697.854411	3257.610723
2699.242680	3261.836830
2700.629129	3261.384615
2702.015339	3271.434499
2703.401310	3270.793007
2704.783883	3282.903497
2706.167798	3282.485315
2707.551474	3290.615851
2708.934913	3301.741259
2710.314956	3310.769231
2711.696341	3323.021445
2713.075910	3330.879254
2714.456821	3335.142657
2715.835917	3345.021911
2717.213199	3345.606061
2718.591822	3355.219114
2719.968631	3356.625175
2721.345205	3369.435897
2722.721543	3378.536131
2724.096069	3390.944056
2725.471936	3399.269464
2726.844416	3408.127273
2728.219813	3418.745455
2729.590249	3429.038695
2730.962025	3436.911422
2732.333568	3448.088112
2733.703302	3453.238228
2735.074376	3458.332401
2736.443643	3457.253613
2737.812676	3468.559907
2739.179903	3481.995338
2740.546896	3485.131002
2741.913657	3492.178555
2743.280185	3497.836830
2744.644909	3510.317016
2746.009400	3527.574825
2747.373659	3543.058275
2748.737687	3550.899301
2750.101482	3560.967832
2751.461905	3567.292308
2752.825237	3575.963636
2754.183627	3588.670862
2755.544927	3593.546853
2756.902857	3596.054079
2758.263695	3594.283916
2759.622733	3589.680186
2760.978403	3591.413054
2762.336982	3592.646620
2763.692193	3592.002331
2765.047175	3590.618648
2766.400360	3602.841492
2767.756452	3610.438228
2769.109180	3625.321212
2770.461679	3637.772494
2771.813951	3644.210256
2773.167560	3655.305828
2774.517808	3657.800932
2775.866263	3661.034965
2777.217622	3666.509557
2778.565622	3663.983217
2779.914961	3666.060140
2781.262507	3676.518881
2782.609827	3686.091375
2783.956919	3688.456876
2785.302221	3698.097436
2786.647297	3703.043823
2787.992147	3709.764569
2789.336771	3714.670862
2790.678043	3721.951515
2792.020652	3727.061538
2793.363037	3737.330536
2794.705196	3740.531002
2796.044006	3755.477389
2797.385716	3774.691841
2798.724077	3788.017716
2800.063776	3799.114219
2801.401689	3815.054545
2802.737818	3831.005128
2804.073724	3846.103497
2805.410967	3857.989744
2806.746425	3869.472727
2808.081661	3878.263869
2809.415115	3890.582751
2810.749905	3901.124009
2812.081354	3915.491375
2813.415699	3921.837762
2814.745146	3929.157576
2816.075930	3939.104895
2817.406492	3950.151049
2818.735275	3958.609324
2820.065395	3968.321678
2821.393736	3982.240093
2822.721855	3985.964569
2824.048198	3988.921212
2825.375876	3997.404662
2826.700222	3999.687179
2828.025904	3995.621445
2829.349810	3989.365035
2830.673496	3992.196270
2831.998518	3991.865268
2833.320211	3994.446154
2834.641685	3996.945921
2835.962939	4005.989744
2837.283975	4017.686247
2838.603239	4017.605128
2839.923838	4021.854079
2841.242665	4026.490443
2842.561274	4023.220047
2843.878113	4021.142657
2845.194734	4025.183217
2846.511138	4026.946853
2847.825772	4030.485315
2849.141741	4037.707692
2850.454391	4040.631235
2851.768375	4051.276457
2853.082143	4062.233566
2854.395694	4069.848485
2855.707479	4088.636830
2857.017497	4093.588345
2858.328850	4096.892308
2859.636888	4111.328205
2860.946260	4125.322145
2862.255417	4142.273193
2863.564359	4161.455944
2864.871538	4173.515152
2866.176953	4185.441026
2867.483703	4202.457343
2868.788691	4209.928205
2870.093464	4215.702564
2871.396477	4226.624242
2872.702370	4220.014452
2874.003409	4221.384149
2875.305781	4226.248485
2876.606395	4230.131935
2877.908341	4235.801399
2879.210075	4240.788811
2880.508505	4240.817716
2881.808268	4241.672261
2883.106274	4243.918881
2884.404068	4241.729138
2885.700105	4245.992075
2886.997476	4248.655478
2888.293092	4245.992541
2889.588496	4243.470396
2890.883689	4240.289510
2892.175585	4246.490909
2893.470356	4245.236830
2894.761832	4249.505828
2896.054640	4247.260140
2897.347238	4246.088112
2898.636541	4254.823310
2899.927178	4268.705361
2901.216063	4278.915618
2902.506280	4287.613986
2903.793206	4294.843357
2905.081464	4297.955711
2906.367973	4304.654545
2907.654273	4317.638228
2908.940365	4321.144056
2910.224709	4322.078322
2911.511925	4319.820513
2912.794314	4323.309091
2914.078035	4323.534266
2915.360009	4328.699767
2916.641777	4332.052214
2917.921799	4339.144988
2919.204691	4346.225641
2920.485838	4351.957110
2921.763703	4361.538462
2923.044437	4368.075524
2924.321890	4373.810256
2925.599138	4375.845688
2926.874643	4375.889510
2928.153016	4377.460606
2929.426575	4365.570163
2930.703001	4367.986480
2931.977685	4370.932867
2933.250630	4368.762704
2934.524906	4382.779953
2935.797441	4382.719814
2937.069773	4390.253613
2938.338832	4397.981818
2939.610756	4395.046154
2940.880942	4390.587879
2942.150924	4384.565035
2943.420703	4387.234965
2944.688746	4388.017249
2945.955052	4397.107692
2947.221156	4403.779953
2948.488591	4407.740326
2949.754290	4420.683916
2951.019788	4428.462937
2952.285083	4436.874592
2953.547113	4446.455944
2954.810473	4438.284382
2956.073632	4442.000466
2957.335058	4449.819114
2958.597815	4461.383217
2959.858839	4469.150117
2961.118133	4469.292774
2962.377226	4472.991608
2963.636120	4477.344522
2964.894812	4476.835897
2966.153305	4490.088112
2967.410069	4492.062937
2968.666634	4506.126807
2969.921470	4510.275991
2971.177636	4522.667599
2972.430547	4530.821911
2973.684786	4540.556177
2974.938827	4537.685781
2976.191142	4533.231235
2977.443259	4542.470862
2978.693651	4549.811655
2979.946898	4549.938462
2981.195368	4559.944988
2982.446693	4569.633566
2983.694768	4576.198601
2984.942646	4583.116550
2986.190328	4588.198601
2987.437812	4595.090443
2988.683575	4607.000466
2989.929141	4606.987879
2991.176036	4613.853613
2992.419686	4629.134266
2993.664663	4640.564569
2994.906398	4648.153846
2996.150984	4659.454545
2997.393851	4675.792075
2998.633477	4687.704429
2999.875953	4700.951981
3001.115189	4704.951049
3002.355753	4718.894639
3003.594600	4726.241026
3004.833253	4724.862471
3006.070190	4731.442890
3007.308455	4740.813986
3008.545004	4746.860140
3009.781360	4753.665734
3011.017522	4757.380420
3012.251970	4764.046620
3013.486225	4768.382751
3014.720287	4768.521212
3015.952637	4767.867599
3017.183275	4772.339394
3018.416759	4763.982284
3019.648532	4768.568765
3020.878593	4782.485315
3022.108463	4794.071329
3023.336623	4806.614452
3024.566110	4820.258275
3025.793887	4832.036830
3027.021473	4843.186480
3028.250385	4852.983217
3029.474555	4858.933333
3030.701568	4856.986480
3031.925358	4855.533333
3033.150473	4849.563170
3034.373883	4849.953380
3035.597102	4850.523077
3036.818616	4841.773893
3038.042971	4844.484848
3039.262591	4850.339394
3040.483537	4854.131002
3041.704293	4857.311888
3042.923347	4864.497436
3044.143725	4871.070396
3045.360887	4874.155245
3046.579374	4885.287179
3047.796160	4896.090443
3049.012757	4896.207925
3050.229167	4903.667599
3051.442363	4903.903963
3052.658397	4914.116084
3053.871219	4913.014452
3055.086878	4913.232634
3056.297814	4919.574825
3057.510076	4922.242424
3058.722150	4931.167832
3059.934038	4930.656410
3061.144229	4940.473193
3062.354233	4946.927040
3063.564051	4948.051748
3064.772173	4959.044056
3065.980110	4956.381818
3067.186351	4956.358741
3068.393917	4942.794872
3069.599788	4942.958741
3070.805474	4944.956643
3072.010976	4942.717249
3073.214784	4946.489977
3074.419916	4944.976923
3075.623355	4956.415851
3076.825102	4960.126573
3078.026666	4963.483916
3079.228046	4971.406993
3080.429242	4968.685315
3081.628748	4979.629371
3082.828071	4978.989277
3084.028717	4991.594872
3085.227673	4996.472727
3086.423434	5002.883450
3087.622025	5004.323543
3088.817422	5006.222844
3090.014143	5015.807925
3091.207671	5017.916550
3092.404027	5018.735664
3093.598696	5027.795338
3094.790175	5028.922611
3095.985986	5025.171096
3097.177102	5024.445688
3098.369542	5029.733333
3099.558793	5033.282984
3100.750871	5036.684382
3101.941265	5038.249417
3103.128473	5034.536597
3104.317003	5039.067133
3105.506856	5049.415851
3106.693524	5055.865734
3107.880013	5063.796270
3109.066323	5057.322611
3110.253954	5047.685781
3111.438403	5050.524009
3112.621173	5054.330070
3113.806765	5059.308159
3114.990678	5059.126807
3116.172911	5062.185548
3117.354967	5062.233100
3118.536844	5070.048019
3119.718543	5081.931935
3120.898565	5093.159441
3122.076910	5091.219114
3123.258075	5087.209324
3124.436065	5088.527739
3125.613878	5092.967366
3126.791514	5094.503030
3127.967475	5097.542191
3129.143260	5096.377622
3130.320365	5106.318881
3131.495797	5113.605128
3132.669555	5122.709557
3133.841640	5130.830303
3135.015046	5139.996737
3136.188277	5138.558042
3137.359836	5147.112354
3138.532715	5162.345921
3139.702427	5177.124009
3140.873460	5179.639161
3142.042822	5175.724476
3143.210515	5168.382751
3144.381023	5169.358042
3145.546872	5161.495105
3146.717031	5164.948252
3147.882532	5166.896503
3149.047860	5166.240093
3150.213014	5171.544056
3151.377995	5179.686247
3152.544295	5178.331002
3153.705942	5171.259207
3154.868910	5155.651282
3156.031705	5140.042890
3157.194326	5119.476923
3158.355283	5100.062005
3159.516068	5080.062471
3160.676680	5071.567832
3161.835628	5064.750583
3162.994405	5068.897902
3164.153009	5074.297436
3165.311442	5075.790676
3166.469703	5074.598135
3167.626303	5077.565501
3168.781241	5086.775291
3169.937498	5092.210723
3171.092094	5094.717483
3172.246520	5104.552914
3173.399285	5105.168765
3174.551881	5115.273193
3175.704307	5124.869464
3176.856562	5137.740326
3178.008648	5139.898368
3179.157587	5153.370629
3180.309333	5165.140326
3181.459422	5177.094172
3182.607853	5192.606993
3183.756116	5200.868065
3184.904210	5223.034499
3186.052135	5251.193473
3187.198404	5267.310023
3188.344505	5289.827972
3189.488952	5298.654545
3190.633230	5309.450816
3191.777341	5311.268065
3192.922770	5317.331935
3194.065060	5317.214452
3195.207182	5319.426573
3196.349138	5316.244289
3197.490926	5310.571562
3198.632547	5319.035897
3199.771033	5320.857343
3200.910836	5316.631235
3202.051956	5317.659207
3203.189943	5314.469930
3204.326279	5317.432168
3205.462451	5320.872727
3206.599939	5327.789277
3207.735779	5341.419580
3208.872936	5352.704429
3210.005480	5359.951049
3211.142305	5364.594406
3212.274520	5369.328205
3213.408051	5361.162238
3214.541417	5347.694639
3215.671657	5339.927739
3216.804694	5322.708625
3217.934605	5311.917949
3219.065832	5307.648485
3220.193934	5306.229837
3221.324834	5312.929604
3222.454089	5314.522145
3223.581701	5318.772494
3224.706190	5323.980420
3225.834955	5337.692774
3226.960598	5344.847552
3228.086078	5354.469930
3229.209917	5370.262471
3230.336551	5371.484382
3231.458587	5377.111888
3232.581939	5386.173427
3233.705128	5391.361305
3234.828156	5395.907692
3235.949544	5392.605594
3237.070771	5400.108625
3238.190359	5404.716550
3239.309786	5424.335198
3240.427576	5436.697902
3241.548157	5464.260140
3242.665625	5489.811655
3243.782932	5513.891841
3244.900079	5538.027040
3246.015589	5569.066200
3247.132415	5586.501166
3248.246130	5610.524476
3249.362636	5626.578555
3250.477506	5640.038228
3251.589268	5647.715618
3252.700871	5648.198135
3253.813789	5630.693240
3254.926547	5632.131935
3256.036199	5623.793939
3257.147166	5623.351049
3258.257974	5619.678788
3259.367150	5633.890909
3260.474695	5639.118881
3261.583555	5656.849417
3262.692256	5673.233566
3263.797855	5694.272727
3264.904769	5711.720746
3266.010053	5715.702564
3267.116651	5713.463869
3268.220149	5729.291375
3269.324961	5727.339394
3270.429616	5740.584615
3271.531173	5740.079254
3272.632573	5749.568298
3273.735287	5744.215851
3274.837845	5747.045221
3275.937306	5756.054079
3277.039551	5767.058741
3278.138700	5771.806993
3279.236224	5775.337063
3280.333594	5771.017249
3281.433745	5773.185082
3282.530804	5762.144988
3283.627707	5766.017249
3284.724455	5749.937063
3285.816644	5742.055012
3286.913083	5732.638228
3288.007899	5729.142191
3289.102560	5727.535664
3290.195600	5732.617716
3291.288486	5737.967366
3292.379751	5742.132401
3293.472329	5738.945455
3294.563287	5742.205594
3295.652625	5739.459674
3296.741810	5745.304429
3297.832307	5737.769697
3298.919721	5735.157576
3300.006981	5737.215385
3301.095554	5741.164103
3302.183974	5736.751981
3303.267848	5746.809790
3304.355963	5754.693706
3305.440996	5761.281585
3306.524414	5776.509091
3307.609144	5787.695105
3308.692258	5801.962704
3309.776684	5808.207925
3310.858033	5810.324009
3311.940693	5814.622844
3313.021738	5814.288578
3314.102633	5818.140326
3315.181915	5810.800466
3316.261046	5819.976224
3317.341489	5828.530536
3318.418857	5838.722611
3319.497537	5854.298368
3320.574605	5860.384615
3321.651523	5877.329604
3322.726831	5880.884382
3323.801989	5882.419580
3324.878458	5884.938928
3325.951857	5881.047552
3327.025106	5878.024709
3328.099667	5867.607459
3329.172619	5863.333800
3330.243962	5861.908625
3331.316616	5857.345921
3332.386203	5857.740793
3333.457101	5857.280653
3334.526393	5851.911422
3335.596994	5838.388345
3336.665989	5831.877855
3337.733379	5833.143590
3338.799163	5824.350583
3339.869173	5818.677389
3340.936120	5810.459674
3342.000005	5802.089510
3343.066657	5805.109557
3344.131706	5808.613520
3345.195151	5809.528671
3346.258450	5809.547786
3347.321602	5807.020979
3348.384608	5805.448485
3349.447468	5820.950583
3350.508725	5829.586946
3351.566926	5824.794872
3352.629348	5826.815385
3353.688714	5824.643357
3354.747934	5828.689044
3355.808463	5840.212587
3356.864484	5850.206993
3357.923268	5846.199534
3358.977545	5856.175291
3360.034586	5865.320280
3361.090028	5872.945455
3362.146780	5888.874592
3363.201933	5891.494639
3364.255489	5883.454545
3365.307448	5891.194872
3366.362170	5893.073193
3367.413842	5893.983683
3368.465370	5897.742657
3369.518208	5899.318881
3370.567998	5900.346387
3371.619097	5908.117949
3372.667149	5914.851282
3373.717962	5920.646620
3374.765729	5926.651282
3375.813354	5928.661538
3376.860837	5924.429371
3377.906727	5929.823776
3378.953925	5918.888578
3379.998080	5918.746387
3381.044995	5917.343124
3382.090317	5907.919347
3383.132598	5904.904895
3384.174738	5904.727739
3385.218187	5911.351515
3386.261494	5912.716550
3387.303211	5915.617249
3388.344788	5923.059207
3389.386223	5931.017716
3390.426070	5939.931935
3391.464328	5943.139394
3392.503894	5963.217716
3393.543320	5963.122145
3394.581158	5961.055478
3395.617409	5962.191142
3396.653520	5962.072261
3397.690939	5958.450816
3398.725325	5945.194406
3399.761019	5939.682517
3400.796573	5935.371562
3401.829095	5939.705361
3402.864371	5937.277855
3403.896617	5938.501632
3404.928723	5951.054545
3405.959247	5956.992541
3406.991077	5966.956177
3408.022769	5965.417716
3409.051433	5958.686713
3410.079960	5954.420979
3411.109793	5942.896037
3412.139489	5946.069464
3413.166159	5945.365967
3414.194135	5956.033100
3415.219087	5956.395338
3416.246790	5967.061072
3417.271468	5975.332867
3418.297453	5988.455478
3419.321859	5994.765035
3420.346128	5984.758042
3421.368818	5978.625175
3422.391372	5970.113287
3423.415232	5964.123077
3424.436072	5960.758508
3425.456776	5951.682251
3426.478786	5942.323576
3427.497778	5933.373626
3428.516635	5925.523543
3429.536798	5919.464469
3430.553944	5915.887546
