-118.702670	0.000000
-116.033069	-11.400000
-113.366404	2.400000
-110.700491	20.800000
-108.037511	-10.800000
-105.373100	-15.000000
-102.711620	13.133333
-100.048711	6.200000
-97.390908	-4.466667
-94.731676	15.133333
-92.073192	4.333333
-89.417633	-0.466667
-86.760644	9.266667
-84.108754	6.400000
-81.455434	7.400000
-78.805033	0.333333
-76.153204	2.866667
-73.506465	8.600000
-70.858296	5.066667
-68.210870	7.400000
-65.566359	-3.333333
-62.920418	2.733333
-60.279559	3.533333
-57.637271	8.733333
-54.997892	3.200000
-52.357084	-3.533333
-49.717015	18.200000
-47.082020	8.000000
-44.445595	12.066667
-41.812073	5.866667
-39.177123	3.066667
-36.547239	5.666667
-33.913761	-4.666667
-31.285346	15.533333
-28.657665	6.533333
-26.028555	6.266667
-23.404503	14.000000
-20.776860	11.266667
-18.154272	-2.866667
-15.532414	4.333333
-12.911287	16.333333
-10.290891	15.133333
-7.673382	40.866667
-5.054445	87.866667
-2.438394	174.533333
0.176930	240.933333
2.791525	137.533333
5.403239	20.466667
8.016381	-1.066667
10.624489	14.466667
13.236178	7.733333
15.842837	7.066667
18.450925	0.666667
21.058287	4.733333
23.660625	13.466667
26.266542	-0.800000
28.867436	1.666667
31.469758	12.066667
34.067062	20.866667
36.667943	19.066667
39.263808	2.066667
41.861101	6.533333
44.457675	5.600000
47.049240	19.933333
49.642234	-5.200000
52.232366	9.333333
54.823925	8.333333
57.412626	12.666667
60.002753	-0.866667
62.587881	9.066667
65.174437	-4.266667
67.760278	11.400000
70.343266	0.733333
72.927681	14.600000
75.504967	10.466667
78.085818	4.666667
80.663822	3.866667
83.241114	7.933333
85.819834	3.200000
88.393571	3.733333
90.968735	13.800000
93.541056	3.733333
96.112670	17.466667
98.681443	-0.666667
101.251643	12.666667
103.819004	7.533333
106.387792	20.266667
108.953743	-2.866667
111.516859	9.600000
114.083531	33.533333
116.640981	19.400000
119.204117	14.266667
121.762294	24.800000
124.324025	42.866667
126.880799	56.733333
129.438999	111.200000
131.992247	141.200000
134.544797	229.200000
137.100897	333.800000
139.652049	436.066667
142.202504	552.000000
144.752261	628.066667
147.299199	689.200000
149.845442	743.800000
152.393110	759.733333
154.940082	770.266667
157.482118	764.933333
160.023462	780.533333
162.564112	785.200000
165.106187	793.200000
167.645452	767.800000
170.181907	767.866667
172.717672	777.733333
175.254862	786.733333
177.791361	767.666667
180.325054	779.266667
182.855943	778.333333
185.386144	776.866667
187.917771	768.466667
190.446596	785.733333
192.972622	782.600000
195.497962	788.533333
198.024727	782.800000
200.548696	771.000000
203.071979	776.066667
205.594578	788.400000
208.114384	770.333333
210.633507	796.600000
213.151947	781.666667
215.671812	784.333333
218.184674	794.800000
220.701068	788.066667
223.216781	781.800000
225.727603	796.066667
228.239850	792.933333
230.749314	777.800000
233.258100	781.133333
235.766208	796.933333
238.275740	807.733333
240.780391	779.133333
243.284366	789.066667
245.789765	796.266667
248.290289	792.666667
250.794336	800.266667
253.291413	784.133333
255.792012	782.600000
258.289840	782.600000
260.786995	778.333333
263.283478	795.200000
265.775097	810.066667
268.270236	781.133333
270.762608	772.466667
273.254310	805.933333
275.743249	802.066667
278.233611	789.733333
280.721212	783.466667
283.206053	785.133333
285.694409	786.733333
288.175825	777.600000
290.660755	797.133333
293.140839	777.533333
295.624436	786.466667
298.103191	769.866667
300.583368	783.666667
303.060794	780.466667
305.537556	784.200000
308.013654	779.200000
310.487004	795.466667
312.959693	788.333333
315.431720	790.666667
317.903085	804.733333
320.371707	788.733333
322.839669	806.400000
325.309054	820.533333
327.773616	805.600000
330.241682	814.466667
332.704927	778.600000
335.167516	791.200000
337.629448	796.666667
340.090723	790.666667
342.549263	784.800000
345.009226	783.666667
347.466457	772.533333
349.923033	808.666667
352.378955	793.800000
354.832147	784.733333
357.286762	782.400000
359.736575	812.133333
362.189884	791.666667
364.638394	787.466667
367.086254	779.200000
369.535536	790.333333
371.980023	787.266667
374.425933	781.000000
376.871194	764.000000
379.313736	769.466667
381.755630	775.266667
384.196876	787.333333
386.635408	767.666667
389.075360	791.133333
391.512599	774.333333
393.947127	782.666667
396.385141	777.066667
398.818380	763.866667
401.253039	762.133333
403.682926	781.800000
406.116298	782.000000
408.544900	795.733333
410.972860	777.466667
413.402241	781.333333
415.826858	760.666667
418.252895	780.600000
420.678293	765.333333
423.103050	793.133333
425.523048	777.133333
427.944468	788.533333
430.363192	776.733333
432.783335	789.733333
435.200784	776.000000
437.619654	799.933333
440.035829	806.200000
442.447258	775.133333
444.862163	785.666667
447.274378	786.133333
449.685960	797.133333
452.096907	789.466667
454.505167	778.400000
456.912796	786.133333
459.319792	783.466667
461.726157	799.533333
464.129839	792.600000
466.532891	788.200000
468.935313	797.333333
471.337105	795.200000
473.736219	783.200000
476.136753	787.600000
478.536658	785.066667
480.931841	785.400000
483.330489	784.133333
485.724418	789.466667
488.117721	789.466667
490.510399	777.933333
492.902451	775.400000
495.295921	796.266667
497.684679	778.800000
500.070771	804.666667
502.458283	783.066667
504.845172	810.533333
507.229396	779.600000
509.615040	795.866667
511.998022	764.800000
514.378342	787.066667
516.760083	783.666667
519.139164	778.933333
521.519663	788.733333
523.897506	766.800000
526.272692	771.800000
528.647261	793.266667
531.023249	773.866667
533.396584	783.600000
535.771336	790.400000
538.141402	781.800000
540.510854	783.133333
542.881723	788.400000
545.247911	780.333333
547.615518	805.000000
549.980479	781.400000
552.344828	801.066667
554.708563	793.733333
557.073716	779.933333
559.434197	775.333333
561.796095	803.000000
564.155354	795.866667
566.511974	800.466667
568.872040	800.066667
571.225414	788.733333
573.582233	785.666667
575.936417	781.733333
578.289992	775.266667
580.642960	773.000000
582.993295	776.133333
585.345048	770.933333
587.690124	792.466667
590.040663	780.666667
592.384530	787.133333
594.733858	790.466667
597.078537	777.600000
599.420592	771.800000
601.764064	779.000000
604.104913	791.066667
606.445159	798.066667
608.782785	791.800000
611.123846	791.466667
613.460270	786.133333
615.798110	772.333333
618.133333	799.200000
620.465939	770.000000
622.799963	780.800000
625.131372	791.733333
627.462183	806.933333
629.792396	798.666667
632.122012	777.400000
634.447004	777.733333
636.777438	788.000000
639.103251	790.800000
641.426456	803.666667
643.751078	788.600000
646.073094	794.333333
648.394516	795.733333
650.713335	795.933333
653.033571	781.733333
655.353212	799.666667
657.670254	778.266667
659.986703	786.066667
662.300554	790.933333
664.615821	787.066667
666.928491	804.933333
669.242576	789.800000
671.552061	794.933333
673.862962	798.400000
676.171270	794.800000
678.478989	807.800000
680.788124	801.733333
683.092666	797.333333
685.396622	795.466667
687.699991	812.600000
690.004776	786.066667
692.304973	795.333333
694.606586	791.133333
696.907613	790.133333
699.204059	776.866667
701.501920	803.533333
703.799197	777.800000
706.095891	780.666667
708.388009	783.400000
710.683538	796.800000
712.974493	798.066667
715.266863	803.266667
717.556657	782.600000
719.845872	771.333333
722.134507	789.066667
724.420569	780.866667
726.708045	788.066667
728.992951	800.400000
731.277279	817.600000
733.559038	785.533333
735.842211	774.333333
738.124807	786.000000
740.402847	813.933333
742.682301	819.266667
744.961180	789.733333
747.239484	806.000000
749.513237	792.733333
751.788405	808.866667
754.062999	817.266667
756.335034	812.666667
758.608482	791.733333
760.879372	832.400000
763.147706	807.933333
765.417453	798.866667
767.684645	811.133333
769.951268	816.933333
772.217320	809.133333
774.480821	815.266667
776.745734	808.600000
779.010079	805.933333
781.269893	803.000000
783.531121	805.533333
785.791781	812.600000
788.049895	793.400000
790.305464	806.800000
792.564423	814.600000
794.816884	808.533333
797.074712	810.133333
799.328021	801.466667
801.578790	804.400000
803.830971	804.066667
806.080613	821.200000
808.331667	815.533333
810.578210	776.933333
812.826166	800.600000
815.071586	815.866667
817.318419	790.733333
819.564689	807.733333
821.806456	802.800000
824.051605	790.466667
826.290283	796.333333
828.532342	792.466667
830.769903	814.800000
833.008876	786.600000
835.245322	805.600000
837.483179	793.400000
839.718511	794.466667
841.951320	800.600000
844.185539	790.866667
846.417237	801.933333
848.648380	790.066667
850.878968	810.600000
853.109002	804.866667
855.338481	783.800000
857.563480	800.866667
859.791852	775.733333
862.015746	803.133333
864.241051	801.733333
866.461880	808.333333
868.686081	791.333333
870.905809	796.933333
873.126947	810.600000
875.347535	797.800000
877.565614	811.733333
879.785102	799.000000
882.000124	818.866667
884.214598	818.066667
886.428525	812.533333
888.641904	810.400000
890.854737	797.333333
893.067022	794.933333
895.276806	786.200000
897.486044	781.733333
899.694737	795.133333
901.900930	783.066667
904.108533	813.533333
906.313639	780.133333
908.518201	808.266667
910.720268	802.400000
912.923744	791.200000
915.124726	797.800000
917.325166	800.133333
919.527015	795.066667
921.722473	817.666667
923.921289	807.000000
926.115668	805.400000
928.313404	823.333333
930.506704	805.000000
932.701413	810.333333
934.893635	816.666667
937.085320	799.266667
939.276467	807.733333
941.465131	807.733333
943.653259	838.266667
945.838905	807.066667
948.027905	818.800000
950.212480	806.333333
952.396521	831.466667
954.583913	827.933333
956.763000	823.666667
958.945438	832.466667
961.127342	812.866667
963.306771	828.466667
965.483728	823.933333
967.662093	858.533333
969.841865	860.200000
972.015288	829.400000
974.192057	834.133333
976.364419	822.466667
978.538189	854.866667
980.707555	855.733333
982.880265	845.266667
985.050510	844.000000
987.220225	862.933333
989.389412	846.400000
991.554202	851.866667
993.722334	854.000000
995.886070	839.400000
998.051214	833.800000
1000.213898	834.333333
1002.376057	842.066667
1004.535759	842.600000
1006.694936	849.266667
1008.855520	842.333333
1011.013649	804.266667
1013.171255	842.600000
1015.328337	842.333333
1017.484895	823.266667
1019.637074	854.666667
1021.790660	835.666667
1023.943724	856.933333
1026.094339	826.600000
1028.246360	826.533333
1030.394009	843.266667
1032.544989	835.000000
1034.691598	848.466667
1036.837688	830.733333
1038.983260	845.533333
1041.130237	831.333333
1043.270925	850.266667
1045.414942	822.466667
1047.556520	832.133333
1049.697580	839.866667
1051.840046	860.600000
1053.976231	821.733333
1056.115743	852.200000
1058.250899	860.866667
1060.389380	847.933333
1062.523508	839.200000
1064.657122	828.533333
1066.792140	850.600000
1068.922810	850.466667
1071.054884	840.466667
1073.184528	847.466667
1075.313661	840.600000
1077.442283	827.200000
1079.570393	856.800000
1081.696077	838.400000
1083.821251	839.200000
1085.947829	862.066667
1088.070069	847.000000
1090.193714	860.266667
1092.313024	844.000000
1094.437563	857.933333
1096.555858	859.333333
1098.675556	862.200000
1100.792837	842.266667
1102.909610	852.533333
1105.025877	858.133333
1107.139729	865.200000
1109.254984	855.666667
1111.365917	875.200000
1113.480162	860.666667
1115.590086	874.933333
1117.701413	866.333333
1119.812237	855.600000
1121.918744	848.933333
1124.028560	875.066667
1126.134062	851.600000
1128.240968	856.933333
1130.341658	866.000000
1132.447560	888.800000
1134.549153	852.733333
1136.652148	881.800000
1138.754644	862.466667
1140.850932	874.066667
1142.952427	870.800000
1145.049620	887.333333
1147.146314	859.133333
1149.242511	865.533333
1151.338209	876.066667
1153.433410	887.800000
1155.526214	863.266667
1157.620420	873.133333
1159.708435	876.000000
1161.801648	877.200000
1163.888674	877.666667
1165.978998	881.266667
1168.065034	873.333333
1170.154368	870.533333
1172.237521	871.733333
1174.322077	892.333333
1176.408034	875.733333
1178.489709	874.600000
1180.572785	893.800000
1182.653476	886.533333
1184.733676	887.933333
1186.813384	883.400000
1188.892601	891.133333
1190.969435	901.600000
1193.043889	895.333333
1195.121635	878.800000
1197.195110	884.466667
1199.269987	882.866667
1201.340596	899.466667
1203.412606	889.400000
1205.482240	894.333333
1207.553275	919.200000
1209.623822	908.400000
1211.690109	912.666667
1213.757796	913.333333
1215.823110	889.200000
1217.889825	908.333333
1219.952284	910.400000
1222.018029	903.066667
1224.079519	906.133333
1226.142410	922.000000
1228.202932	888.600000
1230.262972	919.200000
1232.322528	938.200000
1234.379720	920.866667
1236.436429	930.666667
1238.490776	935.933333
1240.548403	907.466667
1242.603668	926.466667
1244.654693	926.400000
1246.707117	941.600000
1248.759061	968.466667
1250.808647	957.066667
1252.857754	956.200000
1254.906382	955.666667
1256.954532	965.600000
1259.002204	953.066667
1261.045645	974.466667
1263.092362	943.666667
1265.136725	975.933333
1267.180611	958.400000
1269.222147	989.733333
1271.261333	996.400000
1273.303792	988.800000
1275.342028	1011.333333
1277.381663	1021.066667
1279.420822	997.066667
1281.455764	1042.866667
1283.492104	1001.600000
1285.526100	1069.333333
1287.561493	1041.400000
1289.592673	1080.133333
1291.625252	1074.800000
1293.657359	1120.600000
1295.687125	1128.800000
1297.718288	1163.333333
1299.745244	1198.266667
1301.773599	1223.533333
1303.797748	1270.333333
1305.825163	1356.466667
1307.848375	1379.000000
1309.872985	1517.200000
1311.895260	1648.733333
1313.918933	1847.333333
1315.940273	2139.800000
1317.961146	2601.266667
1319.981551	3305.733333
1321.997763	4809.400000
1324.015372	7913.200000
1326.030653	15769.466667
1328.049193	37589.600000
1330.063543	64553.266667
1332.075568	64580.466667
1334.090851	61442.466667
1336.101948	27094.000000
1338.114441	9285.133333
1340.122752	4902.800000
1342.134319	3136.466667
1344.139847	2313.000000
1346.148630	1876.400000
1348.153235	1628.200000
1350.161094	1491.866667
1352.168491	1373.600000
1354.169857	1294.400000
1356.172619	1218.133333
1358.174922	1174.133333
1360.176765	1142.333333
1362.178148	1132.866667
1364.177217	1079.333333
1366.175828	1071.666667
1368.173981	1024.600000
1370.171676	1055.800000
1372.165208	1019.133333
1374.160135	1018.133333
1376.154606	1030.400000
1378.148620	988.133333
1380.140327	1009.800000
1382.131578	999.600000
1384.120524	997.800000
1386.110865	980.800000
1388.100752	965.466667
1390.088334	975.400000
1392.075463	979.333333
1394.060290	1008.133333
1396.046512	971.066667
1398.030433	964.800000
1400.013902	984.533333
1401.996919	996.866667
1403.977638	990.866667
1405.959751	988.266667
1407.939567	977.866667
1409.918933	988.466667
1411.894160	1002.266667
1413.872625	981.733333
1415.848797	998.000000
1417.824519	994.400000
1419.799792	1017.400000
1421.772775	1015.333333
1423.745309	1004.866667
1425.717395	990.200000
1427.689034	1014.333333
1429.656544	1009.066667
1431.629128	1017.466667
1433.593906	1018.200000
1435.563757	1030.933333
1437.529483	1039.400000
1439.496603	1018.066667
1441.461439	1012.600000
1443.422155	1013.600000
1445.387939	1036.666667
1447.347768	1026.600000
1449.308991	1030.333333
1451.271605	1010.066667
1453.230105	1019.800000
1455.188163	1020.400000
1457.145779	1007.533333
1459.102952	1010.200000
1461.057850	1021.000000
1463.014141	1007.000000
1464.968157	999.933333
1466.921732	982.200000
1468.873035	1020.200000
1470.825730	1009.533333
1472.776154	999.066667
1474.726139	994.066667
1476.675685	997.933333
1478.622962	1004.133333
1480.567971	985.733333
1482.514373	998.800000
1484.460337	993.733333
1486.405864	990.333333
1488.349125	987.733333
1490.291950	1015.200000
1492.232512	979.733333
1494.174466	992.733333
1496.114157	997.800000
1498.053413	987.000000
1499.992235	987.133333
1501.928797	982.133333
1503.866750	982.800000
1505.802444	1004.400000
1507.737705	999.800000
1509.670709	984.000000
1511.603281	998.466667
1513.535421	998.533333
1515.467129	1004.666667
1517.396584	1003.866667
1519.327429	1016.866667
1521.257842	1016.533333
1523.184183	1042.800000
1525.111914	1010.733333
1527.037396	1008.066667
1528.962448	1017.266667
1530.887070	1027.533333
1532.811264	998.533333
1534.733211	1013.600000
1536.656548	1020.066667
1538.577638	1040.933333
1540.496484	1017.800000
1542.416720	1031.933333
1544.334712	1005.800000
1546.252278	1018.800000
1548.167603	1012.866667
1550.084317	1040.400000
1551.996975	1025.333333
1553.912838	1012.266667
1555.826462	1013.533333
1557.737847	1027.000000
1559.650622	996.466667
1561.559347	1040.000000
1563.469461	1006.933333
1565.379152	1014.866667
1567.288420	1005.600000
1569.195453	1000.133333
1571.100254	989.000000
1573.006444	1012.333333
1574.910403	1007.000000
1576.813940	1005.466667
1578.717057	997.866667
1580.617944	1021.800000
1582.520220	1002.600000
1584.420267	1009.933333
1586.321703	982.200000
1588.219104	994.400000
1590.116088	990.800000
1592.012653	998.000000
1593.910605	1018.400000
1595.802723	1027.333333
1597.698035	991.266667
1599.592928	999.466667
1601.485601	1017.133333
1603.377856	1003.333333
1605.267892	991.266667
1607.157512	987.800000
1609.046717	1013.733333
1610.935506	1019.133333
1612.822079	1029.066667
1614.710039	1008.533333
1616.593982	1010.600000
1618.479312	1012.133333
1620.364229	1015.933333
1622.246932	1027.133333
1624.131022	1007.000000
1626.011100	1002.400000
1627.892566	1018.266667
1629.771820	1015.333333
1631.652462	1000.066667
1633.527299	1031.600000
1635.407117	1022.533333
1637.282930	1025.933333
1639.158334	1009.666667
1641.035123	1025.266667
1642.906115	998.600000
1644.780290	987.066667
1646.650465	1035.933333
1648.523821	1017.533333
1650.394974	1017.333333
1652.263925	1040.333333
1654.134262	1024.333333
1656.000606	1018.466667
1657.868335	990.933333
1659.733865	1024.200000
1661.600781	1026.200000
1663.463707	1023.266667
1665.328020	994.200000
1667.190136	1027.733333
1669.051847	981.400000
1670.914943	1008.133333
1672.775845	1030.466667
1674.634554	1027.533333
1676.492859	1018.800000
1678.352548	1010.466667
1680.206471	1005.533333
1682.063567	1020.933333
1683.920259	1022.400000
1685.772976	1025.600000
1687.628864	1017.733333
1689.480778	1023.133333
1691.332291	1034.000000
1693.183403	1000.733333
1695.034114	1026.800000
1696.884425	1003.200000
1698.732552	1016.466667
1700.582063	1037.266667
1702.425824	1006.800000
1704.274536	1011.866667
1706.117501	1032.000000
1707.963632	1019.066667
1709.805802	1027.733333
1711.651137	1032.666667
1713.490730	1026.600000
1715.331709	1038.066667
1717.174070	1020.000000
1719.012474	1047.933333
1720.852262	1013.600000
1722.689875	1029.666667
1724.527093	1030.466667
1726.362137	1036.400000
1728.198564	1032.800000
1730.032818	1044.666667
1731.866679	1006.400000
1733.700145	1034.400000
1735.529665	1038.466667
1737.362345	1030.200000
1739.191079	1046.533333
1741.022972	1039.466667
1742.850922	1051.200000
1744.678480	1034.666667
1746.505647	1028.466667
1748.332422	1035.666667
1750.158805	1044.000000
1751.981252	1050.866667
1753.806854	1031.133333
1755.628520	1060.133333
1757.451569	1048.933333
1759.272457	1031.000000
1761.092955	1056.200000
1762.914835	1060.000000
1764.731015	1026.400000
1766.550347	1050.600000
1768.365752	1051.400000
1770.184308	1047.733333
1771.998938	1041.200000
1773.813181	1077.933333
1775.627038	1050.066667
1777.440508	1062.933333
1779.251824	1050.533333
1781.064522	1077.600000
1782.876834	1080.200000
1784.685227	1076.733333
1786.495002	1074.733333
1788.300861	1066.933333
1790.109867	1057.066667
1791.914959	1087.800000
1793.721432	1086.000000
1795.527520	1070.600000
1797.329699	1085.533333
1799.135021	1097.266667
1800.936435	1063.533333
1802.739230	1075.800000
1804.538118	1089.800000
1806.338387	1113.133333
1808.138274	1080.866667
1809.936019	1082.066667
1811.733384	1101.000000
1813.530368	1111.800000
1815.326972	1095.800000
1817.121437	1104.066667
1818.917282	1089.933333
1820.707471	1108.933333
1822.502557	1112.200000
1824.291990	1122.133333
1826.084561	1109.800000
1827.874996	1105.600000
1829.663296	1112.333333
1831.454732	1146.600000
1833.240523	1094.266667
1835.027692	1111.600000
1836.812731	1104.800000
1838.600902	1123.733333
1840.385188	1112.533333
1842.167345	1122.466667
1843.950881	1122.666667
1845.732288	1123.133333
1847.515073	1138.533333
1849.293979	1134.333333
1851.074263	1144.800000
1852.852422	1159.133333
1854.631958	1125.466667
1856.409370	1144.200000
1858.184659	1129.333333
1859.961325	1150.266667
1861.735869	1137.466667
1863.511790	1147.066667
1865.282092	1154.866667
1867.055521	1160.133333
1868.826830	1143.800000
1870.597768	1162.466667
1872.370084	1163.600000
1874.136786	1160.266667
1875.906613	1180.733333
1877.672577	1161.800000
1879.441665	1167.200000
1881.206891	1169.066667
1882.971749	1159.333333
1884.737983	1171.600000
1886.500359	1180.066667
1888.262368	1172.000000
1890.024010	1165.400000
1891.785284	1172.533333
1893.546192	1179.533333
1895.306732	1178.800000
1897.065164	1156.066667
1898.823229	1150.866667
1900.579187	1163.000000
1902.336521	1165.133333
1904.093490	1166.333333
1905.848352	1181.400000
1907.601109	1185.133333
1909.353503	1171.133333
1911.107273	1170.400000
1912.858939	1205.733333
1914.608502	1195.333333
1916.359442	1193.333333
1918.110018	1206.133333
1919.856756	1200.800000
1921.604869	1181.933333
1923.350883	1217.933333
1925.098273	1229.666667
1926.843564	1223.666667
1928.586758	1198.466667
1930.331328	1223.066667
1932.073801	1207.266667
1933.815914	1206.266667
1935.557668	1211.000000
1937.299061	1225.533333
1939.038361	1218.733333
1940.777302	1242.200000
1942.515884	1204.266667
1944.252375	1237.266667
1945.988507	1247.866667
1947.726015	1258.466667
1949.459700	1228.333333
1951.194760	1253.333333
1952.927731	1263.400000
1954.660346	1249.666667
1956.392604	1242.533333
1958.124506	1261.266667
1959.854323	1251.666667
1961.582054	1248.266667
1963.311160	1274.333333
1965.039910	1254.600000
1966.766577	1269.066667
1968.492890	1266.533333
1970.220577	1260.266667
1971.942727	1276.000000
1973.667978	1263.266667
1975.389422	1278.733333
1977.113966	1279.000000
1978.836431	1277.133333
1980.555092	1301.400000
1982.276852	1280.066667
1983.994811	1305.000000
1985.714142	1283.066667
1987.429674	1298.666667
1989.150026	1343.266667
1990.866580	1328.800000
1992.579337	1344.200000
1994.295190	1341.066667
1996.008971	1344.600000
1997.722402	1331.466667
1999.433762	1349.266667
2001.146494	1357.600000
2002.855435	1333.266667
2004.567470	1374.666667
2006.273995	1339.333333
2007.983613	1342.866667
2009.691163	1387.933333
2011.398366	1366.733333
2013.103503	1364.533333
2014.808293	1358.866667
2016.514456	1372.066667
2018.216835	1394.400000
2019.920587	1368.466667
2021.622276	1381.600000
2023.323619	1402.133333
2025.024618	1381.000000
2026.723555	1387.933333
2028.423864	1385.600000
2030.120397	1396.666667
2031.818302	1394.733333
2033.514149	1401.866667
2035.213081	1404.866667
2036.906527	1410.400000
2038.601344	1439.266667
2040.295818	1419.066667
2041.986525	1429.400000
2043.680314	1412.733333
2045.370338	1408.400000
2047.061731	1408.933333
2048.751072	1427.533333
2050.441784	1397.733333
2052.128732	1399.200000
2053.815340	1427.400000
2055.503319	1427.600000
2057.187538	1417.533333
2058.873127	1412.600000
2060.558377	1443.666667
2062.241579	1419.866667
2063.926151	1422.266667
2065.605259	1409.200000
2067.289154	1407.066667
2068.967587	1421.600000
2070.649098	1406.600000
2072.326857	1413.800000
2074.004280	1429.466667
2075.683072	1401.133333
2077.359821	1427.066667
2079.034529	1426.733333
2080.710607	1436.066667
2082.384643	1455.200000
2084.058345	1428.133333
2085.731711	1440.800000
2087.403038	1421.666667
2089.074031	1434.400000
2090.744690	1458.600000
2092.415015	1450.400000
2094.085006	1454.000000
2095.752960	1461.066667
2097.420582	1460.400000
2099.086170	1479.266667
2100.753126	1493.200000
2102.418049	1451.933333
2104.082640	1488.466667
2105.745199	1478.400000
2107.409126	1490.533333
2109.071022	1510.866667
2110.732587	1493.400000
2112.393822	1475.866667
2114.053027	1493.866667
2115.711903	1546.466667
2117.370448	1513.933333
2119.028664	1524.800000
2120.683157	1532.133333
2122.340714	1503.800000
2123.997941	1534.533333
2125.651448	1529.200000
2127.306322	1541.866667
2128.957477	1560.466667
2130.611695	1568.200000
2132.262195	1552.200000
2133.914063	1554.466667
2135.560522	1573.666667
2137.211735	1550.066667
2138.859236	1586.200000
2140.508103	1556.600000
2142.154951	1558.000000
2143.801474	1571.733333
2145.447671	1579.733333
2147.090159	1573.733333
2148.735706	1577.333333
2150.377546	1569.066667
2152.022443	1561.733333
2153.663635	1613.866667
2155.304503	1580.933333
2156.945048	1591.066667
2158.583580	1583.333333
2160.223478	1593.800000
2161.859676	1580.666667
2163.497240	1616.133333
2165.134482	1592.733333
2166.769714	1596.400000
2168.404624	1601.533333
2170.039213	1618.066667
2171.673481	1622.400000
2173.304055	1614.333333
2174.937681	1614.666667
2176.567614	1668.333333
2178.198914	1647.666667
2179.828208	1630.400000
2181.457183	1639.133333
2183.085838	1664.733333
2184.714174	1637.200000
2186.340507	1658.333333
2187.966522	1644.400000
2189.590536	1640.866667
2191.215915	1643.733333
2192.839293	1641.933333
2194.464036	1648.666667
2196.085098	1666.400000
2197.705843	1664.666667
2199.327952	1654.333333
2200.948064	1683.333333
2202.566180	1668.066667
2204.183980	1667.666667
2205.801464	1672.200000
2207.418634	1680.266667
2209.035487	1666.466667
2210.652026	1725.000000
2212.266571	1695.866667
2213.879125	1704.400000
2215.493042	1695.266667
2217.104968	1699.866667
2218.718257	1732.066667
2220.329555	1714.133333
2221.938865	1707.133333
2223.549537	1715.933333
2225.158221	1718.400000
2226.766593	1758.066667
2228.372978	1782.666667
2229.980725	1766.466667
2231.586487	1759.933333
2233.191937	1755.666667
2234.795402	1765.066667
2236.400230	1769.466667
2238.003074	1805.333333
2239.603935	1774.666667
2241.206159	1799.600000
2242.806401	1792.866667
2244.408005	1811.933333
2246.005956	1785.866667
2247.605270	1809.533333
2249.202604	1835.133333
2250.799630	1836.733333
2252.398017	1822.266667
2253.992757	1835.200000
2255.585519	1852.066667
2257.179644	1827.600000
2258.775130	1863.200000
2260.366971	1815.266667
2261.958506	1817.733333
2263.551402	1847.066667
2265.138990	1840.466667
2266.731273	1873.266667
2268.318249	1869.666667
2269.908254	1893.733333
2271.492954	1852.866667
2273.082348	1883.600000
2274.666439	1860.266667
2276.251892	1870.066667
2277.835376	1871.666667
2279.421885	1858.800000
2281.004761	1840.533333
2282.587334	1864.333333
2284.169603	1845.333333
2285.748242	1906.800000
2287.329906	1875.266667
2288.907941	1874.933333
2290.488999	1884.133333
2292.066430	1890.533333
2293.641898	1896.933333
2295.220388	1917.933333
2296.795254	1912.666667
2298.369819	1901.266667
2299.944083	1930.800000
2301.518047	1916.000000
2303.091711	1916.066667
2304.665075	1922.800000
2306.234820	1901.733333
2307.804266	1934.933333
2309.376730	1923.466667
2310.943920	1935.400000
2312.514127	1964.600000
2314.080721	1978.333333
2315.648673	1985.800000
2317.214671	1965.266667
2318.780371	1964.533333
2320.345773	2022.333333
2321.909222	1998.000000
2323.474030	1995.266667
2325.035229	2015.866667
2326.599443	2047.400000
2328.158396	2021.066667
2329.720362	2072.400000
2331.280378	2025.400000
2332.840098	2040.400000
2334.397870	2043.133333
2335.955346	2060.066667
2337.512528	2053.600000
2339.067762	2084.866667
2340.622702	2062.666667
2342.177349	2082.666667
2343.731702	2083.200000
2345.285761	2074.000000
2346.839527	2069.666667
2348.391348	2101.066667
2349.941226	2094.800000
2351.494113	2100.866667
2353.041756	2120.600000
2354.592407	2084.466667
2356.139468	2124.200000
2357.687886	2106.800000
2359.236013	2125.266667
2360.780551	2166.800000
2362.326447	2138.466667
2363.870404	2135.800000
2365.415719	2142.533333
2366.957449	2166.733333
2368.500537	2149.533333
2370.041688	2196.733333
2371.582550	2178.666667
2373.123123	2211.533333
2374.663407	2194.733333
2376.203402	2222.600000
2377.739818	2213.933333
2379.279236	2223.266667
2380.815077	2250.333333
2382.352275	2218.466667
2383.885897	2245.200000
2385.422519	2278.333333
2386.957211	2279.133333
2388.489972	2281.600000
2390.022448	2291.733333
2391.552995	2305.066667
2393.086540	2315.866667
2394.614874	2313.333333
2396.144564	2321.133333
2397.673969	2344.066667
2399.203089	2324.400000
2400.731923	2327.133333
2402.255553	2360.400000
2403.783818	2372.533333
2405.306880	2345.400000
2406.834577	2357.000000
2408.355434	2387.733333
2409.880923	2418.666667
2411.402853	2422.400000
2412.926137	2423.133333
2414.447501	2418.933333
2415.966945	2420.200000
2417.487744	2431.400000
2419.006624	2458.066667
2420.525223	2442.266667
2422.041903	2455.266667
2423.559939	2467.266667
2425.077693	2479.466667
2426.591895	2495.600000
2428.105818	2458.866667
2429.619460	2501.133333
2431.134456	2495.466667
2432.645905	2483.466667
2434.158707	2504.066667
2435.669597	2515.000000
2437.180208	2519.266667
2438.688907	2524.266667
2440.200592	2545.200000
2441.708734	2577.466667
2443.216598	2537.600000
2444.724183	2527.666667
2446.228229	2580.666667
2447.735259	2560.533333
2449.240381	2587.866667
2450.745226	2602.933333
2452.248164	2619.466667
2453.750825	2643.933333
2455.253211	2683.933333
2456.753690	2624.266667
2458.255524	2632.866667
2459.755452	2657.800000
2461.255105	2673.133333
2462.754483	2670.866667
2464.251958	2661.400000
2465.747531	2654.333333
2467.246084	2709.666667
2468.741109	2686.466667
2470.237486	2680.533333
2471.730337	2714.600000
2473.224541	2693.466667
2474.718471	2723.933333
2476.208877	2706.866667
2477.702261	2750.466667
2479.193747	2700.200000
2480.683336	2740.400000
2482.172653	2749.333333
2483.660074	2717.733333
2485.150471	2742.066667
2486.637350	2766.733333
2488.125580	2747.333333
2489.610293	2757.333333
2491.094736	2737.133333
2492.580531	2752.000000
2494.064434	2750.800000
2495.549687	2750.933333
2497.029807	2761.666667
2498.512899	2753.733333
2499.994102	2759.933333
2501.475035	2760.666667
2502.954078	2733.600000
2504.432854	2728.000000
2505.911361	2753.866667
2507.389599	2703.000000
2508.867570	2741.000000
2510.342035	2737.400000
2511.819470	2737.400000
2513.293400	2696.200000
2514.768682	2730.933333
2516.243696	2722.466667
2517.715209	2714.533333
2519.188073	2734.466667
2520.659054	2698.733333
2522.131385	2734.200000
2523.598602	2715.266667
2525.068786	2697.200000
2526.537089	2693.533333
2528.005126	2749.933333
2529.472899	2748.800000
2530.940407	2707.866667
2532.407651	2720.133333
2533.871402	2746.733333
2535.336503	2763.400000
2536.799727	2735.933333
2538.264300	2753.133333
2539.725385	2747.266667
2541.187819	2754.666667
2542.649990	2750.333333
2544.108674	2772.066667
2545.571931	2775.600000
2547.030091	2825.066667
2548.489601	2794.000000
2549.944016	2799.066667
2551.403002	2814.600000
2552.860116	2823.000000
2554.315358	2816.600000
2555.770340	2846.600000
2557.223452	2825.133333
2558.677913	2842.333333
2560.130505	2846.666667
2561.582837	2807.400000
2563.033301	2856.333333
2564.486722	2876.933333
2565.935060	2824.866667
2567.386353	2864.266667
2568.835780	2904.333333
2570.281736	2904.600000
2571.730646	2886.533333
2573.176085	2896.933333
2574.622873	2963.866667
2576.067797	2931.933333
2577.512464	2977.866667
2578.958478	2967.733333
2580.401025	2983.533333
2581.844920	2964.600000
2583.285350	2965.000000
2584.727128	2990.933333
2586.167046	2955.266667
2587.608311	2949.933333
2589.046114	2985.733333
2590.486867	2994.866667
2591.922558	2969.400000
2593.361197	3050.866667
2594.797980	3023.200000
2596.232907	3030.200000
2597.670781	3056.666667
2599.103598	3065.333333
2600.537762	2996.600000
2601.970071	3065.266667
2603.403728	3063.466667
2604.835530	3056.400000
2606.267080	3076.333333
2607.698376	3055.466667
2609.127821	3097.600000
2610.557013	3058.466667
2611.984354	3102.133333
2613.413042	3070.666667
2614.841477	3080.733333
2616.266466	3102.133333
2617.692800	3097.333333
2619.117287	3120.866667
2620.543118	3115.733333
2621.965507	3085.933333
2623.389240	3133.333333
2624.811128	3120.400000
2626.232765	3104.866667
2627.652558	3101.800000
2629.073696	3110.333333
2630.494584	3152.733333
2631.912033	3103.333333
2633.332422	3160.533333
2634.749374	3146.266667
2636.166078	3120.666667
2637.582533	3113.200000
2638.998740	3168.600000
2640.414699	3126.800000
2641.828817	3173.266667
2643.242687	3192.400000
2644.654718	3172.600000
2646.068094	3154.000000
2647.478040	3181.666667
2648.890922	3186.533333
2650.300375	3199.400000
2651.709582	3210.400000
2653.116953	3222.666667
2654.527258	3201.000000
2655.935727	3227.800000
2657.342362	3208.533333
2658.748750	3211.200000
2660.153306	3252.866667
2661.559205	3279.400000
2662.963270	3256.333333
2664.367092	3321.066667
2665.770669	3261.533333
2667.172415	3323.400000
2668.575504	3312.000000
2669.975175	3302.933333
2671.376190	3261.333333
2672.773789	3254.133333
2674.174317	3240.866667
2675.571431	3259.733333
2676.969888	3241.933333
2678.366517	3268.000000
2679.762905	3223.133333
2681.159050	3241.200000
2682.553369	3250.333333
2683.949031	3239.666667
2685.341284	3277.866667
2686.734879	3230.000000
2688.126650	3274.666667
2689.519764	3264.800000
2690.911053	3260.933333
2692.300521	3253.866667
2693.689748	3257.400000
2695.078735	3264.800000
2696.469065	3287.333333
2697.854411	3296.466667
2699.242680	3315.866667
2700.629129	3261.200000
2702.015339	3298.600000
2703.401310	3275.400000
2704.783883	3293.933333
2706.167798	3312.066667
2707.551474	3311.000000
2708.934913	3337.200000
2710.314956	3317.133333
2711.696341	3337.866667
2713.075910	3332.466667
2714.456821	3338.200000
2715.835917	3359.200000
2717.213199	3357.733333
2718.591822	3354.466667
2719.968631	3343.000000
2721.345205	3352.800000
2722.721543	3410.466667
2724.096069	3414.200000
2725.471936	3360.466667
2726.844416	3410.800000
2728.219813	3396.466667
2729.590249	3408.266667
2730.962025	3441.800000
2732.333568	3429.066667
2733.703302	3472.266667
2735.074376	3456.733333
2736.443643	3464.466667
2737.812676	3469.466667
2739.179903	3502.800000
2740.546896	3518.800000
2741.913657	3519.066667
2743.280185	3495.800000
2744.644909	3571.933333
2746.009400	3534.666667
2747.373659	3550.666667
2748.737687	3575.600000
2750.101482	3575.200000
2751.461905	3575.066667
2752.825237	3595.533333
2754.183627	3616.666667
2755.544927	3580.666667
2756.902857	3636.066667
2758.263695	3588.066667
2759.622733	3610.200000
2760.978403	3608.533333
2762.336982	3619.000000
2763.692193	3627.666667
2765.047175	3610.933333
2766.400360	3666.000000
2767.756452	3674.133333
2769.109180	3658.933333
2770.461679	3655.133333
2771.813951	3656.600000
2773.167560	3649.133333
2774.517808	3639.600000
2775.866263	3687.733333
2777.217622	3697.733333
2778.565622	3685.533333
2779.914961	3688.333333
2781.262507	3740.266667
2782.609827	3702.933333
2783.956919	3740.133333
2785.302221	3688.600000
2786.647297	3760.933333
2787.992147	3720.133333
2789.336771	3726.066667
2790.678043	3706.266667
2792.020652	3732.400000
2793.363037	3738.600000
2794.705196	3778.800000
2796.044006	3765.600000
2797.385716	3799.666667
2798.724077	3806.333333
2800.063776	3808.333333
2801.401689	3814.933333
2802.737818	3804.733333
2804.073724	3839.466667
2805.410967	3831.000000
2806.746425	3864.000000
2808.081661	3881.266667
2809.415115	3918.666667
2810.749905	3933.866667
2812.081354	3936.266667
2813.415699	3913.000000
2814.745146	3941.066667
2816.075930	3959.066667
2817.406492	3935.933333
2818.735275	3972.800000
2820.065395	3973.666667
2821.393736	3965.066667
2822.721855	3974.333333
2824.048198	4032.000000
2825.375876	4033.266667
2826.700222	4006.266667
2828.025904	4010.000000
2829.349810	3990.600000
2830.673496	4018.666667
2831.998518	3969.733333
2833.320211	4013.733333
2834.641685	4024.066667
2835.962939	4057.466667
2837.283975	4020.200000
2838.603239	4016.000000
2839.923838	4056.933333
2841.242665	4002.666667
2842.561274	4018.466667
2843.878113	4013.666667
2845.194734	4050.666667
2846.511138	4060.866667
2847.825772	4024.266667
2849.141741	4053.733333
2850.454391	4064.866667
2851.768375	4032.933333
2853.082143	4072.866667
2854.395694	4056.666667
2855.707479	4097.400000
2857.017497	4093.533333
2858.328850	4109.066667
2859.636888	4126.866667
2860.946260	4120.533333
2862.255417	4192.533333
2863.564359	4134.866667
2864.871538	4184.333333
2866.176953	4169.533333
2867.483703	4176.666667
2868.788691	4230.400000
2870.093464	4171.200000
2871.396477	4199.133333
2872.702370	4224.400000
2874.003409	4209.866667
2875.305781	4207.266667
2876.606395	4297.933333
2877.908341	4224.733333
2879.210075	4229.733333
2880.508505	4259.266667
2881.808268	4241.000000
2883.106274	4250.666667
2884.404068	4255.000000
2885.700105	4255.666667
2886.997476	4246.000000
2888.293092	4254.200000
2889.588496	4279.800000
2890.883689	4259.933333
2892.175585	4242.533333
2893.470356	4284.266667
2894.761832	4278.333333
2896.054640	4257.600000
2897.347238	4273.533333
2898.636541	4271.866667
2899.927178	4287.800000
2901.216063	4270.866667
2902.506280	4273.733333
2903.793206	4353.400000
2905.081464	4300.466667
2906.367973	4338.800000
2907.654273	4319.133333
2908.940365	4329.400000
2910.224709	4342.133333
2911.511925	4333.666667
2912.794314	4371.600000
2914.078035	4345.000000
2915.360009	4301.733333
2916.641777	4331.400000
2917.921799	4381.333333
2919.204691	4344.000000
2920.485838	4354.333333
2921.763703	4376.400000
2923.044437	4397.733333
2924.321890	4343.933333
2925.599138	4417.800000
2926.874643	4373.866667
2928.153016	4389.800000
2929.426575	4329.533333
2930.703001	4369.866667
2931.977685	4395.133333
2933.250630	4357.066667
2934.524906	4384.600000
2935.797441	4371.600000
2937.069773	4408.733333
2938.338832	4389.066667
2939.610756	4370.200000
2940.880942	4434.733333
2942.150924	4409.600000
2943.420703	4365.400000
2944.688746	4380.400000
2945.955052	4385.666667
2947.221156	4391.800000
2948.488591	4404.400000
2949.754290	4417.666667
2951.019788	4447.066667
2952.285083	4436.066667
2953.547113	4406.466667
2954.810473	4443.000000
2956.073632	4415.066667
2957.335058	4487.400000
2958.597815	4468.933333
2959.858839	4513.266667
2961.118133	4458.733333
2962.377226	4500.133333
2963.636120	4451.666667
2964.894812	4522.000000
2966.153305	4498.733333
2967.410069	4502.266667
2968.666634	4507.200000
2969.921470	4512.333333
2971.177636	4498.266667
2972.430547	4593.066667
2973.684786	4519.000000
2974.938827	4602.200000
2976.191142	4532.933333
2977.443259	4518.200000
2978.693651	4576.600000
2979.946898	4524.800000
2981.195368	4546.266667
2982.446693	4596.533333
2983.694768	4606.333333
2984.942646	4567.266667
2986.190328	4595.133333
2987.437812	4633.466667
2988.683575	4623.466667
2989.929141	4597.800000
2991.176036	4670.666667
2992.419686	4631.733333
2993.664663	4708.733333
2994.906398	4676.400000
2996.150984	4667.066667
2997.393851	4673.533333
2998.633477	4707.600000
2999.875953	4736.333333
3001.115189	4730.266667
3002.355753	4769.866667
3003.594600	4775.866667
3004.833253	4717.933333
3006.070190	4738.800000
3007.308455	4758.733333
3008.545004	4807.266667
3009.781360	4740.000000
3011.017522	4767.000000
3012.251970	4807.333333
3013.486225	4770.333333
3014.720287	4853.066667
3015.952637	4766.066667
3017.183275	4813.800000
3018.416759	4779.866667
3019.648532	4823.000000
3020.878593	4829.200000
3022.108463	4810.733333
3023.336623	4811.600000
3024.566110	4853.000000
3025.793887	4872.666667
3027.021473	4867.333333
3028.250385	4792.200000
3029.474555	4824.066667
3030.701568	4858.200000
3031.925358	4876.933333
3033.150473	4906.400000
3034.373883	4839.333333
3035.597102	4834.266667
3036.818616	4878.733333
3038.042971	4836.266667
3039.262591	4892.666667
3040.483537	4867.133333
3041.704293	4870.666667
3042.923347	4865.800000
3044.143725	4893.800000
3045.360887	4868.666667
3046.579374	4939.133333
3047.796160	4933.266667
3049.012757	4924.666667
3050.229167	4924.333333
3051.442363	4914.266667
3052.658397	4965.133333
3053.871219	4927.666667
3055.086878	4964.533333
3056.297814	4917.333333
3057.510076	4898.600000
3058.722150	4895.866667
3059.934038	4891.800000
3061.144229	4979.733333
3062.354233	4937.333333
3063.564051	4937.333333
3064.772173	4968.666667
3065.980110	4926.866667
3067.186351	4939.333333
3068.393917	4941.800000
3069.599788	4947.066667
3070.805474	4952.333333
3072.010976	5015.333333
3073.214784	4969.000000
3074.419916	4959.866667
3075.623355	5055.400000
3076.825102	4999.866667
3078.026666	4978.666667
3079.228046	5018.600000
3080.429242	5022.200000
3081.628748	4961.466667
3082.828071	5025.200000
3084.028717	4993.333333
3085.227673	5029.533333
3086.423434	5028.200000
3087.622025	5024.400000
3088.817422	5010.800000
3090.014143	5032.400000
3091.207671	5050.533333
3092.404027	5021.600000
3093.598696	4961.866667
3094.790175	5038.933333
3095.985986	5078.400000
3097.177102	5071.200000
3098.369542	5049.133333
3099.558793	5020.066667
3100.750871	5045.266667
3101.941265	5067.466667
3103.128473	5060.733333
3104.317003	5051.400000
3105.506856	5067.333333
3106.693524	5078.266667
3107.880013	5068.400000
3109.066323	5132.800000
3110.253954	5041.933333
3111.438403	5068.533333
3112.621173	5086.866667
3113.806765	5065.400000
3114.990678	5033.666667
3116.172911	5136.133333
3117.354967	5083.600000
3118.536844	5145.133333
3119.718543	5129.866667
3120.898565	5114.333333
3122.076910	5119.066667
3123.258075	5110.200000
3124.436065	5092.600000
3125.613878	5069.333333
3126.791514	5071.933333
3127.967475	5056.000000
3129.143260	5061.200000
3130.320365	5100.333333
3131.495797	5120.266667
3132.669555	5123.066667
3133.841640	5103.666667
3135.015046	5106.866667
3136.188277	5187.000000
3137.359836	5133.533333
3138.532715	5174.600000
3139.702427	5163.000000
3140.873460	5182.866667
3142.042822	5185.600000
3143.210515	5171.266667
3144.381023	5195.800000
3145.546872	5206.400000
3146.717031	5103.866667
3147.882532	5156.066667
3149.047860	5193.200000
3150.213014	5171.200000
3151.377995	5221.666667
3152.544295	5193.600000
3153.705942	5191.200000
3154.868910	5166.400000
3156.031705	5173.000000
3157.194326	5115.733333
3158.355283	5058.600000
3159.516068	5034.400000
3160.676680	5073.733333
3161.835628	5076.733333
3162.994405	5075.533333
3164.153009	5097.733333
3165.311442	5063.000000
3166.469703	5118.533333
3167.626303	5107.333333
3168.781241	5124.400000
3169.937498	5095.000000
3171.092094	5114.666667
3172.246520	5132.266667
3173.399285	5115.733333
3174.551881	5103.400000
3175.704307	5056.933333
3176.856562	5152.733333
3178.008648	5160.666667
3179.157587	5146.600000
3180.309333	5222.733333
3181.459422	5154.800000
3182.607853	5235.866667
3183.756116	5228.000000
3184.904210	5242.466667
3186.052135	5269.133333
3187.198404	5262.533333
3188.344505	5313.466667
3189.488952	5309.466667
3190.633230	5363.666667
3191.777341	5330.733333
3192.922770	5295.800000
3194.065060	5339.400000
3195.207182	5314.000000
3196.349138	5340.533333
3197.490926	5308.066667
3198.632547	5311.666667
3199.771033	5301.066667
3200.910836	5313.866667
3202.051956	5308.533333
3203.189943	5349.400000
3204.326279	5333.200000
3205.462451	5385.733333
3206.599939	5357.533333
3207.735779	5303.266667
3208.872936	5383.200000
3210.005480	5327.933333
3211.142305	5400.266667
3212.274520	5323.733333
3213.408051	5363.866667
3214.541417	5279.266667
3215.671657	5342.533333
3216.804694	5345.666667
3217.934605	5328.000000
3219.065832	5283.200000
3220.193934	5295.733333
3221.324834	5341.400000
3222.454089	5313.533333
3223.581701	5331.000000
3224.706190	5322.066667
3225.834955	5368.333333
3226.960598	5349.866667
3228.086078	5368.733333
3229.209917	5389.533333
3230.336551	5372.533333
3231.458587	5406.866667
3232.581939	5394.066667
3233.705128	5398.200000
3234.828156	5380.933333
3235.949544	5383.866667
3237.070771	5390.800000
3238.190359	5447.733333
3239.309786	5401.000000
3240.427576	5479.533333
3241.548157	5432.600000
3242.665625	5519.200000
3243.782932	5541.733333
3244.900079	5575.333333
3246.015589	5589.533333
3247.132415	5613.600000
3248.246130	5616.866667
3249.362636	5647.400000
3250.477506	5607.066667
3251.589268	5695.200000
3252.700871	5676.933333
3253.813789	5650.200000
3254.926547	5623.866667
3256.036199	5651.666667
3257.147166	5673.866667
3258.257974	5647.333333
3259.367150	5645.133333
3260.474695	5678.533333
3261.583555	5603.933333
3262.692256	5677.533333
3263.797855	5657.400000
3264.904769	5682.800000
3266.010053	5700.600000
3267.116651	5756.533333
3268.220149	5739.800000
3269.324961	5719.066667
3270.429616	5719.533333
3271.531173	5713.266667
3272.632573	5762.333333
3273.735287	5789.933333
3274.837845	5730.133333
3275.937306	5771.600000
3277.039551	5776.866667
3278.138700	5756.800000
3279.236224	5796.933333
3280.333594	5797.066667
3281.433745	5747.933333
3282.530804	5790.466667
3283.627707	5752.266667
3284.724455	5805.000000
3285.816644	5769.533333
3286.913083	5756.600000
3288.007899	5722.066667
3289.102560	5811.466667
3290.195600	5693.066667
3291.288486	5768.800000
3292.379751	5728.866667
3293.472329	5747.066667
3294.563287	5814.333333
3295.652625	5774.866667
3296.741810	5746.600000
3297.832307	5747.800000
3298.919721	5741.533333
3300.006981	5747.466667
3301.095554	5771.466667
3302.183974	5808.600000
3303.267848	5761.600000
3304.355963	5793.333333
3305.440996	5782.333333
3306.524414	5823.733333
3307.609144	5725.066667
3308.692258	5836.333333
3309.776684	5823.333333
3310.858033	5837.200000
3311.940693	5867.733333
3313.021738	5822.400000
3314.102633	5896.200000
3315.181915	5786.533333
3316.261046	5860.466667
3317.341489	5823.133333
3318.418857	5862.733333
3319.497537	5877.133333
3320.574605	5894.600000
3321.651523	5877.266667
3322.726831	5852.533333
3323.801989	5873.466667
3324.878458	5883.266667
3325.951857	5849.666667
3327.025106	5866.000000
3328.099667	5902.066667
3329.172619	5878.266667
3330.243962	5880.466667
3331.316616	5847.466667
3332.386203	5837.000000
3333.457101	5827.333333
3334.526393	5801.266667
3335.596994	5864.333333
3336.665989	5848.733333
3337.733379	5846.866667
3338.799163	5809.666667
3339.869173	5828.866667
3340.936120	5844.733333
3342.000005	5827.533333
3343.066657	5807.400000
3344.131706	5782.533333
3345.195151	5826.333333
3346.258450	5817.533333
3347.321602	5831.066667
3348.384608	5807.733333
3349.447468	5803.600000
3350.508725	5836.533333
3351.566926	5802.466667
3352.629348	5836.333333
3353.688714	5859.200000
3354.747934	5872.600000
3355.808463	5806.800000
3356.864484	5867.533333
3357.923268	5858.000000
3358.977545	5895.466667
3360.034586	5889.866667
3361.090028	5895.600000
3362.146780	5867.933333
3363.201933	5854.266667
3364.255489	5925.666667
3365.307448	5876.533333
3366.362170	5894.066667
3367.413842	5853.133333
3368.465370	5928.466667
3369.518208	5937.466667
3370.567998	5953.800000
3371.619097	5971.266667
3372.667149	5889.200000
3373.717962	5881.600000
3374.765729	5953.200000
3375.813354	5911.666667
3376.860837	5978.866667
3377.906727	5954.000000
3378.953925	5930.266667
3379.998080	5991.266667
3381.044995	5937.066667
3382.090317	5984.666667
3383.132598	5949.066667
3384.174738	5960.266667
3385.218187	5979.066667
3386.261494	5924.533333
3387.303211	5946.000000
3388.344788	5930.600000
3389.386223	5940.933333
3390.426070	5963.200000
3391.464328	5947.200000
3392.503894	5995.666667
3393.543320	5966.600000
3394.581158	5959.866667
3395.617409	5964.733333
3396.653520	5949.800000
3397.690939	5963.733333
3398.725325	5954.066667
3399.761019	5927.600000
3400.796573	5959.600000
3401.829095	5926.800000
3402.864371	5955.333333
3403.896617	5959.933333
3404.928723	5967.866667
3405.959247	6013.333333
3406.991077	5966.400000
3408.022769	5963.133333
3409.051433	5998.800000
3410.079960	5940.466667
3411.109793	5989.000000
3412.139489	6002.333333
3413.166159	5970.266667
3414.194135	5971.600000
3415.219087	5973.666667
3416.246790	5979.333333
3417.271468	6015.200000
3418.297453	5986.200000
3419.321859	5996.666667
3420.346128	6010.066667
3421.368818	6023.866667
3422.391372	5970.400000
3423.415232	5980.533333
3424.436072	6000.266667
3425.456776	5967.333333
3426.478786	5983.600000
3427.497778	5879.200000
3428.516635	5919.666667
3429.536798	5928.333333
3430.553944	5961.066667
