-117.790675	127.000000
-115.121075	28.000000
-112.454410	100.000000
-109.788497	72.000000
-107.125516	126.000000
-104.461106	58.000000
-101.799626	36.000000
-99.136716	78.000000
-96.478914	-5.000000
-93.819681	9.000000
-91.161197	113.000000
-88.505638	64.000000
-85.848650	95.000000
-83.196759	56.000000
-80.543439	34.000000
-77.893039	125.000000
-75.241209	87.000000
-72.594470	102.000000
-69.946301	31.000000
-67.298876	113.000000
-64.654364	102.000000
-62.008424	38.000000
-59.367565	129.000000
-56.725277	160.000000
-54.085897	22.000000
-51.445089	176.000000
-48.805021	119.000000
-46.170025	125.000000
-43.533600	87.000000
-40.900079	103.000000
-38.265129	98.000000
-35.635244	112.000000
-33.001767	176.000000
-30.373352	242.000000
-27.745670	145.000000
-25.116561	268.000000
-22.492508	297.000000
-19.864866	447.000000
-17.242277	486.000000
-14.620419	843.000000
-11.999293	1485.000000
-9.378896	3579.000000
-6.761387	12431.000000
-4.142450	42708.000000
-1.526399	64161.000000
1.088924	64168.000000
3.703520	64138.000000
6.315233	6902.000000
8.928375	994.000000
11.536483	732.000000
14.148173	516.000000
16.754832	369.000000
19.362919	282.000000
21.970282	294.000000
24.572620	194.000000
27.178536	227.000000
29.779430	168.000000
32.381753	171.000000
34.979057	112.000000
37.579937	223.000000
40.175803	91.000000
42.773096	143.000000
45.369670	113.000000
47.961235	92.000000
50.554228	171.000000
53.144360	164.000000
55.735920	55.000000
58.324620	111.000000
60.914747	92.000000
63.499876	140.000000
66.086432	142.000000
68.672273	170.000000
71.255261	111.000000
73.839676	214.000000
76.416961	163.000000
78.997813	205.000000
81.575816	64.000000
84.153109	178.000000
86.731828	115.000000
89.305566	118.000000
91.880730	74.000000
94.453051	198.000000
97.024664	107.000000
99.593438	188.000000
102.163638	181.000000
104.730999	164.000000
107.299787	135.000000
109.865737	206.000000
112.428853	208.000000
114.995525	341.000000
117.552976	441.000000
120.116112	582.000000
122.674289	676.000000
125.236019	1047.000000
127.792794	1486.000000
130.350994	2279.000000
132.904242	3204.000000
135.456791	4951.000000
138.012891	6719.000000
140.564044	8954.000000
143.114498	11337.000000
145.664256	12881.000000
148.211194	14371.000000
150.757436	14990.000000
153.305105	15506.000000
155.852077	15919.000000
158.394113	15566.000000
160.935456	15410.000000
163.476107	15388.000000
166.018182	15288.000000
168.557447	15141.000000
171.093902	15331.000000
173.629667	15402.000000
176.166857	14713.000000
178.703355	14386.000000
181.237048	14551.000000
183.767938	14209.000000
186.298139	14440.000000
188.829765	14424.000000
191.358590	14488.000000
193.884616	13955.000000
196.409957	14473.000000
198.936722	14465.000000
201.460691	14347.000000
203.983974	14574.000000
206.506573	14770.000000
209.026379	14506.000000
211.545502	14601.000000
214.063942	14499.000000
216.583806	14763.000000
219.096669	14640.000000
221.613063	15033.000000
224.128775	15142.000000
226.639598	15866.000000
229.151845	16033.000000
231.661309	16281.000000
234.170095	16210.000000
236.678203	16362.000000
239.187734	16283.000000
241.692386	15913.000000
244.196361	16178.000000
246.701760	15818.000000
249.202284	15808.000000
251.706331	15702.000000
254.203408	15546.000000
256.704007	15777.000000
259.201835	15774.000000
261.698990	15786.000000
264.195472	15874.000000
266.687092	16218.000000
269.182230	16582.000000
271.674603	16362.000000
274.166305	16582.000000
276.655244	16535.000000
279.145606	16648.000000
281.633207	16527.000000
284.118048	16887.000000
286.606403	17078.000000
289.087819	17531.000000
291.572749	17690.000000
294.052834	17901.000000
296.536431	18624.000000
299.015185	18839.000000
301.495363	19544.000000
303.972788	19616.000000
306.449550	18941.000000
308.925649	18053.000000
311.398999	17572.000000
313.871687	17321.000000
316.343714	16979.000000
318.815080	17120.000000
321.283702	17251.000000
323.751664	16543.000000
326.221049	16123.000000
328.685611	15597.000000
331.153676	15298.000000
333.616922	14743.000000
336.079511	14724.000000
338.541442	14555.000000
341.002717	14485.000000
343.461258	14239.000000
345.921221	14226.000000
348.378452	13908.000000
350.835027	13690.000000
353.290949	13562.000000
355.744142	13680.000000
358.198756	13345.000000
360.648569	13127.000000
363.101879	12732.000000
365.550389	12587.000000
367.998249	12459.000000
370.447530	12551.000000
372.892018	12243.000000
375.337928	12203.000000
377.783189	11935.000000
380.225731	12356.000000
382.667625	11877.000000
385.108871	11868.000000
387.547402	11803.000000
389.987355	11514.000000
392.424594	11550.000000
394.859121	11347.000000
397.297136	11248.000000
399.730374	11264.000000
402.165034	10956.000000
404.594920	10972.000000
407.028292	11033.000000
409.456894	10999.000000
411.884855	10638.000000
414.314236	10640.000000
416.738852	10429.000000
419.164890	10535.000000
421.590287	10263.000000
424.015044	10438.000000
426.435043	10067.000000
428.856463	10317.000000
431.275186	10019.000000
433.695330	10142.000000
436.112779	9633.000000
438.531648	9232.000000
440.947824	9180.000000
443.359253	8822.000000
445.774158	8697.000000
448.186373	8493.000000
450.597954	8219.000000
453.008901	8115.000000
455.417162	7732.000000
457.824790	7515.000000
460.231787	7420.000000
462.638151	7476.000000
465.041833	7399.000000
467.444885	7498.000000
469.847307	7385.000000
472.249100	7404.000000
474.648214	7566.000000
477.048748	7804.000000
479.448653	7743.000000
481.843835	8083.000000
484.242484	8136.000000
486.636413	8602.000000
489.029716	8987.000000
491.422393	9800.000000
493.814445	10837.000000
496.207916	12282.000000
498.596674	14438.000000
500.982766	18168.000000
503.370278	23112.000000
505.757166	32655.000000
508.141391	45930.000000
510.527035	60817.000000
512.910016	64308.000000
515.290337	64300.000000
517.672077	64087.000000
520.051158	64102.000000
522.431658	64253.000000
524.809500	64348.000000
527.184687	64217.000000
529.559256	61516.000000
531.935244	56414.000000
534.308578	50252.000000
536.683331	44043.000000
539.053397	39778.000000
541.422848	36887.000000
543.793718	33507.000000
546.159906	31216.000000
548.527513	29014.000000
550.892474	27375.000000
553.256822	26044.000000
555.620558	24683.000000
557.985711	23968.000000
560.346191	22307.000000
562.708090	21940.000000
565.067349	20744.000000
567.423969	19534.000000
569.784034	19093.000000
572.137409	18210.000000
574.494228	17744.000000
576.848411	17058.000000
579.201987	16609.000000
581.554954	15809.000000
583.905290	15117.000000
586.257042	14626.000000
588.602118	14428.000000
590.952658	14075.000000
593.296525	14018.000000
595.645852	13701.000000
597.990532	13395.000000
600.332587	13578.000000
602.676058	12935.000000
605.016907	13211.000000
607.357154	13572.000000
609.694780	13656.000000
612.035841	14186.000000
614.372265	14748.000000
616.710105	15367.000000
619.045327	15290.000000
621.377934	14370.000000
623.711958	13953.000000
626.043367	13167.000000
628.374178	12770.000000
630.704391	12662.000000
633.034006	12462.000000
635.358999	12464.000000
637.689433	12216.000000
640.015245	12352.000000
642.338451	12147.000000
644.663072	12113.000000
646.985089	11930.000000
649.306511	11623.000000
651.625330	11901.000000
653.945565	11833.000000
656.265207	11761.000000
658.582248	11821.000000
660.898698	11866.000000
663.212549	11800.000000
665.527815	11961.000000
667.840485	11692.000000
670.154570	11525.000000
672.464055	11595.000000
674.774956	11771.000000
677.083264	11080.000000
679.390984	11351.000000
681.700119	10938.000000
684.004661	10686.000000
686.308617	10549.000000
688.611986	10475.000000
690.916770	10181.000000
693.216968	9968.000000
695.518581	9880.000000
697.819608	9867.000000
700.116053	9851.000000
702.413914	9389.000000
704.711191	9258.000000
707.007885	9091.000000
709.300003	9103.000000
711.595532	8832.000000
713.886488	9018.000000
716.178858	9197.000000
718.468652	9129.000000
720.757867	9084.000000
723.046501	8965.000000
725.332564	8604.000000
727.620040	8538.000000
729.904946	8765.000000
732.189273	8340.000000
734.471032	8641.000000
736.754206	8397.000000
739.036801	8392.000000
741.314842	8120.000000
743.594296	8376.000000
745.873175	8444.000000
748.151478	8327.000000
750.425232	8286.000000
752.700400	8158.000000
754.974994	8170.000000
757.247029	8089.000000
759.520476	8281.000000
761.791366	8247.000000
764.059700	8190.000000
766.329447	8099.000000
768.596640	8198.000000
770.863262	8267.000000
773.129315	8291.000000
775.392815	8304.000000
777.657729	8297.000000
779.922073	8409.000000
782.181888	8123.000000
784.443116	8336.000000
786.703776	8571.000000
788.961889	8291.000000
791.217458	8380.000000
793.476418	8678.000000
795.728879	8443.000000
797.986707	8558.000000
800.240015	8479.000000
802.490784	8461.000000
804.742965	8322.000000
806.992608	8448.000000
809.243662	8522.000000
811.490205	8424.000000
813.738161	8626.000000
815.983581	8543.000000
818.230413	8266.000000
820.476684	8440.000000
822.718451	8419.000000
824.963600	8523.000000
827.202277	8493.000000
829.444337	8471.000000
831.681898	8484.000000
833.920870	8340.000000
836.157316	8333.000000
838.395174	8157.000000
840.630506	8005.000000
842.863314	8178.000000
845.097534	8051.000000
847.329232	8089.000000
849.560375	7756.000000
851.790963	7811.000000
854.020997	7835.000000
856.250476	7676.000000
858.475474	7678.000000
860.703847	7455.000000
862.927741	7323.000000
865.153045	7426.000000
867.373874	7441.000000
869.598075	7441.000000
871.817803	7523.000000
874.038942	7400.000000
876.259530	7558.000000
878.477608	7321.000000
880.697097	7296.000000
882.912119	7400.000000
885.126593	7293.000000
887.340520	7306.000000
889.553899	7228.000000
891.766732	7414.000000
893.979017	7305.000000
896.188801	7169.000000
898.398039	7257.000000
900.606731	7413.000000
902.812925	7389.000000
905.020528	7411.000000
907.225634	7420.000000
909.430196	7765.000000
911.632262	7850.000000
913.835738	8157.000000
916.036720	8253.000000
918.237161	8499.000000
920.439010	8878.000000
922.634467	9256.000000
924.833284	9786.000000
927.027663	10655.000000
929.225398	11987.000000
931.418698	13333.000000
933.613407	14855.000000
935.805630	16553.000000
937.997315	18289.000000
940.188462	19010.000000
942.377126	18584.000000
944.565253	19172.000000
946.750900	19004.000000
948.939899	18825.000000
951.124475	18803.000000
953.308516	19107.000000
955.495907	19306.000000
957.674995	19333.000000
959.857432	19492.000000
962.039336	19532.000000
964.218766	19731.000000
966.395723	20216.000000
968.574088	20068.000000
970.753859	20264.000000
972.927282	20466.000000
975.104051	20230.000000
977.276414	19924.000000
979.450183	19812.000000
981.619549	18627.000000
983.792260	17899.000000
985.962504	16731.000000
988.132220	15078.000000
990.301407	13760.000000
992.466197	12670.000000
994.634328	11969.000000
996.798065	11224.000000
998.963208	10670.000000
1001.125893	10364.000000
1003.288051	9760.000000
1005.447753	9487.000000
1007.606931	9110.000000
1009.767515	8739.000000
1011.925644	8385.000000
1014.083249	8279.000000
1016.240331	8157.000000
1018.396890	7854.000000
1020.549069	7507.000000
1022.702654	7369.000000
1024.855718	7319.000000
1027.006334	7093.000000
1029.158355	6958.000000
1031.306003	6860.000000
1033.456983	6724.000000
1035.603592	6640.000000
1037.749683	6514.000000
1039.895254	6476.000000
1042.042231	6392.000000
1044.182920	6423.000000
1046.326937	6443.000000
1048.468514	6452.000000
1050.609575	6287.000000
1052.752040	6368.000000
1054.888226	6471.000000
1057.027738	6426.000000
1059.162894	6249.000000
1061.301375	6358.000000
1063.435503	6321.000000
1065.569116	6328.000000
1067.704135	6355.000000
1069.834804	6037.000000
1071.966878	6154.000000
1074.096523	6207.000000
1076.225656	6174.000000
1078.354277	6202.000000
1080.482387	6008.000000
1082.608071	6213.000000
1084.733245	6177.000000
1086.859823	6099.000000
1088.982064	5999.000000
1091.105708	6026.000000
1093.225019	6040.000000
1095.349558	6037.000000
1097.467852	6079.000000
1099.587551	6002.000000
1101.704831	6126.000000
1103.821605	6012.000000
1105.937872	5968.000000
1108.051724	5882.000000
1110.166979	5822.000000
1112.277912	5934.000000
1114.392156	5834.000000
1116.502080	6025.000000
1118.613408	5875.000000
1120.724232	5765.000000
1122.830739	5856.000000
1124.940555	5775.000000
1127.046057	5584.000000
1129.152962	5560.000000
1131.253652	5580.000000
1133.359554	5604.000000
1135.461147	5577.000000
1137.564143	5430.000000
1139.666638	5382.000000
1141.762927	5359.000000
1143.864422	5376.000000
1145.961615	5435.000000
1148.058309	5548.000000
1150.154506	5404.000000
1152.250204	5431.000000
1154.345405	5321.000000
1156.438209	5495.000000
1158.532415	5205.000000
1160.620430	5321.000000
1162.713643	5292.000000
1164.800668	5396.000000
1166.890993	5194.000000
1168.977029	5368.000000
1171.066363	5321.000000
1173.149516	5334.000000
1175.234072	5251.000000
1177.320028	5186.000000
1179.401703	5351.000000
1181.484780	5128.000000
1183.565471	5341.000000
1185.645670	5269.000000
1187.725378	5219.000000
1189.804595	5275.000000
1191.881430	5248.000000
1193.955884	5128.000000
1196.033630	5187.000000
1198.107105	4887.000000
1200.181981	5000.000000
1202.252590	4990.000000
1204.324601	4935.000000
1206.394235	5059.000000
1208.465270	4992.000000
1210.535817	5076.000000
1212.602103	5032.000000
1214.669790	4947.000000
1216.735105	4972.000000
1218.801820	4767.000000
1220.864279	5004.000000
1222.930023	5060.000000
1224.991514	5242.000000
1227.054404	5310.000000
1229.114927	5476.000000
1231.174967	5213.000000
1233.234523	5176.000000
1235.291714	5217.000000
1237.348424	5096.000000
1239.402771	5038.000000
1241.460398	5077.000000
1243.515663	5198.000000
1245.566687	5065.000000
1247.619111	4852.000000
1249.671055	4949.000000
1251.720641	4994.000000
1253.769748	5057.000000
1255.818377	5216.000000
1257.866527	5092.000000
1259.914199	5160.000000
1261.957640	5311.000000
1264.004356	5136.000000
1266.048720	5218.000000
1268.092606	4849.000000
1270.134142	5220.000000
1272.173328	4835.000000
1274.215786	5003.000000
1276.254022	4826.000000
1278.293657	4951.000000
1280.332817	4886.000000
1282.367759	5094.000000
1284.404099	4939.000000
1286.438094	5085.000000
1288.473488	4971.000000
1290.504668	4846.000000
1292.537247	5062.000000
1294.569353	4932.000000
1296.599119	4888.000000
1298.630283	4890.000000
1300.657239	4796.000000
1302.685593	4779.000000
1304.709743	4880.000000
1306.737157	4728.000000
1308.760370	4777.000000
1310.784979	4543.000000
1312.807255	4801.000000
1314.830928	4541.000000
1316.852268	4716.000000
1318.873140	4659.000000
1320.893546	4531.000000
1322.909757	4701.000000
1324.927367	4640.000000
1326.942648	4765.000000
1328.961188	4987.000000
1330.975538	5242.000000
1332.987563	5288.000000
1335.002845	5470.000000
1337.013942	5680.000000
1339.026436	5816.000000
1341.034747	5965.000000
1343.046314	5987.000000
1345.051841	6187.000000
1347.060624	6050.000000
1349.065229	5873.000000
1351.073088	5909.000000
1353.080485	5697.000000
1355.081851	5554.000000
1357.084614	5326.000000
1359.086916	5289.000000
1361.088759	5360.000000
1363.090143	5119.000000
1365.089212	5097.000000
1367.087823	5102.000000
1369.085976	4936.000000
1371.083671	4903.000000
1373.077202	4913.000000
1375.072130	4805.000000
1377.066601	4690.000000
1379.060615	4846.000000
1381.052322	4751.000000
1383.043573	4827.000000
1385.032519	4628.000000
1387.022860	4852.000000
1389.012746	4776.000000
1391.000329	4666.000000
1392.987458	4649.000000
1394.972285	4615.000000
1396.958506	4506.000000
1398.942428	4418.000000
1400.925897	4600.000000
1402.908914	4513.000000
1404.889633	4633.000000
1406.871746	4540.000000
1408.851562	4495.000000
1410.830928	4393.000000
1412.806154	4416.000000
1414.784620	4419.000000
1416.760792	4332.000000
1418.736514	4378.000000
1420.711787	4412.000000
1422.684769	4294.000000
1424.657303	4153.000000
1426.629390	4218.000000
1428.601028	4231.000000
1430.568538	4308.000000
1432.541123	4390.000000
1434.505901	4345.000000
1436.475752	4368.000000
1438.441478	4422.000000
1440.408598	4545.000000
1442.373433	4420.000000
1444.334150	4548.000000
1446.299934	4486.000000
1448.259763	4400.000000
1450.220985	4461.000000
1452.183600	4505.000000
1454.142100	4545.000000
1456.100158	4453.000000
1458.057773	4377.000000
1460.014947	4428.000000
1461.969845	4337.000000
1463.926135	4176.000000
1465.880151	4187.000000
1467.833727	4164.000000
1469.785030	4135.000000
1471.737725	4192.000000
1473.688149	4116.000000
1475.638134	4093.000000
1477.587679	3987.000000
1479.534956	4215.000000
1481.479966	4143.000000
1483.426367	3991.000000
1485.372332	4197.000000
1487.317858	4111.000000
1489.261120	4176.000000
1491.203945	4229.000000
1493.144507	4172.000000
1495.086460	4000.000000
1497.026152	4234.000000
1498.965408	4111.000000
1500.904230	4185.000000
1502.840791	4184.000000
1504.778744	4409.000000
1506.714439	4182.000000
1508.649700	4354.000000
1510.582704	4140.000000
1512.515276	4278.000000
1514.447416	4260.000000
1516.379124	4291.000000
1518.308578	4397.000000
1520.239423	4162.000000
1522.169837	4056.000000
1524.096178	4431.000000
1526.023909	4375.000000
1527.949390	4403.000000
1529.874442	4287.000000
1531.799065	4406.000000
1533.723259	4391.000000
1535.645206	4476.000000
1537.568542	4409.000000
1539.489633	4532.000000
1541.408479	4566.000000
1543.328715	4776.000000
1545.246707	4825.000000
1547.164273	4791.000000
1549.079597	5160.000000
1550.996311	5117.000000
1552.908970	5298.000000
1554.824833	5549.000000
1556.738456	5545.000000
1558.649842	5660.000000
1560.562616	5966.000000
1562.471341	6339.000000
1564.381456	6710.000000
1566.291147	7335.000000
1568.200414	7906.000000
1570.107448	8566.000000
1572.012249	9531.000000
1573.918439	11232.000000
1575.822397	12363.000000
1577.725935	13966.000000
1579.629051	15738.000000
1581.529939	17252.000000
1583.432214	18745.000000
1585.332262	19490.000000
1587.233698	18526.000000
1589.131099	16494.000000
1591.028082	14281.000000
1592.924647	11965.000000
1594.822600	10372.000000
1596.714718	9148.000000
1598.610029	7987.000000
1600.504923	7061.000000
1602.397595	6704.000000
1604.289851	6155.000000
1606.179887	5965.000000
1608.069507	5558.000000
1609.958712	5390.000000
1611.847501	5263.000000
1613.734074	5055.000000
1615.622033	5125.000000
1617.505976	5000.000000
1619.391307	4984.000000
1621.276223	4727.000000
1623.158927	4644.000000
1625.043016	4768.000000
1626.923095	4675.000000
1628.804560	4475.000000
1630.683815	4458.000000
1632.564456	4162.000000
1634.439293	4000.000000
1636.319112	3881.000000
1638.194925	3786.000000
1640.070328	3925.000000
1641.947118	3898.000000
1643.818110	3901.000000
1645.692284	3753.000000
1647.562460	3891.000000
1649.435816	3833.000000
1651.306969	3750.000000
1653.175920	3787.000000
1655.046257	3640.000000
1656.912600	3580.000000
1658.780329	3602.000000
1660.645860	3564.000000
1662.512775	3417.000000
1664.375702	3533.000000
1666.240014	3379.000000
1668.102130	3421.000000
1669.963842	3366.000000
1671.826938	3397.000000
1673.687840	3312.000000
1675.546548	3228.000000
1677.404853	3180.000000
1679.264543	3357.000000
1681.118466	3062.000000
1682.975561	3206.000000
1684.832254	3150.000000
1686.684971	3097.000000
1688.540859	3108.000000
1690.392772	2949.000000
1692.244285	2982.000000
1694.095397	3045.000000
1695.946109	3000.000000
1697.796420	3241.000000
1699.644547	3132.000000
1701.494057	3077.000000
1703.337819	3122.000000
1705.186531	3050.000000
1707.029496	3004.000000
1708.875627	3025.000000
1710.717797	2968.000000
1712.563131	2983.000000
1714.402725	2974.000000
1716.243703	3093.000000
1718.086064	3056.000000
1719.924469	3092.000000
1721.764257	3015.000000
1723.601870	3093.000000
1725.439087	2980.000000
1727.274131	3244.000000
1729.110558	3115.000000
1730.944813	3034.000000
1732.778673	3030.000000
1734.612140	3072.000000
1736.441660	3022.000000
1738.274339	3040.000000
1740.103074	3106.000000
1741.934967	2984.000000
1743.762917	2986.000000
1745.590475	2949.000000
1747.417641	3002.000000
1749.244416	3050.000000
1751.070800	2889.000000
1752.893247	2924.000000
1754.718848	3064.000000
1756.540515	3022.000000
1758.363564	2862.000000
1760.184452	2911.000000
1762.004950	2953.000000
1763.826830	3038.000000
1765.643010	2939.000000
1767.462342	2996.000000
1769.277747	2941.000000
1771.096302	2955.000000
1772.910932	2897.000000
1774.725176	2924.000000
1776.539032	2867.000000
1778.352502	2907.000000
1780.163819	2789.000000
1781.976517	2919.000000
1783.788828	2857.000000
1785.597222	2892.000000
1787.406997	2899.000000
1789.212856	2987.000000
1791.021862	2799.000000
1792.826954	2821.000000
1794.633426	2789.000000
1796.439515	2950.000000
1798.241694	2923.000000
1800.047016	2870.000000
1801.848430	2700.000000
1803.651224	2913.000000
1805.450112	2875.000000
1807.250381	2964.000000
1809.050268	2852.000000
1810.848014	2917.000000
1812.645379	2850.000000
1814.442363	2916.000000
1816.238967	2931.000000
1818.033432	2867.000000
1819.829276	2894.000000
1821.619466	2905.000000
1823.414552	2969.000000
1825.203985	3024.000000
1826.996555	2879.000000
1828.786990	2971.000000
1830.575291	2974.000000
1832.366727	3023.000000
1834.152517	2877.000000
1835.939687	2942.000000
1837.724725	3069.000000
1839.512897	3134.000000
1841.297183	2997.000000
1843.079340	3023.000000
1844.862875	2922.000000
1846.644282	2947.000000
1848.427068	2958.000000
1850.205974	3067.000000
1851.986258	3125.000000
1853.764416	2983.000000
1855.543953	2977.000000
1857.321365	3052.000000
1859.096653	2965.000000
1860.873320	2979.000000
1862.647864	2933.000000
1864.423785	2919.000000
1866.194087	2917.000000
1867.967515	2875.000000
1869.738824	2855.000000
1871.509763	2913.000000
1873.282078	2845.000000
1875.048781	2915.000000
1876.818608	2885.000000
1878.584572	2912.000000
1880.353660	2796.000000
1882.118886	2927.000000
1883.883744	2787.000000
1885.649978	2751.000000
1887.412354	2736.000000
1889.174363	2772.000000
1890.936005	2801.000000
1892.697279	2714.000000
1894.458186	2697.000000
1896.218727	2808.000000
1897.977158	2749.000000
1899.735224	2739.000000
1901.491181	2814.000000
1903.248516	2779.000000
1905.005484	2585.000000
1906.760347	2531.000000
1908.513104	2567.000000
1910.265498	2577.000000
1912.019267	2649.000000
1913.770933	2577.000000
1915.520497	2711.000000
1917.271437	2788.000000
1919.022013	2498.000000
1920.768751	2719.000000
1922.516864	2700.000000
1924.262878	2712.000000
1926.010268	2714.000000
1927.755559	2734.000000
1929.498753	2745.000000
1931.243323	2719.000000
1932.985796	2790.000000
1934.727909	2758.000000
1936.469662	2734.000000
1938.211056	2643.000000
1939.950356	2621.000000
1941.689297	2783.000000
1943.427879	2665.000000
1945.164369	2530.000000
1946.900502	2561.500000
1948.638009	2593.000000
1950.371695	2601.000000
1952.106754	2599.000000
1953.839726	2577.000000
1955.572341	2582.000000
1957.304599	2548.000000
1959.036501	2573.000000
1960.766317	2627.000000
1962.494049	2623.000000
1964.223154	2600.000000
1965.951905	2633.000000
1967.678572	2498.000000
1969.404885	2680.000000
1971.132571	2671.000000
1972.854721	2538.000000
1974.579972	2642.000000
1976.301417	2652.000000
1978.025961	2588.000000
1979.748426	2610.000000
1981.467087	2705.000000
1983.188847	2682.000000
1984.906805	2731.000000
1986.626137	2645.000000
1988.341668	2584.000000
1990.062021	2529.000000
1991.778574	2583.000000
1993.491332	2730.000000
1995.207185	2774.000000
1996.920965	2681.000000
1998.634396	2614.000000
2000.345756	2654.000000
2002.058489	2582.000000
2003.767430	2559.000000
2005.479465	2662.000000
2007.185990	2627.000000
2008.895608	2637.000000
2010.603158	2657.000000
2012.310361	2669.000000
2014.015498	2742.000000
2015.720288	2525.000000
2017.426450	2511.000000
2019.128830	2604.000000
2020.832582	2667.000000
2022.534270	2498.000000
2024.235614	2569.000000
2025.936612	2569.000000
2027.635550	2551.000000
2029.335858	2593.000000
2031.032392	2513.000000
2032.730297	2480.000000
2034.426144	2659.000000
2036.125075	2519.000000
2037.818521	2427.000000
2039.513339	2570.000000
2041.207813	2482.000000
2042.898519	2523.000000
2044.592309	2634.000000
2046.282332	2473.000000
2047.973726	2442.000000
2049.663067	2369.000000
2051.353778	2544.000000
2053.040727	2547.000000
2054.727335	2511.000000
2056.415314	2439.000000
2058.099533	2455.000000
2059.785122	2308.000000
2061.470372	2526.000000
2063.153574	2381.000000
2064.838145	2372.000000
2066.517254	2387.000000
2068.201148	2373.000000
2069.879582	2364.000000
2071.561092	2427.000000
2073.238852	2377.000000
2074.916274	2544.000000
2076.595067	2404.000000
2078.271816	2392.000000
2079.946524	2423.000000
2081.622601	2329.000000
2083.296638	2240.000000
2084.970339	2432.000000
2086.643705	2390.000000
2088.315033	2300.000000
2089.986026	2518.000000
2091.656685	2495.000000
2093.327009	2294.000000
2094.997000	2573.000000
2096.664955	2426.000000
2098.332577	2398.000000
2099.998165	2313.000000
2101.665121	2327.000000
2103.330044	2336.000000
2104.994634	2321.000000
2106.657193	2315.000000
2108.321120	2365.000000
2109.983017	2267.000000
2111.644582	2279.000000
2113.305817	2330.000000
2114.965022	2338.000000
2116.623898	2326.000000
2118.282443	2340.000000
2119.940659	2315.000000
2121.595151	2240.000000
2123.252708	2356.000000
2124.909936	2289.000000
2126.563442	2301.000000
2128.218316	2400.000000
2129.869472	2267.000000
2131.523689	2214.000000
2133.174190	2242.000000
2134.826057	2419.000000
2136.472516	2223.000000
2138.123730	2110.000000
2139.771230	2337.000000
2141.420097	2381.000000
2143.066946	2275.000000
2144.713468	2412.000000
2146.359665	2225.000000
2148.002154	2285.000000
2149.647701	2236.000000
2151.289541	2428.000000
2152.934438	2280.000000
2154.575630	2461.000000
2156.216498	2310.000000
2157.857043	2467.000000
2159.495575	2459.000000
2161.135473	2307.000000
2162.771671	2514.000000
2164.409235	2241.000000
2166.046476	2421.000000
2167.681708	2314.000000
2169.316619	2297.000000
2170.951208	2485.000000
2172.585475	2434.000000
2174.216050	2235.000000
2175.849675	2225.000000
2177.479609	2247.000000
2179.110908	2256.000000
2180.740203	2416.000000
2182.369177	2199.000000
2183.997833	2311.000000
2185.626169	2355.000000
2187.252502	2310.000000
2188.878517	2312.000000
2190.502531	2434.000000
2192.127909	2273.000000
2193.751288	2262.000000
2195.376030	2217.000000
2196.997092	2320.000000
2198.617837	2334.000000
2200.239947	2271.000000
2201.860059	2337.000000
2203.478174	2395.000000
2205.095974	2127.000000
2206.713459	2357.000000
2208.330628	2307.000000
2209.947482	2287.000000
2211.564021	2335.000000
2213.178566	2290.000000
2214.791119	2230.000000
2216.405036	2222.000000
2218.016962	2387.000000
2219.630251	2182.000000
2221.241550	2220.000000
2222.850859	2324.000000
2224.461532	2184.000000
2226.070216	2272.000000
2227.678588	2328.000000
2229.284972	2241.000000
2230.892720	2250.000000
2232.498481	2312.000000
2234.103931	2257.000000
2235.707397	2143.000000
2237.312225	2200.000000
2238.915069	2266.000000
2240.515930	2239.000000
2242.118154	2313.000000
2243.718395	2167.000000
2245.319999	2353.000000
2246.917951	2285.000000
2248.517265	2260.000000
2250.114599	2340.000000
2251.711625	2338.000000
2253.310012	2232.000000
2254.904751	2271.000000
2256.497514	2287.000000
2258.091638	2324.000000
2259.687124	2349.000000
2261.278966	2423.000000
2262.870501	2259.000000
2264.463397	2314.000000
2266.050984	2355.000000
2267.643268	2303.000000
2269.230244	2231.000000
2270.820249	2374.000000
2272.404949	2213.000000
2273.994343	2256.000000
2275.578434	2199.000000
2277.163887	2164.000000
2278.747370	2140.000000
2280.333880	2195.000000
2281.916756	2207.000000
2283.499328	2100.000000
2285.081597	2180.000000
2286.660237	2190.000000
2288.241900	2245.000000
2289.819935	2124.000000
2291.400993	2080.000000
2292.978425	2130.500000
2294.553893	2181.000000
2296.132382	2185.000000
2297.707248	2076.000000
2299.281813	2138.000000
2300.856078	2079.000000
2302.430042	2261.000000
2304.003706	1946.000000
2305.577069	2034.000000
2307.146814	2033.000000
2308.716260	2138.000000
2310.288725	2168.000000
2311.855914	2126.000000
2313.426122	2127.000000
2314.992715	2193.000000
2316.560668	2084.000000
2318.126666	2039.000000
2319.692365	2046.000000
2321.257768	2144.000000
2322.821217	2036.000000
2324.386024	2169.000000
2325.947224	2319.000000
2327.511438	2435.000000
2329.070391	2444.000000
2330.632357	2388.000000
2332.192373	2246.000000
2333.752093	2212.000000
2335.309864	2093.000000
2336.867341	2138.000000
2338.424522	2095.000000
2339.979757	2216.000000
2341.534697	2195.000000
2343.089344	2163.000000
2344.643697	2137.000000
2346.197756	2098.000000
2347.751521	2202.000000
2349.303343	2212.000000
2350.853221	2135.000000
2352.406107	2113.000000
2353.953751	2072.000000
2355.504402	2269.000000
2357.051463	2086.000000
2358.599881	2102.000000
2360.148007	2110.000000
2361.692546	2126.000000
2363.238442	2010.000000
2364.782399	2124.000000
2366.327714	2018.000000
2367.869444	2033.000000
2369.412531	1990.000000
2370.953683	2049.000000
2372.494545	2100.000000
2374.035118	2100.000000
2375.575402	1980.000000
2377.115397	2021.000000
2378.651813	2182.000000
2380.191231	2198.000000
2381.727072	2260.000000
2383.264269	2140.000000
2384.797892	2044.000000
2386.334514	2144.000000
2387.869205	2165.000000
2389.401967	2175.000000
2390.934443	2102.000000
2392.464990	2147.000000
2393.998535	2052.000000
2395.526869	2107.000000
2397.056559	2047.000000
2398.585964	2173.000000
2400.115083	2117.000000
2401.643918	2150.000000
2403.167548	2095.000000
2404.695813	2102.000000
2406.218875	2118.000000
2407.746571	2245.000000
2409.267428	2250.000000
2410.792918	2198.000000
2412.314847	2117.000000
2413.838132	2081.000000
2415.359496	2084.000000
2416.878940	2267.000000
2418.399739	2161.000000
2419.918619	2045.000000
2421.437217	2200.000000
2422.953898	2240.000000
2424.471933	2351.000000
2425.989687	2255.000000
2427.503890	2202.000000
2429.017812	2274.000000
2430.531455	2179.000000
2432.046451	2342.000000
2433.557899	2229.000000
2435.070702	2328.000000
2436.581592	2429.000000
2438.092202	2428.000000
2439.600901	2447.000000
2441.112587	2499.000000
2442.620729	2533.000000
2444.128592	2659.000000
2445.636178	2683.000000
2447.140223	2892.000000
2448.647254	2891.000000
2450.152376	2927.000000
2451.657221	3031.000000
2453.160159	3008.000000
2454.662820	2964.000000
2456.165205	2968.000000
2457.665685	3001.000000
2459.167518	2932.000000
2460.667447	2743.000000
2462.167100	2610.000000
2463.666478	2859.000000
2465.163952	2721.000000
2466.659526	2644.000000
2468.158079	2630.000000
2469.653103	2588.000000
2471.149481	2556.000000
2472.642332	2556.000000
2474.136535	2455.000000
2475.630465	2588.000000
2477.120872	2457.000000
2478.614255	2387.000000
2480.105741	2458.000000
2481.595330	2459.000000
2483.084647	2301.000000
2484.572069	2346.000000
2486.062466	2332.000000
2487.549344	2312.000000
2489.037574	2180.000000
2490.522288	2304.000000
2492.006731	2135.000000
2493.492526	2190.000000
2494.976428	2136.000000
2496.461682	2142.000000
2497.941802	2179.000000
2499.424894	2227.000000
2500.906096	2126.000000
2502.387029	2094.000000
2503.866073	2183.000000
2505.344849	1949.000000
2506.823355	2114.000000
2508.301594	2093.000000
2509.779564	2134.000000
2511.254030	2075.000000
2512.731464	2077.000000
2514.205395	2177.000000
2515.680677	2151.000000
2517.155691	2043.000000
2518.627204	2058.000000
2520.100068	2120.000000
2521.571048	2057.000000
2523.043379	2027.000000
2524.510597	2076.000000
2525.980780	1981.000000
2527.449083	2105.000000
2528.917121	2092.000000
2530.384894	2130.000000
2531.852402	2010.000000
2533.319645	2095.000000
2534.783396	2068.000000
2536.248498	2141.000000
2537.711721	2040.000000
2539.176295	2305.000000
2540.637379	2005.000000
2542.099813	2102.000000
2543.561984	1944.000000
2545.020669	2145.000000
2546.483926	2078.000000
2547.942086	2013.000000
2549.401595	2093.000000
2550.856011	2140.000000
2552.314996	1996.000000
2553.772110	2267.000000
2555.227353	2102.000000
2556.682335	2153.000000
2558.135447	2187.000000
2559.589908	2163.000000
2561.042500	2111.000000
2562.494832	2106.000000
2563.945296	2072.000000
2565.398716	2088.000000
2566.847054	2097.000000
2568.298348	2142.000000
2569.747775	2038.000000
2571.193731	2212.000000
2572.642641	2175.000000
2574.088080	2275.000000
2575.534868	2250.000000
2576.979792	2169.000000
2578.424459	2221.000000
2579.870473	2134.000000
2581.313020	2195.000000
2582.756915	2135.000000
2584.197345	2180.000000
2585.639123	2059.000000
2587.079040	2183.000000
2588.520305	2288.000000
2589.958109	2127.000000
2591.398862	2088.000000
2592.834552	2133.000000
2594.273192	2158.000000
2595.709975	2192.000000
2597.144901	2230.000000
2598.582776	2160.000000
2600.015593	2271.000000
2601.449756	2221.000000
2602.882066	2224.000000
2604.315722	2258.000000
2605.747525	2232.000000
2607.179075	2381.000000
2608.610371	2347.000000
2610.039816	2345.000000
2611.469008	2319.000000
2612.896349	2505.000000
2614.325037	2527.000000
2615.753472	2451.000000
2617.178460	2589.000000
2618.604795	2583.000000
2620.029281	2691.000000
2621.455113	2671.000000
2622.877501	2820.000000
2624.301235	2798.000000
2625.723123	2724.000000
2627.144760	3021.000000
2628.564552	2910.000000
2629.985690	3051.000000
2631.406578	3174.000000
2632.824028	3204.000000
2634.244417	3345.000000
2635.661369	3490.000000
2637.078073	3472.000000
2638.494528	3626.000000
2639.910735	3776.000000
2641.326693	3908.000000
2642.740811	4023.000000
2644.154682	4253.000000
2645.566713	4523.000000
2646.980089	4679.000000
2648.390035	5037.000000
2649.802916	5271.000000
2651.212370	5577.000000
2652.621577	6061.000000
2654.028948	6488.000000
2655.439253	6840.000000
2656.847722	7286.000000
2658.254356	8044.000000
2659.660745	8315.000000
2661.065300	9222.000000
2662.471199	9972.000000
2663.875265	10741.000000
2665.279087	11559.000000
2666.682664	12375.000000
2668.084409	13557.000000
2669.487498	14260.000000
2670.887170	15207.000000
2672.288184	15501.000000
2673.685783	16282.000000
2675.086312	16348.000000
2676.483426	16974.000000
2677.881883	17091.000000
2679.278512	17069.000000
2680.674899	16883.000000
2682.071045	16831.000000
2683.465364	16331.000000
2684.861026	15782.000000
2686.253278	15450.000000
2687.646874	14468.000000
2689.038645	14039.000000
2690.431758	13220.000000
2691.823048	12125.000000
2693.212515	11777.000000
2694.601743	10481.000000
2695.990730	10030.000000
2697.381060	9476.000000
2698.766405	8645.000000
2700.154674	8158.000000
2701.541123	7761.000000
2702.927333	7035.000000
2704.313305	6733.000000
2705.695878	6152.000000
2707.079792	5816.000000
2708.463469	5296.000000
2709.846908	5114.000000
2711.226951	4854.000000
2712.608336	4609.000000
2713.987905	4353.000000
2715.368816	4312.000000
2716.747912	3910.000000
2718.125193	3896.000000
2719.503816	3674.000000
2720.880626	3777.000000
2722.257200	3284.000000
2723.633538	3391.000000
2725.008064	3132.000000
2726.383931	3096.000000
2727.756411	2990.000000
2729.131808	2761.000000
2730.502243	2831.000000
2731.874020	2572.000000
2733.245563	2661.000000
2734.615297	2680.000000
2735.986371	2598.000000
2737.355638	2652.000000
2738.724671	2504.000000
2740.091897	2433.000000
2741.458891	2319.000000
2742.825652	2294.000000
2744.192180	2304.000000
2745.556903	2387.000000
2746.921395	2238.000000
2748.285654	2256.000000
2749.649682	2129.000000
2751.013477	2152.000000
2752.373899	2203.000000
2753.737232	2140.000000
2755.095622	2044.000000
2756.456922	2263.000000
2757.814851	2122.000000
2759.175690	2066.000000
2760.534728	2004.000000
2761.890398	1991.000000
2763.248976	2011.000000
2764.604188	1926.000000
2765.959170	1977.000000
2767.312355	1970.000000
2768.668447	2089.000000
2770.021175	2072.000000
2771.373674	2014.000000
2772.725945	1919.000000
2774.079555	1960.000000
2775.429803	1913.000000
2776.778258	1999.000000
2778.129617	2031.000000
2779.477617	1901.000000
2780.826956	1999.000000
2782.174502	1816.000000
2783.521821	1920.000000
2784.868914	1895.000000
2786.214216	1965.000000
2787.559292	1841.000000
2788.904142	1891.000000
2790.248765	1886.000000
2791.590037	1892.000000
2792.932647	1974.000000
2794.275031	1807.000000
2795.617191	1901.000000
2796.956001	1760.000000
2798.297710	1938.000000
2799.636072	1856.000000
2800.975771	1771.000000
2802.313684	1831.000000
2803.649813	1793.000000
2804.985719	1872.000000
2806.322961	1695.000000
2807.658420	1804.000000
2808.993656	1839.000000
2810.327110	1889.000000
2811.661900	1866.000000
2812.993349	1804.000000
2814.327694	1683.000000
2815.657141	1786.000000
2816.987925	1718.000000
2818.318487	1797.000000
2819.647270	1770.000000
2820.977390	1772.000000
2822.305730	1750.000000
2823.633850	1788.000000
2824.960193	1674.000000
2826.287871	1717.000000
2827.612217	1662.000000
2828.937898	1708.000000
2830.261804	1616.000000
2831.585491	1794.000000
2832.910513	1612.000000
2834.232206	1698.000000
2835.553679	1719.000000
2836.874934	1606.000000
2838.195970	1654.000000
2839.515234	1671.000000
2840.835833	1673.000000
2842.154660	1732.000000
2843.473269	1509.000000
2844.790108	1673.000000
2846.106729	1493.000000
2847.423132	1655.000000
2848.737767	1619.000000
2850.053736	1539.000000
2851.366385	1644.000000
2852.680370	1673.000000
2853.994138	1697.000000
2855.307689	1604.000000
2856.619473	1561.000000
2857.929492	1621.000000
2859.240844	1584.000000
2860.548882	1707.000000
2861.858255	1785.000000
2863.167412	1745.000000
2864.476354	1676.000000
2865.783533	1647.000000
2867.088948	1577.000000
2868.395698	1737.000000
2869.700685	1652.000000
2871.005459	1655.000000
2872.308471	1565.000000
2873.614365	1609.000000
2874.915403	1498.000000
2876.217776	1527.000000
2877.518389	1417.000000
2878.820336	1583.000000
2880.122070	1552.000000
2881.420500	1667.000000
2882.720263	1529.000000
2884.018268	1675.000000
2885.316062	1535.000000
2886.612100	1473.000000
2887.909471	1541.000000
2889.205086	1435.000000
2890.500490	1487.000000
2891.795684	1666.000000
2893.087579	1526.000000
2894.382351	1519.000000
2895.673826	1587.000000
2896.966635	1634.000000
2898.259232	1600.000000
2899.548536	1531.000000
2900.839172	1523.000000
2902.128057	1540.000000
2903.418275	1574.000000
2904.705201	1575.000000
2905.993459	1583.000000
2907.279967	1584.000000
2908.566268	1576.000000
2909.852360	1555.000000
2911.136704	1465.000000
2912.423920	1560.000000
2913.706309	1463.000000
2914.990029	1513.000000
2916.272004	1573.000000
2917.553772	1557.000000
2918.833794	1469.000000
2920.116686	1496.000000
2921.397833	1604.000000
2922.675698	1625.000000
2923.956432	1422.000000
2925.233885	1553.000000
2926.511133	1546.000000
2927.786638	1541.000000
2929.065011	1520.000000
2930.338569	1541.000000
2931.614995	1628.000000
2932.889680	1505.000000
2934.162625	1484.000000
2935.436900	1559.000000
2936.709436	1484.000000
2937.981768	1597.000000
2939.250827	1482.000000
2940.522750	1515.000000
2941.792936	1411.000000
2943.062919	1457.000000
2944.332698	1402.000000
2945.600740	1507.000000
2946.867047	1455.000000
2948.133151	1484.000000
2949.400585	1378.000000
2950.666285	1501.000000
2951.931782	1419.000000
2953.197077	1520.000000
2954.459107	1458.000000
2955.722468	1460.000000
2956.985627	1482.000000
2958.247053	1542.000000
2959.509809	1372.000000
2960.770834	1418.000000
2962.030128	1550.000000
2963.289221	1402.000000
2964.548114	1400.000000
2965.806807	1430.000000
2967.065300	1418.000000
2968.322064	1432.000000
2969.578628	1365.000000
2970.833465	1528.000000
2972.089631	1428.000000
2973.342541	1305.000000
2974.596781	1345.000000
2975.850822	1401.000000
2977.103137	1318.000000
2978.355254	1479.000000
2979.605646	1262.000000
2980.858893	1303.000000
2982.107363	1380.000000
2983.358687	1368.000000
2984.606763	1377.000000
2985.854641	1435.000000
2987.102322	1321.000000
2988.349807	1459.000000
2989.595570	1365.000000
2990.841136	1457.000000
2992.088031	1321.000000
2993.331680	1367.000000
2994.576658	1401.000000
2995.818393	1485.000000
2997.062979	1292.000000
2998.305845	1349.000000
2999.545471	1281.000000
3000.787948	1393.000000
3002.027184	1328.000000
3003.267748	1310.000000
3004.506595	1386.000000
3005.745248	1327.000000
3006.982185	1250.000000
3008.220449	1332.000000
3009.456999	1364.000000
3010.693354	1423.000000
3011.929516	1293.000000
3013.163965	1412.000000
3014.398220	1300.000000
3015.632282	1323.000000
3016.864632	1297.000000
3018.095270	1333.000000
3019.328754	1285.000000
3020.560526	1287.000000
3021.790588	1307.000000
3023.020458	1365.000000
3024.248618	1158.000000
3025.478104	1281.000000
3026.705882	1319.000000
3027.933468	1318.000000
3029.162380	1356.000000
3030.386550	1236.000000
3031.613563	1270.000000
3032.837353	1156.000000
3034.062468	1345.000000
3035.285877	1261.000000
3036.509097	1270.000000
3037.730611	1276.000000
3038.954966	1302.000000
3040.174586	1291.000000
3041.395531	1284.000000
3042.616288	1215.000000
3043.835341	1238.000000
3045.055720	1252.000000
3046.272882	1321.000000
3047.491369	1319.000000
3048.708155	1297.000000
3049.924752	1257.000000
3051.141162	1286.000000
3052.354358	1271.000000
3053.570392	1297.000000
3054.783214	1225.000000
3055.998873	1246.000000
3057.209809	1180.000000
3058.422070	1227.000000
3059.634145	1217.000000
3060.846033	1256.000000
3062.056223	1256.000000
3063.266227	1315.000000
3064.476046	1230.000000
3065.684168	1122.000000
3066.892104	1222.000000
3068.098346	1179.000000
3069.305911	1190.000000
3070.511783	1199.500000
3071.717469	1209.000000
3072.922970	1165.000000
3074.126779	1228.000000
3075.331911	1126.000000
3076.535350	1157.000000
3077.737097	1114.000000
3078.938661	1127.000000
3080.140041	1171.000000
3081.341237	1230.000000
3082.540743	1134.000000
3083.740065	1166.000000
3084.940711	1065.000000
3086.139668	1202.000000
3087.335429	1195.000000
3088.534020	1046.000000
3089.729417	1213.000000
3090.926137	1183.000000
3092.119665	1061.000000
3093.316022	1198.000000
3094.510691	1154.000000
3095.702170	1089.000000
3096.897980	1157.000000
3098.089097	1151.000000
3099.281536	1098.000000
3100.470788	1243.000000
3101.662866	1044.000000
3102.853259	1125.000000
3104.040467	1115.000000
3105.228998	1188.000000
3106.418851	1173.000000
3107.605519	1061.000000
3108.792008	1134.000000
3109.978317	1232.000000
3111.165948	1100.000000
3112.350398	1233.000000
3113.533167	1162.000000
3114.718760	1042.000000
3115.902672	1154.000000
3117.084906	1165.000000
3118.266962	1092.000000
3119.448839	1132.000000
3120.630538	1074.000000
3121.810559	1157.000000
3122.988904	1096.000000
3124.170070	1068.000000
3125.348060	1088.000000
3126.525873	1027.000000
3127.703509	1152.000000
3128.879470	1186.000000
3130.055255	1107.000000
3131.232360	1085.000000
3132.407791	1139.000000
3133.581549	1227.000000
3134.753635	1137.000000
3135.927041	1146.000000
3137.100272	1138.000000
3138.271830	1202.000000
3139.444710	1077.000000
3140.614422	1169.000000
3141.785455	1228.000000
3142.954817	1078.000000
3144.122510	1225.000000
3145.293018	1109.000000
3146.458867	1180.000000
3147.629026	1172.000000
3148.794527	1045.000000
3149.959855	1295.000000
3151.125009	1070.000000
3152.289989	1188.000000
3153.456290	1097.000000
3154.617937	1219.000000
3155.780905	1095.000000
3156.943699	1112.000000
3158.106321	1104.000000
3159.267278	1121.000000
3160.428062	1115.000000
3161.588674	1078.000000
3162.747623	1092.000000
3163.906399	1090.000000
3165.065004	1076.000000
3166.223437	1100.000000
3167.381698	975.000000
3168.538297	1150.000000
3169.693235	1027.000000
3170.849492	1042.000000
3172.004089	1099.000000
3173.158514	1052.000000
3174.311280	1119.000000
3175.463876	1074.000000
3176.616301	1123.000000
3177.768557	1142.000000
3178.920643	1065.000000
3180.069582	996.000000
3181.221328	1106.000000
3182.371417	1182.000000
3183.519848	1064.000000
3184.668111	1139.000000
3185.816204	1052.000000
3186.964129	1101.000000
3188.110399	1020.000000
3189.256500	1104.000000
3190.400946	1071.000000
3191.545225	1033.000000
3192.689336	1100.000000
3193.834765	1013.000000
3194.977055	1126.000000
3196.119177	1146.000000
3197.261133	1116.000000
3198.402921	1056.000000
3199.544542	1122.000000
3200.683027	1018.000000
3201.822830	986.000000
3202.963951	1116.000000
3204.101937	1006.000000
3205.238274	1012.000000
3206.374445	1007.000000
3207.511934	1184.000000
3208.647774	1033.000000
3209.784930	1060.000000
3210.917474	959.000000
3212.054300	1066.000000
3213.186514	1040.000000
3214.320046	1061.000000
3215.453412	921.000000
3216.583651	1124.000000
3217.716688	1045.000000
3218.846599	1171.000000
3219.977827	1016.000000
3221.105929	1127.000000
3222.236828	1104.000000
3223.366084	1139.000000
3224.493695	1109.000000
3225.618185	1213.000000
3226.746950	1169.000000
3227.872593	1113.000000
3228.998073	1147.000000
3230.121912	1161.000000
3231.248545	1196.000000
3232.370581	1207.000000
3233.493933	1248.000000
3234.617123	1338.000000
3235.740151	1374.000000
3236.861539	1316.000000
3237.982766	1317.000000
3239.102354	1423.000000
3240.221781	1508.000000
3241.339570	1625.000000
3242.460152	1463.000000
3243.577619	1591.000000
3244.694927	1519.000000
3245.812073	1711.000000
3246.927584	1608.000000
3248.044410	1662.000000
3249.158125	1629.000000
3250.274631	1566.000000
3251.389501	1477.000000
3252.501263	1437.000000
3253.612866	1305.000000
3254.725783	1277.000000
3255.838542	1268.000000
3256.948194	1305.000000
3258.059161	1136.000000
3259.169969	1099.000000
3260.279145	1126.000000
3261.386690	1167.000000
3262.495550	1026.000000
3263.604251	1066.000000
3264.709850	1033.000000
3265.816764	1029.000000
3266.922048	999.000000
3268.028646	942.000000
3269.132144	1009.000000
3270.236956	1041.000000
3271.341611	972.000000
3272.443167	1008.000000
3273.544568	925.000000
3274.647282	1029.000000
3275.749839	932.000000
3276.849301	1009.000000
3277.951545	946.000000
3279.050695	1021.000000
3280.148219	934.000000
3281.245588	993.000000
3282.345740	920.000000
3283.442798	958.000000
3284.539701	960.000000
3285.636450	1016.000000
3286.728639	970.000000
3287.825078	923.000000
3288.919894	853.000000
3290.014555	952.000000
3291.107595	886.000000
3292.200481	996.000000
3293.291746	875.000000
3294.384324	967.000000
3295.475281	1009.000000
3296.564620	960.000000
3297.653804	919.000000
3298.744302	958.000000
3299.831715	903.000000
3300.918976	897.000000
3302.007549	882.000000
3303.095969	974.000000
3304.179842	830.000000
3305.267957	960.000000
3306.352991	800.000000
3307.436409	925.000000
3308.521138	872.000000
3309.604253	973.000000
3310.688679	911.000000
3311.770027	860.000000
3312.852687	854.000000
3313.933733	985.000000
3315.014628	988.000000
3316.093910	940.000000
3317.173041	958.000000
3318.253483	888.000000
3319.330852	826.000000
3320.409532	880.000000
3321.486600	919.000000
3322.563518	894.000000
3323.638825	840.000000
3324.713983	975.000000
3325.790453	927.000000
3326.863851	932.000000
3327.937101	886.000000
3329.011662	951.000000
3330.084613	929.000000
3331.155957	878.000000
3332.228611	877.000000
3333.298198	944.000000
3334.369096	917.000000
3335.438387	949.000000
3336.508989	900.000000
3337.577984	911.000000
3338.645373	901.000000
3339.711157	961.000000
3340.781167	958.000000
3341.848114	827.000000
3342.911999	909.000000
3343.978652	965.000000
3345.043700	912.000000
3346.107146	873.000000
3347.170444	917.000000
3348.233597	861.000000
3349.296603	894.000000
3350.359462	939.000000
3351.420720	852.000000
3352.478921	901.000000
3353.541343	802.000000
3354.600708	823.000000
3355.659928	949.000000
3356.720458	928.000000
3357.776478	884.000000
3358.835263	849.000000
3359.889540	889.000000
3360.946580	871.000000
3362.002023	867.000000
3363.058774	798.000000
3364.113928	860.000000
3365.167484	919.000000
3366.219443	859.000000
3367.274164	908.000000
3368.325836	866.000000
3369.377365	825.000000
3370.430203	791.000000
3371.479993	846.000000
3372.531091	884.000000
3373.579144	967.000000
3374.629957	840.000000
3375.677724	914.000000
3376.725349	920.000000
3377.772832	820.000000
3378.818721	959.000000
3379.865919	811.000000
3380.910075	846.000000
3381.956989	905.000000
3383.002311	788.000000
3384.044593	804.000000
3385.086733	905.000000
3386.130181	784.000000
3387.173489	894.000000
3388.215206	825.000000
3389.256782	880.000000
3390.298218	929.000000
3391.338064	830.000000
3392.376323	851.000000
3393.415889	940.000000
3394.455314	813.000000
3395.493153	886.000000
3396.529404	905.000000
3397.565515	903.000000
3398.602934	815.000000
3399.637320	836.000000
3400.673013	821.000000
3401.708567	824.000000
3402.741090	826.000000
3403.776366	805.000000
3404.808611	819.000000
3405.840718	748.000000
3406.871241	759.000000
3407.903072	807.000000
3408.934763	881.000000
3409.963428	811.000000
3410.991954	821.000000
3412.021788	787.000000
3413.051483	790.000000
3414.078153	882.000000
3415.106130	896.000000
3416.131082	798.000000
3417.158784	830.000000
3418.183463	832.000000
3419.209448	904.000000
3420.233853	789.000000
3421.258122	876.000000
3422.280812	802.000000
3423.303366	923.000000
3424.327226	816.000000
3425.348066	791.000000
3426.368771	755.000000
3427.390781	832.000000
3428.409773	713.000000
3429.428630	819.000000
3430.448792	827.000000
3431.465938	816.000000
