-117.790675	35.000000
-115.121075	40.000000
-112.454410	79.000000
-109.788497	95.000000
-107.125516	39.000000
-104.461106	114.000000
-101.799626	39.000000
-99.136716	126.000000
-96.478914	105.000000
-93.819681	143.000000
-91.161197	103.000000
-88.505638	102.000000
-85.848650	141.000000
-83.196759	43.000000
-80.543439	51.000000
-77.893039	114.000000
-75.241209	46.000000
-72.594470	66.000000
-69.946301	59.000000
-67.298876	110.000000
-64.654364	78.000000
-62.008424	146.000000
-59.367565	75.000000
-56.725277	72.000000
-54.085897	91.000000
-51.445089	58.000000
-48.805021	86.000000
-46.170025	141.000000
-43.533600	145.000000
-40.900079	123.000000
-38.265129	94.000000
-35.635244	208.000000
-33.001767	248.000000
-30.373352	245.000000
-27.745670	229.000000
-25.116561	276.000000
-22.492508	426.000000
-19.864866	631.000000
-17.242277	756.000000
-14.620419	1165.000000
-11.999293	2102.000000
-9.378896	4878.000000
-6.761387	16701.000000
-4.142450	51671.000000
-1.526399	64142.000000
1.088924	64117.000000
3.703520	64115.000000
6.315233	28465.000000
8.928375	1683.000000
11.536483	986.000000
14.148173	616.000000
16.754832	577.000000
19.362919	434.000000
21.970282	361.000000
24.572620	282.000000
27.178536	311.000000
29.779430	192.000000
32.381753	242.000000
34.979057	154.000000
37.579937	138.000000
40.175803	171.000000
42.773096	163.000000
45.369670	132.000000
47.961235	70.000000
50.554228	155.000000
53.144360	53.000000
55.735920	119.000000
58.324620	105.000000
60.914747	78.000000
63.499876	143.000000
66.086432	124.000000
68.672273	124.000000
71.255261	124.000000
73.839676	138.000000
76.416961	135.000000
78.997813	33.000000
81.575816	126.000000
84.153109	185.000000
86.731828	84.000000
89.305566	134.000000
91.880730	96.000000
94.453051	112.000000
97.024664	156.000000
99.593438	193.000000
102.163638	159.000000
104.730999	145.000000
107.299787	215.000000
109.865737	281.000000
112.428853	206.000000
114.995525	226.000000
117.552976	290.000000
120.116112	520.000000
122.674289	660.000000
125.236019	964.000000
127.792794	1382.000000
130.350994	1966.000000
132.904242	2922.000000
135.456791	4157.000000
138.012891	5975.000000
140.564044	8034.000000
143.114498	9860.000000
145.664256	11120.000000
148.211194	12412.000000
150.757436	13020.000000
153.305105	13583.000000
155.852077	13501.000000
158.394113	13356.000000
160.935456	13237.000000
163.476107	12897.000000
166.018182	12922.000000
168.557447	12978.000000
171.093902	12967.000000
173.629667	13274.000000
176.166857	12782.000000
178.703355	12687.000000
181.237048	12732.000000
183.767938	12377.000000
186.298139	12272.000000
188.829765	12543.000000
191.358590	12235.000000
193.884616	12274.000000
196.409957	12266.000000
198.936722	12332.000000
201.460691	12335.000000
203.983974	12497.000000
206.506573	12426.000000
209.026379	12266.000000
211.545502	12409.000000
214.063942	12155.000000
216.583806	12344.000000
219.096669	12665.000000
221.613063	12806.000000
224.128775	13002.000000
226.639598	13572.000000
229.151845	13395.000000
231.661309	13810.000000
234.170095	13545.000000
236.678203	13982.000000
239.187734	13916.000000
241.692386	13957.000000
244.196361	13980.000000
246.701760	13556.000000
249.202284	13557.000000
251.706331	13481.000000
254.203408	13358.000000
256.704007	13401.000000
259.201835	13234.000000
261.698990	13012.000000
264.195472	13284.000000
266.687092	13390.000000
269.182230	13240.000000
271.674603	13544.000000
274.166305	13441.000000
276.655244	14053.000000
279.145606	13823.000000
281.633207	13715.000000
284.118048	13934.000000
286.606403	14106.000000
289.087819	14290.000000
291.572749	14575.000000
294.052834	14929.000000
296.536431	15218.000000
299.015185	15557.000000
301.495363	16212.000000
303.972788	16105.000000
306.449550	15513.000000
308.925649	15003.000000
311.398999	14668.000000
313.871687	14474.000000
316.343714	14440.000000
318.815080	14648.000000
321.283702	14802.000000
323.751664	14781.000000
326.221049	14192.000000
328.685611	13304.000000
331.153676	13225.000000
333.616922	12988.000000
336.079511	12844.000000
338.541442	12570.000000
341.002717	12255.000000
343.461258	12316.000000
345.921221	12001.000000
348.378452	11822.000000
350.835027	11596.000000
353.290949	11571.000000
355.744142	11321.000000
358.198756	11432.000000
360.648569	11412.000000
363.101879	11338.000000
365.550389	10921.000000
367.998249	10982.000000
370.447530	10747.000000
372.892018	10789.000000
375.337928	10480.000000
377.783189	10446.000000
380.225731	10134.000000
382.667625	10265.000000
385.108871	10378.000000
387.547402	10067.000000
389.987355	10132.000000
392.424594	10038.000000
394.859121	9743.000000
397.297136	9879.000000
399.730374	9731.000000
402.165034	9792.000000
404.594920	9852.000000
407.028292	9723.000000
409.456894	9743.000000
411.884855	9683.000000
414.314236	9467.000000
416.738852	9414.000000
419.164890	9265.000000
421.590287	9187.000000
424.015044	9381.000000
426.435043	9007.000000
428.856463	9064.000000
431.275186	9108.000000
433.695330	8891.000000
436.112779	8666.000000
438.531648	8572.000000
440.947824	8204.000000
443.359253	8165.000000
445.774158	7965.000000
448.186373	7670.000000
450.597954	7328.000000
453.008901	7121.000000
455.417162	7106.000000
457.824790	6849.000000
460.231787	6839.000000
462.638151	6927.000000
465.041833	6880.000000
467.444885	6880.000000
469.847307	6776.000000
472.249100	6974.000000
474.648214	6983.000000
477.048748	6827.000000
479.448653	7053.000000
481.843835	7441.000000
484.242484	7572.000000
486.636413	7864.000000
489.029716	8329.000000
491.422393	8662.000000
493.814445	9354.000000
496.207916	10099.000000
498.596674	12012.000000
500.982766	14712.000000
503.370278	18596.000000
505.757166	24962.000000
508.141391	34985.000000
510.527035	50325.000000
512.910016	63375.000000
515.290337	64261.000000
517.672077	64052.000000
520.051158	64135.000000
522.431658	64235.000000
524.809500	64344.000000
527.184687	60332.000000
529.559256	53511.000000
531.935244	46222.000000
534.308578	40196.000000
536.683331	35446.000000
539.053397	31607.000000
541.422848	28897.000000
543.793718	26040.000000
546.159906	24185.000000
548.527513	22534.000000
550.892474	21007.000000
553.256822	20066.000000
555.620558	19022.000000
557.985711	18492.000000
560.346191	17738.000000
562.708090	17153.000000
565.067349	16446.000000
567.423969	15910.000000
569.784034	15148.000000
572.137409	14880.000000
574.494228	14038.000000
576.848411	13634.000000
579.201987	13496.000000
581.554954	13093.000000
583.905290	12713.000000
586.257042	12156.000000
588.602118	11780.000000
590.952658	11553.000000
593.296525	11208.000000
595.645852	11000.000000
597.990532	10871.000000
600.332587	10843.000000
602.676058	10648.000000
605.016907	10631.000000
607.357154	10555.000000
609.694780	11337.000000
612.035841	11783.000000
614.372265	12347.000000
616.710105	12497.000000
619.045327	12216.000000
621.377934	11680.000000
623.711958	11106.000000
626.043367	10901.000000
628.374178	10482.000000
630.704391	10199.000000
633.034006	10067.000000
635.358999	9898.000000
637.689433	9972.000000
640.015245	10220.000000
642.338451	9936.000000
644.663072	9873.000000
646.985089	9498.000000
649.306511	9321.000000
651.625330	9467.000000
653.945565	9347.000000
656.265207	9124.000000
658.582248	9271.000000
660.898698	9253.000000
663.212549	9191.000000
665.527815	9316.000000
667.840485	9197.000000
670.154570	9245.000000
672.464055	9150.000000
674.774956	9227.000000
677.083264	8996.000000
679.390984	8880.000000
681.700119	8754.000000
684.004661	8644.000000
686.308617	8489.000000
688.611986	8273.000000
690.916770	8082.000000
693.216968	7836.000000
695.518581	7912.000000
697.819608	7898.000000
700.116053	7702.000000
702.413914	7696.000000
704.711191	7508.000000
707.007885	7527.000000
709.300003	7277.000000
711.595532	7412.000000
713.886488	7138.000000
716.178858	7033.000000
718.468652	7077.000000
720.757867	7080.000000
723.046501	7313.000000
725.332564	7286.000000
727.620040	7168.000000
729.904946	7174.000000
732.189273	7124.000000
734.471032	7042.000000
736.754206	7078.000000
739.036801	6951.000000
741.314842	6961.000000
743.594296	6783.000000
745.873175	6864.000000
748.151478	6912.000000
750.425232	6709.000000
752.700400	7062.000000
754.974994	6803.000000
757.247029	6777.000000
759.520476	6758.000000
761.791366	6714.000000
764.059700	6676.000000
766.329447	6818.000000
768.596640	6784.000000
770.863262	6780.000000
773.129315	6797.000000
775.392815	6787.000000
777.657729	6693.000000
779.922073	6681.000000
782.181888	6715.000000
784.443116	6736.000000
786.703776	6851.000000
788.961889	7215.000000
791.217458	6998.000000
793.476418	6985.000000
795.728879	6814.000000
797.986707	6971.000000
800.240015	6959.000000
802.490784	7144.000000
804.742965	6894.000000
806.992608	6998.000000
809.243662	7007.000000
811.490205	7001.000000
813.738161	7052.000000
815.983581	6780.000000
818.230413	6739.000000
820.476684	6734.000000
822.718451	6540.000000
824.963600	6591.000000
827.202277	6502.000000
829.444337	6750.000000
831.681898	6579.000000
833.920870	6561.000000
836.157316	6735.000000
838.395174	6724.000000
840.630506	6543.000000
842.863314	6696.000000
845.097534	6416.000000
847.329232	6565.000000
849.560375	6519.000000
851.790963	6296.000000
854.020997	6304.000000
856.250476	6227.000000
858.475474	6294.000000
860.703847	6187.000000
862.927741	6219.000000
865.153045	6171.000000
867.373874	6133.000000
869.598075	6288.000000
871.817803	6447.000000
874.038942	6278.000000
876.259530	6207.000000
878.477608	6386.000000
880.697097	6389.000000
882.912119	6151.000000
885.126593	6206.000000
887.340520	6097.000000
889.553899	6037.000000
891.766732	5877.000000
893.979017	5855.000000
896.188801	6154.000000
898.398039	6068.000000
900.606731	6128.000000
902.812925	6152.000000
905.020528	6102.000000
907.225634	6083.000000
909.430196	6479.000000
911.632262	6505.000000
913.835738	6697.000000
916.036720	6967.000000
918.237161	7029.000000
920.439010	7307.000000
922.634467	7655.000000
924.833284	8234.000000
927.027663	9107.000000
929.225398	9960.000000
931.418698	11148.000000
933.613407	12351.000000
935.805630	13570.000000
937.997315	14969.000000
940.188462	15847.000000
942.377126	15799.000000
944.565253	15925.000000
946.750900	15684.000000
948.939899	15561.000000
951.124475	15477.000000
953.308516	15442.000000
955.495907	15446.000000
957.674995	15819.000000
959.857432	15630.000000
962.039336	15792.000000
964.218766	16147.000000
966.395723	15942.000000
968.574088	16199.000000
970.753859	16336.000000
972.927282	16302.000000
975.104051	16234.000000
977.276414	16342.000000
979.450183	16060.000000
981.619549	15573.000000
983.792260	15026.000000
985.962504	13886.000000
988.132220	12538.000000
990.301407	11190.000000
992.466197	10382.000000
994.634328	9610.000000
996.798065	9004.000000
998.963208	8613.000000
1001.125893	8414.000000
1003.288051	8226.000000
1005.447753	7858.000000
1007.606931	7781.000000
1009.767515	7684.000000
1011.925644	7639.000000
1014.083249	7274.000000
1016.240331	7162.000000
1018.396890	6913.000000
1020.549069	6881.000000
1022.702654	6451.000000
1024.855718	6331.000000
1027.006334	6132.000000
1029.158355	6118.000000
1031.306003	6126.000000
1033.456983	6141.000000
1035.603592	5869.000000
1037.749683	5919.000000
1039.895254	5736.000000
1042.042231	5903.000000
1044.182920	5782.000000
1046.326937	5582.000000
1048.468514	5736.000000
1050.609575	5811.000000
1052.752040	5723.000000
1054.888226	5570.000000
1057.027738	5668.000000
1059.162894	5316.000000
1061.301375	5519.000000
1063.435503	5595.000000
1065.569116	5596.000000
1067.704135	5440.000000
1069.834804	5437.000000
1071.966878	5563.000000
1074.096523	5521.000000
1076.225656	5376.000000
1078.354277	5383.000000
1080.482387	5376.000000
1082.608071	5207.000000
1084.733245	5260.000000
1086.859823	5281.000000
1088.982064	5247.000000
1091.105708	5267.000000
1093.225019	5255.000000
1095.349558	5009.000000
1097.467852	5136.000000
1099.587551	5109.000000
1101.704831	5131.000000
1103.821605	4969.000000
1105.937872	5026.000000
1108.051724	5009.000000
1110.166979	4920.000000
1112.277912	5054.000000
1114.392156	4874.000000
1116.502080	5030.000000
1118.613408	4724.000000
1120.724232	4697.000000
1122.830739	4680.000000
1124.940555	4682.000000
1127.046057	4704.000000
1129.152962	4671.000000
1131.253652	4434.000000
1133.359554	4681.000000
1135.461147	4523.000000
1137.564143	4559.000000
1139.666638	4441.000000
1141.762927	4480.000000
1143.864422	4694.000000
1145.961615	4428.000000
1148.058309	4467.000000
1150.154506	4325.000000
1152.250204	4326.000000
1154.345405	4464.000000
1156.438209	4508.000000
1158.532415	4540.000000
1160.620430	4542.000000
1162.713643	4330.000000
1164.800668	4441.000000
1166.890993	4459.000000
1168.977029	4401.000000
1171.066363	4370.000000
1173.149516	4320.000000
1175.234072	4471.000000
1177.320028	4301.000000
1179.401703	4389.000000
1181.484780	4393.000000
1183.565471	4445.000000
1185.645670	4433.000000
1187.725378	4495.000000
1189.804595	4468.000000
1191.881430	4465.000000
1193.955884	4470.000000
1196.033630	4283.000000
1198.107105	4237.000000
1200.181981	4341.000000
1202.252590	4492.000000
1204.324601	4314.000000
1206.394235	4199.000000
1208.465270	4162.000000
1210.535817	4310.000000
1212.602103	4133.000000
1214.669790	4188.000000
1216.735105	4095.000000
1218.801820	4130.000000
1220.864279	4028.000000
1222.930023	4002.000000
1224.991514	4029.000000
1227.054404	3999.000000
1229.114927	4066.000000
1231.174967	4081.000000
1233.234523	4258.000000
1235.291714	4364.000000
1237.348424	4256.000000
1239.402771	4372.000000
1241.460398	4291.000000
1243.515663	4375.000000
1245.566687	4259.000000
1247.619111	4318.000000
1249.671055	4223.000000
1251.720641	4267.000000
1253.769748	4268.000000
1255.818377	4423.000000
1257.866527	4270.000000
1259.914199	4313.000000
1261.957640	4233.000000
1264.004356	4302.000000
1266.048720	4304.000000
1268.092606	4472.000000
1270.134142	4315.000000
1272.173328	4152.000000
1274.215786	4274.000000
1276.254022	4247.000000
1278.293657	4413.000000
1280.332817	4369.000000
1282.367759	4293.000000
1284.404099	4173.000000
1286.438094	4247.000000
1288.473488	4238.000000
1290.504668	4159.000000
1292.537247	4112.000000
1294.569353	4112.000000
1296.599119	4055.000000
1298.630283	4148.000000
1300.657239	4247.000000
1302.685593	4137.000000
1304.709743	4212.000000
1306.737157	4066.000000
1308.760370	3855.000000
1310.784979	3991.000000
1312.807255	4092.000000
1314.830928	4161.000000
1316.852268	4187.000000
1318.873140	3962.000000
1320.893546	3841.000000
1322.909757	3905.000000
1324.927367	3754.000000
1326.942648	3806.000000
1328.961188	3855.000000
1330.975538	3844.000000
1332.987563	3954.000000
1335.002845	3898.000000
1337.013942	3998.000000
1339.026436	4128.000000
1341.034747	4311.000000
1343.046314	4274.000000
1345.051841	4496.000000
1347.060624	4570.000000
1349.065229	4561.000000
1351.073088	4555.000000
1353.080485	4617.000000
1355.081851	4527.000000
1357.084614	4475.000000
1359.086916	4296.000000
1361.088759	4341.000000
1363.090143	4420.000000
1365.089212	4241.000000
1367.087823	4298.000000
1369.085976	4133.000000
1371.083671	4247.000000
1373.077202	4101.000000
1375.072130	4076.000000
1377.066601	4099.000000
1379.060615	4167.000000
1381.052322	4035.000000
1383.043573	3798.000000
1385.032519	3864.000000
1387.022860	3742.000000
1389.012746	3635.000000
1391.000329	3783.000000
1392.987458	3636.000000
1394.972285	3819.000000
1396.958506	3652.000000
1398.942428	3854.000000
1400.925897	3793.000000
1402.908914	3917.000000
1404.889633	3865.000000
1406.871746	3877.000000
1408.851562	3820.000000
1410.830928	3915.000000
1412.806154	3838.000000
1414.784620	3862.000000
1416.760792	3780.000000
1418.736514	3861.000000
1420.711787	3823.000000
1422.684769	3856.000000
1424.657303	3760.000000
1426.629390	3875.000000
1428.601028	3698.000000
1430.568538	3725.000000
1432.541123	3722.000000
1434.505901	3723.000000
1436.475752	3653.000000
1438.441478	3798.000000
1440.408598	3758.000000
1442.373433	3866.000000
1444.334150	3911.000000
1446.299934	3913.000000
1448.259763	3998.000000
1450.220985	3950.000000
1452.183600	3984.000000
1454.142100	3902.000000
1456.100158	3966.000000
1458.057773	4000.000000
1460.014947	3938.000000
1461.969845	3939.000000
1463.926135	3856.000000
1465.880151	4020.000000
1467.833727	3732.000000
1469.785030	3846.000000
1471.737725	3651.000000
1473.688149	3757.000000
1475.638134	3892.000000
1477.587679	3625.000000
1479.534956	3647.000000
1481.479966	3572.000000
1483.426367	3568.000000
1485.372332	3537.000000
1487.317858	3590.000000
1489.261120	3507.000000
1491.203945	3421.000000
1493.144507	3483.000000
1495.086460	3500.000000
1497.026152	3390.000000
1498.965408	3563.000000
1500.904230	3552.000000
1502.840791	3617.000000
1504.778744	3529.000000
1506.714439	3641.000000
1508.649700	3736.000000
1510.582704	3666.000000
1512.515276	3664.000000
1514.447416	3574.000000
1516.379124	3729.000000
1518.308578	3553.000000
1520.239423	3680.000000
1522.169837	3573.000000
1524.096178	3788.000000
1526.023909	3692.000000
1527.949390	3596.000000
1529.874442	3769.000000
1531.799065	3859.000000
1533.723259	3913.000000
1535.645206	4097.000000
1537.568542	4054.000000
1539.489633	4057.000000
1541.408479	4097.000000
1543.328715	4118.000000
1545.246707	4352.000000
1547.164273	4310.000000
1549.079597	4564.000000
1550.996311	4745.000000
1552.908970	4766.000000
1554.824833	4951.000000
1556.738456	5283.000000
1558.649842	5335.000000
1560.562616	5436.000000
1562.471341	5752.000000
1564.381456	6333.000000
1566.291147	6485.000000
1568.200414	6945.000000
1570.107448	8013.000000
1572.012249	9038.000000
1573.918439	9887.000000
1575.822397	11374.000000
1577.725935	12910.000000
1579.629051	14940.000000
1581.529939	17166.000000
1583.432214	18569.000000
1585.332262	19128.000000
1587.233698	18140.000000
1589.131099	16379.000000
1591.028082	14547.000000
1592.924647	11893.000000
1594.822600	10257.000000
1596.714718	8799.000000
1598.610029	7761.000000
1600.504923	6845.000000
1602.397595	6170.000000
1604.289851	5625.000000
1606.179887	5351.000000
1608.069507	5225.000000
1609.958712	4922.000000
1611.847501	4564.000000
1613.734074	4366.000000
1615.622033	4474.000000
1617.505976	4398.000000
1619.391307	4268.000000
1621.276223	4082.000000
1623.158927	3912.000000
1625.043016	3960.000000
1626.923095	3884.000000
1628.804560	3737.000000
1630.683815	3610.000000
1632.564456	3346.000000
1634.439293	3497.000000
1636.319112	3393.000000
1638.194925	3452.000000
1640.070328	3319.000000
1641.947118	3404.000000
1643.818110	3192.000000
1645.692284	3438.000000
1647.562460	3229.000000
1649.435816	3199.000000
1651.306969	3222.000000
1653.175920	3283.000000
1655.046257	3346.000000
1656.912600	3124.000000
1658.780329	3083.000000
1660.645860	3188.000000
1662.512775	3125.000000
1664.375702	3156.000000
1666.240014	3003.000000
1668.102130	3112.000000
1669.963842	3014.000000
1671.826938	3042.000000
1673.687840	2875.000000
1675.546548	3036.000000
1677.404853	2888.000000
1679.264543	2828.000000
1681.118466	2909.000000
1682.975561	2903.000000
1684.832254	2727.000000
1686.684971	2725.000000
1688.540859	2930.000000
1690.392772	2851.000000
1692.244285	2735.000000
1694.095397	2930.000000
1695.946109	2732.000000
1697.796420	2762.000000
1699.644547	2779.000000
1701.494057	2688.000000
1703.337819	2632.000000
1705.186531	2737.000000
1707.029496	2678.000000
1708.875627	2703.000000
1710.717797	2765.000000
1712.563131	2709.000000
1714.402725	2720.000000
1716.243703	2718.000000
1718.086064	2697.000000
1719.924469	2649.000000
1721.764257	2718.000000
1723.601870	2731.000000
1725.439087	2634.000000
1727.274131	2764.000000
1729.110558	2628.000000
1730.944813	2768.000000
1732.778673	2705.000000
1734.612140	2752.000000
1736.441660	2686.000000
1738.274339	2707.000000
1740.103074	2684.000000
1741.934967	2688.000000
1743.762917	2671.000000
1745.590475	2624.000000
1747.417641	2659.000000
1749.244416	2627.000000
1751.070800	2641.000000
1752.893247	2895.000000
1754.718848	2642.000000
1756.540515	2801.000000
1758.363564	2747.000000
1760.184452	2697.000000
1762.004950	2535.000000
1763.826830	2752.000000
1765.643010	2602.000000
1767.462342	2662.000000
1769.277747	2638.000000
1771.096302	2612.000000
1772.910932	2542.000000
1774.725176	2572.000000
1776.539032	2635.000000
1778.352502	2524.000000
1780.163819	2565.000000
1781.976517	2660.000000
1783.788828	2465.000000
1785.597222	2630.000000
1787.406997	2386.000000
1789.212856	2428.000000
1791.021862	2516.000000
1792.826954	2546.000000
1794.633426	2492.000000
1796.439515	2426.000000
1798.241694	2593.000000
1800.047016	2555.000000
1801.848430	2543.000000
1803.651224	2543.000000
1805.450112	2578.000000
1807.250381	2561.000000
1809.050268	2533.000000
1810.848014	2488.000000
1812.645379	2515.000000
1814.442363	2470.000000
1816.238967	2544.000000
1818.033432	2534.000000
1819.829276	2532.000000
1821.619466	2731.000000
1823.414552	2554.000000
1825.203985	2615.000000
1826.996555	2631.000000
1828.786990	2653.000000
1830.575291	2591.000000
1832.366727	2610.000000
1834.152517	2621.000000
1835.939687	2676.000000
1837.724725	2522.000000
1839.512897	2687.000000
1841.297183	2698.000000
1843.079340	2670.000000
1844.862875	2728.000000
1846.644282	2734.000000
1848.427068	2753.000000
1850.205974	2708.000000
1851.986258	2653.000000
1853.764416	2655.000000
1855.543953	2711.000000
1857.321365	2751.000000
1859.096653	2711.000000
1860.873320	2691.000000
1862.647864	2755.000000
1864.423785	2795.000000
1866.194087	2627.000000
1867.967515	2639.000000
1869.738824	2779.000000
1871.509763	2763.000000
1873.282078	2791.000000
1875.048781	2765.000000
1876.818608	2697.000000
1878.584572	2734.000000
1880.353660	2797.000000
1882.118886	2754.000000
1883.883744	2586.000000
1885.649978	2660.000000
1887.412354	2634.000000
1889.174363	2614.000000
1890.936005	2638.000000
1892.697279	2578.000000
1894.458186	2526.000000
1896.218727	2468.000000
1897.977158	2543.000000
1899.735224	2428.000000
1901.491181	2441.000000
1903.248516	2382.000000
1905.005484	2355.000000
1906.760347	2516.000000
1908.513104	2357.000000
1910.265498	2394.000000
1912.019267	2427.000000
1913.770933	2312.000000
1915.520497	2351.000000
1917.271437	2359.000000
1919.022013	2485.000000
1920.768751	2375.000000
1922.516864	2423.000000
1924.262878	2383.000000
1926.010268	2301.000000
1927.755559	2324.000000
1929.498753	2487.000000
1931.243323	2406.000000
1932.985796	2477.000000
1934.727909	2324.000000
1936.469662	2428.000000
1938.211056	2556.000000
1939.950356	2520.000000
1941.689297	2385.000000
1943.427879	2388.000000
1945.164369	2393.000000
1946.900502	2411.000000
1948.638009	2429.000000
1950.371695	2454.000000
1952.106754	2315.000000
1953.839726	2414.000000
1955.572341	2330.000000
1957.304599	2428.000000
1959.036501	2280.000000
1960.766317	2369.000000
1962.494049	2452.000000
1964.223154	2465.000000
1965.951905	2363.000000
1967.678572	2413.000000
1969.404885	2347.000000
1971.132571	2320.000000
1972.854721	2375.000000
1974.579972	2347.000000
1976.301417	2421.000000
1978.025961	2401.000000
1979.748426	2477.000000
1981.467087	2427.000000
1983.188847	2437.000000
1984.906805	2390.000000
1986.626137	2517.000000
1988.341668	2454.000000
1990.062021	2421.000000
1991.778574	2442.000000
1993.491332	2362.000000
1995.207185	2346.000000
1996.920965	2474.000000
1998.634396	2458.000000
2000.345756	2378.000000
2002.058489	2410.000000
2003.767430	2462.000000
2005.479465	2324.000000
2007.185990	2438.000000
2008.895608	2454.000000
2010.603158	2438.000000
2012.310361	2319.000000
2014.015498	2409.000000
2015.720288	2549.000000
2017.426450	2512.000000
2019.128830	2441.000000
2020.832582	2534.000000
2022.534270	2342.000000
2024.235614	2422.000000
2025.936612	2442.000000
2027.635550	2451.000000
2029.335858	2330.000000
2031.032392	2436.000000
2032.730297	2166.000000
2034.426144	2386.000000
2036.125075	2257.000000
2037.818521	2250.000000
2039.513339	2395.000000
2041.207813	2230.000000
2042.898519	2279.000000
2044.592309	2288.000000
2046.282332	2279.000000
2047.973726	2240.000000
2049.663067	2252.000000
2051.353778	2267.000000
2053.040727	2132.000000
2054.727335	2363.000000
2056.415314	2281.000000
2058.099533	2223.000000
2059.785122	2157.000000
2061.470372	2365.000000
2063.153574	2247.000000
2064.838145	2377.000000
2066.517254	2187.000000
2068.201148	2182.000000
2069.879582	2156.000000
2071.561092	2200.000000
2073.238852	2200.000000
2074.916274	2216.000000
2076.595067	2272.000000
2078.271816	2163.000000
2079.946524	2222.000000
2081.622601	2187.000000
2083.296638	2184.000000
2084.970339	2107.000000
2086.643705	2265.000000
2088.315033	2186.000000
2089.986026	2199.000000
2091.656685	2231.000000
2093.327009	2099.000000
2094.997000	2287.000000
2096.664955	2193.000000
2098.332577	2270.000000
2099.998165	2275.000000
2101.665121	2244.000000
2103.330044	2211.000000
2104.994634	2151.000000
2106.657193	2112.000000
2108.321120	2227.000000
2109.983017	2239.000000
2111.644582	2026.000000
2113.305817	2133.000000
2114.965022	2151.000000
2116.623898	2221.000000
2118.282443	2059.000000
2119.940659	2066.000000
2121.595151	2129.000000
2123.252708	2169.000000
2124.909936	2160.000000
2126.563442	1963.000000
2128.218316	2076.000000
2129.869472	2056.000000
2131.523689	2036.000000
2133.174190	2059.000000
2134.826057	2151.000000
2136.472516	1987.000000
2138.123730	2043.000000
2139.771230	2002.000000
2141.420097	2026.000000
2143.066946	2063.000000
2144.713468	2060.000000
2146.359665	2041.000000
2148.002154	2110.000000
2149.647701	2105.000000
2151.289541	2026.000000
2152.934438	2154.000000
2154.575630	2148.000000
2156.216498	2040.000000
2157.857043	2268.000000
2159.495575	2203.000000
2161.135473	2194.000000
2162.771671	2229.000000
2164.409235	2141.000000
2166.046476	2057.000000
2167.681708	2153.000000
2169.316619	2220.000000
2170.951208	2183.000000
2172.585475	2110.000000
2174.216050	2102.000000
2175.849675	2056.000000
2177.479609	2029.000000
2179.110908	2041.000000
2180.740203	2090.000000
2182.369177	2084.000000
2183.997833	2111.000000
2185.626169	2042.000000
2187.252502	2125.000000
2188.878517	2089.000000
2190.502531	2069.000000
2192.127909	2113.000000
2193.751288	2100.000000
2195.376030	2138.000000
2196.997092	2062.000000
2198.617837	2162.000000
2200.239947	2214.000000
2201.860059	2186.000000
2203.478174	2206.000000
2205.095974	2004.000000
2206.713459	2102.000000
2208.330628	2138.000000
2209.947482	2042.000000
2211.564021	2114.000000
2213.178566	2175.000000
2214.791119	2088.000000
2216.405036	2194.000000
2218.016962	2108.000000
2219.630251	2184.000000
2221.241550	2067.000000
2222.850859	2133.000000
2224.461532	1995.000000
2226.070216	2075.000000
2227.678588	2093.000000
2229.284972	2015.000000
2230.892720	2014.000000
2232.498481	2123.000000
2234.103931	1941.000000
2235.707397	2022.000000
2237.312225	2085.000000
2238.915069	2056.000000
2240.515930	2075.000000
2242.118154	1970.000000
2243.718395	1937.000000
2245.319999	2092.000000
2246.917951	2013.000000
2248.517265	2121.000000
2250.114599	2185.000000
2251.711625	2082.000000
2253.310012	2154.000000
2254.904751	2120.000000
2256.497514	2138.000000
2258.091638	2089.000000
2259.687124	2058.000000
2261.278966	1964.000000
2262.870501	2009.000000
2264.463397	2094.000000
2266.050984	2008.000000
2267.643268	2234.000000
2269.230244	2087.000000
2270.820249	2056.000000
2272.404949	2077.000000
2273.994343	1941.000000
2275.578434	2098.000000
2277.163887	2117.000000
2278.747370	2068.000000
2280.333880	2061.000000
2281.916756	1912.000000
2283.499328	1900.000000
2285.081597	1984.000000
2286.660237	2039.000000
2288.241900	1962.000000
2289.819935	2031.000000
2291.400993	1963.000000
2292.978425	1939.000000
2294.553893	1915.000000
2296.132382	2018.000000
2297.707248	2011.000000
2299.281813	2022.000000
2300.856078	1997.000000
2302.430042	2007.000000
2304.003706	1958.000000
2305.577069	2022.000000
2307.146814	1940.000000
2308.716260	1934.000000
2310.288725	1953.000000
2311.855914	2034.000000
2313.426122	2044.000000
2314.992715	1887.000000
2316.560668	1940.000000
2318.126666	1994.000000
2319.692365	1980.000000
2321.257768	2023.000000
2322.821217	2001.000000
2324.386024	2075.000000
2325.947224	2183.000000
2327.511438	2441.000000
2329.070391	2433.000000
2330.632357	2327.000000
2332.192373	2173.000000
2333.752093	2037.000000
2335.309864	2058.000000
2336.867341	1956.000000
2338.424522	1963.000000
2339.979757	2011.000000
2341.534697	1974.000000
2343.089344	1900.000000
2344.643697	2018.000000
2346.197756	2066.000000
2347.751521	2129.000000
2349.303343	2036.000000
2350.853221	1937.000000
2352.406107	1926.000000
2353.953751	1958.000000
2355.504402	2047.000000
2357.051463	2054.000000
2358.599881	2059.000000
2360.148007	2043.000000
2361.692546	1994.000000
2363.238442	2073.000000
2364.782399	1990.000000
2366.327714	1937.000000
2367.869444	2036.000000
2369.412531	1956.000000
2370.953683	1793.000000
2372.494545	1909.000000
2374.035118	1897.000000
2375.575402	2015.000000
2377.115397	1945.000000
2378.651813	1960.000000
2380.191231	2050.000000
2381.727072	1918.000000
2383.264269	2008.000000
2384.797892	2016.000000
2386.334514	1951.000000
2387.869205	1999.000000
2389.401967	1846.000000
2390.934443	2045.000000
2392.464990	2017.000000
2393.998535	2015.000000
2395.526869	1946.000000
2397.056559	1991.000000
2398.585964	1961.000000
2400.115083	2020.000000
2401.643918	2079.000000
2403.167548	2007.000000
2404.695813	1992.000000
2406.218875	1912.000000
2407.746571	2053.000000
2409.267428	2133.000000
2410.792918	2046.000000
2412.314847	2284.000000
2413.838132	2017.000000
2415.359496	2198.000000
2416.878940	2100.000000
2418.399739	2205.000000
2419.918619	2209.000000
2421.437217	2216.000000
2422.953898	2142.000000
2424.471933	2289.000000
2425.989687	2306.000000
2427.503890	2458.000000
2429.017812	2191.000000
2430.531455	2365.000000
2432.046451	2390.000000
2433.557899	2385.000000
2435.070702	2610.000000
2436.581592	2569.000000
2438.092202	2688.000000
2439.600901	2842.000000
2441.112587	2922.000000
2442.620729	2890.000000
2444.128592	3012.000000
2445.636178	3168.000000
2447.140223	3272.000000
2448.647254	3327.000000
2450.152376	3324.000000
2451.657221	3571.000000
2453.160159	3523.000000
2454.662820	3419.000000
2456.165205	3421.000000
2457.665685	3451.000000
2459.167518	3378.000000
2460.667447	3243.000000
2462.167100	3202.000000
2463.666478	3040.000000
2465.163952	3116.000000
2466.659526	2925.000000
2468.158079	2871.000000
2469.653103	2782.000000
2471.149481	2739.000000
2472.642332	2633.000000
2474.136535	2657.000000
2475.630465	2597.000000
2477.120872	2596.000000
2478.614255	2563.000000
2480.105741	2566.000000
2481.595330	2422.000000
2483.084647	2598.000000
2484.572069	2508.000000
2486.062466	2512.000000
2487.549344	2488.000000
2489.037574	2404.000000
2490.522288	2339.000000
2492.006731	2333.000000
2493.492526	2399.000000
2494.976428	2083.000000
2496.461682	2309.000000
2497.941802	2219.000000
2499.424894	2124.000000
2500.906096	2251.000000
2502.387029	2167.000000
2503.866073	2172.000000
2505.344849	2105.000000
2506.823355	2187.000000
2508.301594	2143.000000
2509.779564	2227.000000
2511.254030	2075.000000
2512.731464	2223.000000
2514.205395	2111.000000
2515.680677	2173.000000
2517.155691	2049.000000
2518.627204	2084.000000
2520.100068	2121.000000
2521.571048	2080.000000
2523.043379	2062.000000
2524.510597	2097.000000
2525.980780	2126.000000
2527.449083	2058.000000
2528.917121	2083.000000
2530.384894	2064.000000
2531.852402	2134.000000
2533.319645	1962.000000
2534.783396	2131.000000
2536.248498	2204.000000
2537.711721	2089.000000
2539.176295	2052.000000
2540.637379	2174.000000
2542.099813	2140.000000
2543.561984	2043.000000
2545.020669	2124.000000
2546.483926	2197.000000
2547.942086	2010.000000
2549.401595	2153.000000
2550.856011	2163.000000
2552.314996	2111.000000
2553.772110	2203.000000
2555.227353	2111.000000
2556.682335	2240.000000
2558.135447	2111.000000
2559.589908	2130.000000
2561.042500	2221.000000
2562.494832	2096.000000
2563.945296	1987.000000
2565.398716	2147.000000
2566.847054	2108.000000
2568.298348	2086.000000
2569.747775	2254.000000
2571.193731	2181.000000
2572.642641	2115.000000
2574.088080	2237.000000
2575.534868	2226.000000
2576.979792	2244.000000
2578.424459	2218.000000
2579.870473	2247.000000
2581.313020	2236.000000
2582.756915	2222.000000
2584.197345	2228.000000
2585.639123	2260.000000
2587.079040	2271.000000
2588.520305	2213.000000
2589.958109	2269.000000
2591.398862	2275.000000
2592.834552	2420.000000
2594.273192	2349.000000
2595.709975	2384.000000
2597.144901	2368.000000
2598.582776	2331.000000
2600.015593	2301.000000
2601.449756	2316.000000
2602.882066	2381.000000
2604.315722	2356.000000
2605.747525	2467.000000
2607.179075	2434.000000
2608.610371	2473.000000
2610.039816	2598.000000
2611.469008	2537.000000
2612.896349	2701.000000
2614.325037	2588.000000
2615.753472	2866.000000
2617.178460	2858.000000
2618.604795	2858.000000
2620.029281	2993.000000
2621.455113	2770.000000
2622.877501	3050.000000
2624.301235	3248.000000
2625.723123	3058.000000
2627.144760	3102.000000
2628.564552	3246.000000
2629.985690	3303.000000
2631.406578	3417.000000
2632.824028	3445.000000
2634.244417	3552.000000
2635.661369	3620.000000
2637.078073	3731.000000
2638.494528	3818.000000
2639.910735	3909.000000
2641.326693	4056.000000
2642.740811	4307.000000
2644.154682	4445.000000
2645.566713	4428.000000
2646.980089	4662.000000
2648.390035	5009.000000
2649.802916	5189.000000
2651.212370	5455.000000
2652.621577	5543.000000
2654.028948	6076.000000
2655.439253	6448.000000
2656.847722	6732.000000
2658.254356	7317.000000
2659.660745	7608.000000
2661.065300	8122.000000
2662.471199	8663.000000
2663.875265	9400.000000
2665.279087	10117.000000
2666.682664	10948.000000
2668.084409	12114.000000
2669.487498	13175.000000
2670.887170	14561.000000
2672.288184	15702.000000
2673.685783	17005.000000
2675.086312	18195.000000
2676.483426	19862.000000
2677.881883	21480.000000
2679.278512	22810.000000
2680.674899	24384.000000
2682.071045	25429.000000
2683.465364	26367.000000
2684.861026	27455.000000
2686.253278	27894.000000
2687.646874	27883.000000
2689.038645	27916.000000
2690.431758	26748.000000
2691.823048	26221.000000
2693.212515	25426.000000
2694.601743	23595.000000
2695.990730	22451.000000
2697.381060	20950.000000
2698.766405	19486.000000
2700.154674	17899.000000
2701.541123	15893.000000
2702.927333	15007.000000
2704.313305	13810.000000
2705.695878	12773.000000
2707.079792	11432.000000
2708.463469	10516.000000
2709.846908	9645.000000
2711.226951	8707.000000
2712.608336	8317.000000
2713.987905	7574.000000
2715.368816	7147.000000
2716.747912	6566.000000
2718.125193	6128.000000
2719.503816	6010.000000
2720.880626	5482.000000
2722.257200	5297.000000
2723.633538	4872.000000
2725.008064	4784.000000
2726.383931	4516.000000
2727.756411	4193.000000
2729.131808	4083.000000
2730.502243	3985.000000
2731.874020	3791.000000
2733.245563	3686.000000
2734.615297	3405.000000
2735.986371	3427.000000
2737.355638	3201.000000
2738.724671	3163.000000
2740.091897	2992.000000
2741.458891	3018.000000
2742.825652	2797.000000
2744.192180	2758.000000
2745.556903	2696.000000
2746.921395	2786.000000
2748.285654	2694.000000
2749.649682	2544.000000
2751.013477	2356.000000
2752.373899	2472.000000
2753.737232	2396.000000
2755.095622	2337.000000
2756.456922	2381.000000
2757.814851	2326.000000
2759.175690	2279.000000
2760.534728	2240.000000
2761.890398	2212.000000
2763.248976	2152.000000
2764.604188	2108.000000
2765.959170	2121.000000
2767.312355	2083.000000
2768.668447	2129.000000
2770.021175	2157.000000
2771.373674	2158.000000
2772.725945	2074.000000
2774.079555	2151.000000
2775.429803	2016.000000
2776.778258	2054.000000
2778.129617	2074.000000
2779.477617	1915.000000
2780.826956	2034.000000
2782.174502	2051.000000
2783.521821	1960.000000
2784.868914	1914.000000
2786.214216	1933.000000
2787.559292	1901.000000
2788.904142	2048.000000
2790.248765	1952.000000
2791.590037	1958.000000
2792.932647	1914.000000
2794.275031	1890.000000
2795.617191	1808.000000
2796.956001	1999.000000
2798.297710	1938.000000
2799.636072	1878.000000
2800.975771	2076.000000
2802.313684	1913.000000
2803.649813	1915.000000
2804.985719	1892.000000
2806.322961	1861.000000
2807.658420	1927.000000
2808.993656	1850.000000
2810.327110	1850.000000
2811.661900	1850.000000
2812.993349	1893.000000
2814.327694	1863.000000
2815.657141	1908.000000
2816.987925	1774.000000
2818.318487	1906.000000
2819.647270	1844.000000
2820.977390	1755.000000
2822.305730	1893.000000
2823.633850	1758.000000
2824.960193	1647.000000
2826.287871	1861.000000
2827.612217	1703.000000
2828.937898	1856.000000
2830.261804	1770.000000
2831.585491	1783.000000
2832.910513	1692.000000
2834.232206	1742.000000
2835.553679	1701.000000
2836.874934	1706.000000
2838.195970	1687.000000
2839.515234	1793.000000
2840.835833	1788.000000
2842.154660	1643.000000
2843.473269	1608.000000
2844.790108	1674.000000
2846.106729	1702.000000
2847.423132	1619.000000
2848.737767	1603.000000
2850.053736	1665.000000
2851.366385	1664.000000
2852.680370	1622.000000
2853.994138	1723.000000
2855.307689	1642.000000
2856.619473	1606.000000
2857.929492	1611.000000
2859.240844	1598.000000
2860.548882	1682.000000
2861.858255	1641.000000
2863.167412	1722.000000
2864.476354	1623.000000
2865.783533	1596.000000
2867.088948	1574.000000
2868.395698	1734.000000
2869.700685	1701.000000
2871.005459	1588.000000
2872.308471	1628.000000
2873.614365	1554.000000
2874.915403	1584.000000
2876.217776	1611.000000
2877.518389	1562.000000
2878.820336	1575.000000
2880.122070	1558.000000
2881.420500	1503.000000
2882.720263	1553.000000
2884.018268	1518.000000
2885.316062	1559.000000
2886.612100	1552.000000
2887.909471	1525.000000
2889.205086	1548.000000
2890.500490	1529.000000
2891.795684	1542.000000
2893.087579	1546.000000
2894.382351	1467.000000
2895.673826	1543.000000
2896.966635	1491.000000
2898.259232	1444.000000
2899.548536	1486.000000
2900.839172	1443.000000
2902.128057	1557.000000
2903.418275	1433.000000
2904.705201	1595.000000
2905.993459	1667.000000
2907.279967	1531.000000
2908.566268	1484.000000
2909.852360	1577.000000
2911.136704	1577.000000
2912.423920	1564.000000
2913.706309	1505.000000
2914.990029	1419.000000
2916.272004	1410.000000
2917.553772	1513.000000
2918.833794	1444.000000
2920.116686	1481.000000
2921.397833	1497.000000
2922.675698	1388.000000
2923.956432	1480.000000
2925.233885	1513.000000
2926.511133	1550.000000
2927.786638	1455.000000
2929.065011	1553.000000
2930.338569	1417.000000
2931.614995	1466.000000
2932.889680	1498.000000
2934.162625	1599.000000
2935.436900	1528.000000
2936.709436	1342.000000
2937.981768	1464.000000
2939.250827	1463.000000
2940.522750	1470.000000
2941.792936	1493.000000
2943.062919	1472.000000
2944.332698	1571.000000
2945.600740	1422.000000
2946.867047	1446.000000
2948.133151	1415.000000
2949.400585	1377.000000
2950.666285	1478.000000
2951.931782	1480.000000
2953.197077	1374.000000
2954.459107	1283.000000
2955.722468	1395.000000
2956.985627	1433.000000
2958.247053	1351.000000
2959.509809	1348.000000
2960.770834	1421.000000
2962.030128	1369.000000
2963.289221	1360.000000
2964.548114	1401.000000
2965.806807	1369.000000
2967.065300	1348.000000
2968.322064	1346.000000
2969.578628	1430.000000
2970.833465	1365.000000
2972.089631	1434.000000
2973.342541	1357.000000
2974.596781	1371.000000
2975.850822	1412.000000
2977.103137	1360.000000
2978.355254	1378.000000
2979.605646	1326.000000
2980.858893	1409.000000
2982.107363	1374.000000
2983.358687	1315.000000
2984.606763	1438.000000
2985.854641	1370.000000
2987.102322	1406.000000
2988.349807	1422.000000
2989.595570	1315.000000
2990.841136	1294.000000
2992.088031	1337.000000
2993.331680	1302.000000
2994.576658	1323.000000
2995.818393	1447.000000
2997.062979	1290.000000
2998.305845	1349.000000
2999.545471	1303.000000
3000.787948	1271.000000
3002.027184	1387.000000
3003.267748	1354.000000
3004.506595	1372.000000
3005.745248	1253.000000
3006.982185	1321.000000
3008.220449	1277.000000
3009.456999	1319.000000
3010.693354	1297.000000
3011.929516	1370.000000
3013.163965	1272.000000
3014.398220	1380.000000
3015.632282	1238.000000
3016.864632	1246.000000
3018.095270	1252.000000
3019.328754	1318.000000
3020.560526	1419.000000
3021.790588	1248.000000
3023.020458	1238.000000
3024.248618	1347.000000
3025.478104	1284.000000
3026.705882	1331.000000
3027.933468	1341.000000
3029.162380	1287.000000
3030.386550	1219.000000
3031.613563	1254.000000
3032.837353	1250.000000
3034.062468	1320.000000
3035.285877	1317.000000
3036.509097	1213.000000
3037.730611	1294.000000
3038.954966	1170.000000
3040.174586	1171.000000
3041.395531	1236.000000
3042.616288	1238.000000
3043.835341	1157.000000
3045.055720	1284.000000
3046.272882	1257.000000
3047.491369	1273.000000
3048.708155	1217.000000
3049.924752	1230.000000
3051.141162	1197.000000
3052.354358	1298.000000
3053.570392	1256.000000
3054.783214	1356.000000
3055.998873	1172.000000
3057.209809	1206.000000
3058.422070	1222.000000
3059.634145	1329.000000
3060.846033	1206.000000
3062.056223	1259.000000
3063.266227	1174.000000
3064.476046	1246.000000
3065.684168	1202.000000
3066.892104	1106.000000
3068.098346	1221.000000
3069.305911	1166.000000
3070.511783	1173.000000
3071.717469	1180.000000
3072.922970	1144.000000
3074.126779	1178.000000
3075.331911	1132.000000
3076.535350	1219.000000
3077.737097	1161.000000
3078.938661	1179.000000
3080.140041	1163.000000
3081.341237	1067.000000
3082.540743	1157.000000
3083.740065	1216.000000
3084.940711	1145.000000
3086.139668	1121.000000
3087.335429	1099.000000
3088.534020	1153.000000
3089.729417	1054.000000
3090.926137	1088.000000
3092.119665	1160.000000
3093.316022	1178.000000
3094.510691	1160.000000
3095.702170	1226.000000
3096.897980	1188.000000
3098.089097	1193.000000
3099.281536	1085.000000
3100.470788	1031.000000
3101.662866	1161.000000
3102.853259	1119.000000
3104.040467	1028.000000
3105.228998	1015.000000
3106.418851	1087.000000
3107.605519	1032.000000
3108.792008	1193.000000
3109.978317	1121.000000
3111.165948	1123.000000
3112.350398	1168.000000
3113.533167	1118.000000
3114.718760	1086.000000
3115.902672	1094.000000
3117.084906	1139.000000
3118.266962	1168.000000
3119.448839	1084.000000
3120.630538	1107.000000
3121.810559	1192.000000
3122.988904	1113.000000
3124.170070	1137.000000
3125.348060	1166.000000
3126.525873	1031.000000
3127.703509	1039.000000
3128.879470	1062.000000
3130.055255	1154.000000
3131.232360	1048.000000
3132.407791	1123.000000
3133.581549	1152.000000
3134.753635	1027.000000
3135.927041	1064.000000
3137.100272	1064.000000
3138.271830	1139.000000
3139.444710	1214.000000
3140.614422	1155.000000
3141.785455	1043.000000
3142.954817	1109.000000
3144.122510	1071.000000
3145.293018	1020.000000
3146.458867	1171.000000
3147.629026	1054.000000
3148.794527	1070.000000
3149.959855	1158.000000
3151.125009	1027.000000
3152.289989	1142.000000
3153.456290	1049.000000
3154.617937	1186.000000
3155.780905	1104.000000
3156.943699	1047.000000
3158.106321	1054.000000
3159.267278	1100.000000
3160.428062	1128.000000
3161.588674	1079.000000
3162.747623	1007.000000
3163.906399	1182.000000
3165.065004	1051.000000
3166.223437	1151.000000
3167.381698	1081.000000
3168.538297	1047.000000
3169.693235	997.000000
3170.849492	1129.000000
3172.004089	1027.000000
3173.158514	1025.000000
3174.311280	1021.000000
3175.463876	1103.000000
3176.616301	986.000000
3177.768557	1052.000000
3178.920643	1018.000000
3180.069582	1169.000000
3181.221328	1089.000000
3182.371417	978.000000
3183.519848	1075.000000
3184.668111	1104.000000
3185.816204	982.000000
3186.964129	1109.000000
3188.110399	1034.000000
3189.256500	1034.000000
3190.400946	1019.000000
3191.545225	1058.000000
3192.689336	1042.000000
3193.834765	1036.000000
3194.977055	1103.000000
3196.119177	1066.000000
3197.261133	1059.000000
3198.402921	1080.000000
3199.544542	1057.000000
3200.683027	1054.000000
3201.822830	1122.000000
3202.963951	1023.000000
3204.101937	1032.000000
3205.238274	1071.000000
3206.374445	1034.000000
3207.511934	1074.000000
3208.647774	1061.000000
3209.784930	1147.000000
3210.917474	1057.000000
3212.054300	1018.000000
3213.186514	967.000000
3214.320046	1058.000000
3215.453412	1117.000000
3216.583651	1014.000000
3217.716688	1121.000000
3218.846599	1073.000000
3219.977827	996.000000
3221.105929	1090.000000
3222.236828	1110.000000
3223.366084	1227.000000
3224.493695	1188.000000
3225.618185	1229.000000
3226.746950	1207.000000
3227.872593	1280.000000
3228.998073	1335.000000
3230.121912	1329.000000
3231.248545	1356.000000
3232.370581	1308.000000
3233.493933	1381.000000
3234.617123	1545.000000
3235.740151	1520.000000
3236.861539	1653.000000
3237.982766	1713.000000
3239.102354	1799.000000
3240.221781	1744.000000
3241.339570	1849.000000
3242.460152	1736.000000
3243.577619	1882.000000
3244.694927	1995.000000
3245.812073	1903.000000
3246.927584	1918.000000
3248.044410	1771.000000
3249.158125	1769.000000
3250.274631	1747.000000
3251.389501	1715.000000
3252.501263	1632.000000
3253.612866	1441.000000
3254.725783	1340.000000
3255.838542	1315.000000
3256.948194	1275.000000
3258.059161	1181.000000
3259.169969	1281.000000
3260.279145	1207.000000
3261.386690	1178.000000
3262.495550	1057.000000
3263.604251	1063.000000
3264.709850	1044.000000
3265.816764	1168.000000
3266.922048	1078.000000
3268.028646	978.000000
3269.132144	1085.000000
3270.236956	971.000000
3271.341611	905.000000
3272.443167	1026.000000
3273.544568	1001.000000
3274.647282	1037.000000
3275.749839	981.000000
3276.849301	1001.000000
3277.951545	1035.000000
3279.050695	979.000000
3280.148219	888.000000
3281.245588	926.000000
3282.345740	958.000000
3283.442798	904.000000
3284.539701	975.000000
3285.636450	905.000000
3286.728639	1029.000000
3287.825078	820.000000
3288.919894	873.000000
3290.014555	973.000000
3291.107595	912.000000
3292.200481	958.000000
3293.291746	874.000000
3294.384324	989.000000
3295.475281	982.000000
3296.564620	911.000000
3297.653804	961.000000
3298.744302	848.000000
3299.831715	972.000000
3300.918976	920.000000
3302.007549	917.000000
3303.095969	942.000000
3304.179842	944.000000
3305.267957	941.000000
3306.352991	908.000000
3307.436409	868.000000
3308.521138	906.000000
3309.604253	939.000000
3310.688679	848.000000
3311.770027	897.000000
3312.852687	905.000000
3313.933733	992.000000
3315.014628	919.000000
3316.093910	899.000000
3317.173041	970.000000
3318.253483	921.000000
3319.330852	849.000000
3320.409532	909.000000
3321.486600	937.000000
3322.563518	992.000000
3323.638825	902.000000
3324.713983	863.000000
3325.790453	918.000000
3326.863851	962.000000
3327.937101	889.000000
3329.011662	1008.000000
3330.084613	931.000000
3331.155957	906.000000
3332.228611	762.000000
3333.298198	947.000000
3334.369096	925.000000
3335.438387	927.000000
3336.508989	827.000000
3337.577984	898.000000
3338.645373	831.000000
3339.711157	834.000000
3340.781167	919.000000
3341.848114	964.000000
3342.911999	873.000000
3343.978652	871.000000
3345.043700	981.000000
3346.107146	859.000000
3347.170444	906.000000
3348.233597	872.000000
3349.296603	933.000000
3350.359462	930.000000
3351.420720	963.000000
3352.478921	834.000000
3353.541343	852.000000
3354.600708	915.000000
3355.659928	783.000000
3356.720458	796.000000
3357.776478	796.000000
3358.835263	921.000000
3359.889540	947.000000
3360.946580	925.000000
3362.002023	901.000000
3363.058774	933.000000
3364.113928	874.000000
3365.167484	961.000000
3366.219443	816.000000
3367.274164	910.000000
3368.325836	886.000000
3369.377365	840.000000
3370.430203	828.000000
3371.479993	947.000000
3372.531091	955.000000
3373.579144	976.000000
3374.629957	826.000000
3375.677724	897.000000
3376.725349	811.000000
3377.772832	900.000000
3378.818721	952.000000
3379.865919	818.000000
3380.910075	902.000000
3381.956989	882.000000
3383.002311	878.000000
3384.044593	841.000000
3385.086733	911.000000
3386.130181	854.000000
3387.173489	942.000000
3388.215206	822.000000
3389.256782	904.000000
3390.298218	812.000000
3391.338064	766.000000
3392.376323	808.000000
3393.415889	809.000000
3394.455314	829.000000
3395.493153	810.000000
3396.529404	800.000000
3397.565515	784.000000
3398.602934	860.000000
3399.637320	838.000000
3400.673013	828.000000
3401.708567	748.000000
3402.741090	821.000000
3403.776366	851.000000
3404.808611	856.000000
3405.840718	805.000000
3406.871241	827.000000
3407.903072	874.000000
3408.934763	866.000000
3409.963428	814.000000
3410.991954	825.000000
3412.021788	871.000000
3413.051483	826.000000
3414.078153	827.000000
3415.106130	822.000000
3416.131082	714.000000
3417.158784	791.000000
3418.183463	843.000000
3419.209448	883.000000
3420.233853	784.000000
3421.258122	816.000000
3422.280812	847.000000
3423.303366	794.000000
3424.327226	909.000000
3425.348066	815.000000
3426.368771	864.000000
3427.390781	798.000000
3428.409773	779.000000
3429.428630	760.000000
3430.448792	817.000000
3431.465938	839.000000
