-118.089238	98.000000
-115.419638	43.000000
-112.752973	-27.000000
-110.087060	20.000000
-107.424080	43.000000
-104.759669	28.000000
-102.098189	18.000000
-99.435280	37.000000
-96.777477	-17.000000
-94.118245	-12.000000
-91.459761	-17.000000
-88.804202	28.000000
-86.147213	39.000000
-83.495323	-10.000000
-80.842003	-4.000000
-78.191602	26.000000
-75.539772	-6.000000
-72.893033	22.000000
-70.244865	-30.000000
-67.597439	-28.000000
-64.952928	9.000000
-62.306987	52.000000
-59.666128	4.000000
-57.023840	38.000000
-54.384461	30.000000
-51.743652	51.000000
-49.103584	-15.000000
-46.468588	4.000000
-43.832164	35.000000
-41.198642	-77.000000
-38.563692	56.000000
-35.933807	-11.000000
-33.300330	115.000000
-30.671915	116.000000
-28.044234	88.000000
-25.415124	118.000000
-22.791071	169.000000
-20.163429	198.000000
-17.540840	225.000000
-14.918983	485.000000
-12.297856	847.000000
-9.677460	2129.000000
-7.059951	6372.000000
-4.441014	17803.000000
-1.824962	52385.000000
0.790361	64469.000000
3.404956	41969.000000
6.016670	4302.000000
8.629812	660.000000
11.237920	361.000000
13.849610	269.000000
16.456269	291.000000
19.064356	199.000000
21.671719	127.000000
24.274057	149.000000
26.879973	131.000000
29.480867	70.000000
32.083189	112.000000
34.680494	108.000000
37.281374	23.000000
39.877239	50.000000
42.474533	81.000000
45.071107	46.000000
47.662672	97.000000
50.255665	-6.000000
52.845797	29.000000
55.437357	-11.000000
58.026057	27.000000
60.616184	-37.000000
63.201312	70.000000
65.787868	69.000000
68.373710	45.000000
70.956698	30.000000
73.541112	18.000000
76.118398	23.000000
78.699250	83.000000
81.277253	27.000000
83.854546	25.000000
86.433265	66.000000
89.007002	22.000000
91.582167	48.000000
94.154488	84.000000
96.726101	43.000000
99.294874	62.000000
101.865074	44.000000
104.432435	64.000000
107.001223	84.000000
109.567174	60.000000
112.130290	33.000000
114.696962	178.000000
117.254413	99.000000
119.817549	160.000000
122.375725	167.000000
124.937456	359.000000
127.494230	409.000000
130.052430	618.000000
132.605678	927.000000
135.158228	1326.000000
137.714328	1806.000000
140.265480	2359.000000
142.815935	2934.000000
145.365692	3310.000000
147.912630	3516.000000
150.458873	3785.000000
153.006541	3880.000000
155.553513	3691.000000
158.095550	3725.000000
160.636893	3594.000000
163.177543	3695.000000
165.719619	3707.000000
168.258883	3756.000000
170.795339	3823.000000
173.331103	3710.000000
175.868293	3680.000000
178.404792	3462.000000
180.938485	3505.000000
183.469374	3556.000000
185.999576	3506.000000
188.531202	3465.000000
191.060027	3374.000000
193.586053	3459.000000
196.111393	3517.000000
198.638158	3415.000000
201.162127	3477.000000
203.685411	3418.000000
206.208010	3408.000000
208.727816	3537.000000
211.246939	3558.000000
213.765379	3573.000000
216.285243	3527.000000
218.798106	3661.000000
221.314500	3715.000000
223.830212	3751.000000
226.341034	3857.000000
228.853281	3762.000000
231.362746	3897.000000
233.871531	3884.000000
236.379639	3848.000000
238.889171	4017.000000
241.393822	3867.000000
243.897797	3681.000000
246.403196	3855.000000
248.903720	3738.000000
251.407768	3909.000000
253.904844	3730.000000
256.405444	3747.000000
258.903272	3834.000000
261.400427	3652.000000
263.896909	3813.000000
266.388528	3837.000000
268.883667	3886.000000
271.376039	3851.000000
273.867741	3878.000000
276.356680	3863.000000
278.847042	3845.000000
281.334643	3877.000000
283.819484	3878.000000
286.307840	3895.000000
288.789256	4032.000000
291.274186	4259.000000
293.754271	4349.000000
296.237868	4300.000000
298.716622	4304.000000
301.196799	4519.000000
303.674225	4374.000000
306.150987	4381.000000
308.627085	4224.000000
311.100436	4154.000000
313.573124	4160.000000
316.045151	4199.000000
318.516517	4279.000000
320.985138	4338.000000
323.453101	4271.000000
325.922485	4079.000000
328.387047	3966.000000
330.855113	3852.000000
333.318359	3783.000000
335.780947	3754.000000
338.242879	3708.000000
340.704154	3615.000000
343.162695	3736.000000
345.622658	3596.000000
348.079888	3559.000000
350.536464	3435.000000
352.992386	3446.000000
355.445578	3415.000000
357.900193	3423.000000
360.350006	3334.000000
362.803315	3254.000000
365.251825	3381.000000
367.699685	3210.000000
370.148967	3366.000000
372.593455	3072.000000
375.039365	3177.000000
377.484625	3105.000000
379.927167	3097.000000
382.369061	3145.000000
384.810308	3150.000000
387.248839	3065.000000
389.688792	3069.000000
392.126031	2991.000000
394.560558	2957.000000
396.998573	2921.000000
399.431811	3013.000000
401.866470	2945.000000
404.296357	2960.000000
406.729729	2885.000000
409.158331	2949.000000
411.586291	2909.000000
414.015673	2999.000000
416.440289	2888.000000
418.866327	2871.000000
421.291724	2779.000000
423.716481	2721.000000
426.136480	2804.000000
428.557899	2788.000000
430.976623	2826.000000
433.396767	2784.000000
435.814216	2717.000000
438.233085	2718.000000
440.649261	2565.000000
443.060689	2553.000000
445.475594	2538.000000
447.887810	2477.000000
450.299391	2369.000000
452.710338	2407.000000
455.118599	2253.000000
457.526227	2226.000000
459.933223	2145.000000
462.339588	2205.000000
464.743270	2194.000000
467.146322	2203.000000
469.548744	2152.000000
471.950536	2207.000000
474.349650	2245.000000
476.750184	2084.000000
479.150089	2182.000000
481.545272	2448.000000
483.943921	2422.000000
486.337850	2485.000000
488.731152	2394.000000
491.123830	2705.000000
493.515882	2682.000000
495.909352	3133.000000
498.298110	3459.000000
500.684202	4001.000000
503.071714	5185.000000
505.458603	6546.000000
507.842828	9329.000000
510.228471	13312.000000
512.611453	19479.000000
514.991774	26041.000000
517.373514	30981.000000
519.752595	31719.000000
522.133095	27872.000000
524.510937	22934.000000
526.886124	18699.000000
529.260693	15197.000000
531.636680	13046.000000
534.010015	11176.000000
536.384767	9747.000000
538.754834	8650.000000
541.124285	7815.000000
543.495154	7138.000000
545.861343	6562.000000
548.228949	6180.000000
550.593911	5815.000000
552.958259	5544.000000
555.321994	5289.000000
557.687147	5158.000000
560.047628	4765.000000
562.409527	4594.000000
564.768785	4516.000000
567.125405	4445.000000
569.485471	4076.000000
571.838845	4021.000000
574.195664	3930.000000
576.549848	3726.000000
578.903423	3633.000000
581.256391	3548.000000
583.606726	3411.000000
585.958479	3538.000000
588.303555	3323.000000
590.654095	3291.000000
592.997961	2938.000000
595.347289	3060.000000
597.691968	2931.000000
600.034023	3046.000000
602.377495	2842.000000
604.718344	3045.000000
607.058591	3060.000000
609.396217	3010.000000
611.737278	3228.000000
614.073701	3362.000000
616.411541	3381.000000
618.746764	3385.000000
621.079371	3165.000000
623.413394	3014.000000
625.744803	2918.000000
628.075614	2927.000000
630.405828	2745.000000
632.735443	2853.000000
635.060435	2734.000000
637.390869	2820.000000
639.716682	2774.000000
642.039887	2793.000000
644.364509	2769.000000
646.686525	2822.000000
649.007947	2573.000000
651.326767	2703.000000
653.647002	2621.000000
655.966644	2575.000000
658.283685	2655.000000
660.600134	2499.000000
662.913985	2686.000000
665.229252	2727.000000
667.541922	2668.000000
669.856007	2656.000000
672.165492	2608.000000
674.476393	2680.000000
676.784701	2590.000000
679.092421	2595.000000
681.401555	2586.000000
683.706097	2616.000000
686.010053	2332.000000
688.313423	2520.000000
690.618207	2432.000000
692.918404	2262.000000
695.220017	2204.000000
697.521044	2313.000000
699.817490	2169.000000
702.115351	2251.000000
704.412628	2244.000000
706.709322	2175.000000
709.001440	2149.000000
711.296969	2079.000000
713.587924	2028.000000
715.880294	2005.000000
718.170089	2112.000000
720.459303	2097.000000
722.747938	2098.000000
725.034000	2103.000000
727.321477	1993.000000
729.606382	2012.000000
731.890710	2033.000000
734.172469	2049.000000
736.455642	2020.000000
738.738238	1935.000000
741.016278	2163.000000
743.295733	1983.000000
745.574611	1961.000000
747.852915	1868.000000
750.126669	1974.000000
752.401836	1900.000000
754.676430	1888.000000
756.948465	1847.000000
759.221913	1899.000000
761.492803	1954.000000
763.761137	1922.000000
766.030884	1905.000000
768.298077	1942.000000
770.564699	1942.000000
772.830751	2010.000000
775.094252	2028.000000
777.359166	2081.000000
779.623510	2041.000000
781.883325	1995.000000
784.144552	1965.000000
786.405212	1995.000000
788.663326	1971.000000
790.918895	2111.000000
793.177855	2158.000000
795.430316	1883.000000
797.688143	2072.000000
799.941452	2048.000000
802.192221	2116.000000
804.444402	2001.000000
806.694044	2020.000000
808.945099	1898.000000
811.191642	1971.000000
813.439597	1984.000000
815.685018	2055.000000
817.931850	1891.000000
820.178121	1903.000000
822.419887	1976.000000
824.665037	1961.000000
826.903714	1966.000000
829.145773	1948.000000
831.383334	1890.000000
833.622307	1849.000000
835.858753	1967.000000
838.096610	1993.000000
840.331942	1963.000000
842.564751	1934.000000
844.798971	1861.000000
847.030668	1890.000000
849.261811	1809.000000
851.492399	1798.000000
853.722433	1920.000000
855.951913	1861.000000
858.176911	1811.000000
860.405284	1815.000000
862.629177	1725.000000
864.854482	1806.000000
867.075311	1841.000000
869.299512	1820.000000
871.519240	1832.000000
873.740378	1835.000000
875.960966	1966.000000
878.179045	1849.000000
880.398533	1752.000000
882.613555	1798.000000
884.828029	1786.000000
887.041956	1740.000000
889.255336	1787.000000
891.468168	1748.000000
893.680454	1801.000000
895.890237	1748.000000
898.099475	1624.000000
900.308168	1776.000000
902.514362	1775.000000
904.721965	1813.000000
906.927070	1796.000000
909.131632	1826.000000
911.333699	1925.000000
913.537175	1876.000000
915.738157	2015.000000
917.938597	2012.000000
920.140446	2101.000000
922.335904	2175.000000
924.534721	2309.000000
926.729099	2412.000000
928.926835	2710.000000
931.120135	3107.000000
933.314844	3286.000000
935.507067	3725.000000
937.698751	4076.000000
939.889898	4175.000000
942.078562	4320.000000
944.266690	4254.000000
946.452337	4331.000000
948.641336	4292.000000
950.825912	4326.000000
953.009953	4190.000000
955.197344	4171.000000
957.376431	4348.000000
959.558869	4473.000000
961.740773	4483.000000
963.920202	4630.000000
966.097159	4496.000000
968.275524	4626.000000
970.455296	4541.000000
972.628719	4650.000000
974.805488	4610.000000
976.977850	4614.000000
979.151620	4579.000000
981.320986	4389.000000
983.493696	4370.000000
985.663941	4048.000000
987.833657	3608.000000
990.002844	3312.000000
992.167634	3051.000000
994.335765	2881.000000
996.499501	2723.000000
998.664645	2573.000000
1000.827329	2490.000000
1002.989488	2476.000000
1005.149190	2399.000000
1007.308367	2352.000000
1009.468951	2261.000000
1011.627080	2257.000000
1013.784686	2234.000000
1015.941768	2162.000000
1018.098326	2138.000000
1020.250505	2017.000000
1022.404091	2115.000000
1024.557155	2074.000000
1026.707770	1948.000000
1028.859792	1844.000000
1031.007440	1887.000000
1033.158420	1890.000000
1035.305029	1966.000000
1037.451119	1771.000000
1039.596691	1918.000000
1041.743668	1854.000000
1043.884356	1892.000000
1046.028374	1787.000000
1048.169951	1892.000000
1050.311012	1828.000000
1052.453477	1771.000000
1054.589662	1887.000000
1056.729174	1872.000000
1058.864331	1783.000000
1061.002812	1893.000000
1063.136939	1826.000000
1065.270553	1752.000000
1067.405572	1728.000000
1069.536241	1754.000000
1071.668315	1813.000000
1073.797960	1822.000000
1075.927093	1836.000000
1078.055714	1802.000000
1080.183824	1787.000000
1082.309508	1715.000000
1084.434682	1741.000000
1086.561260	1781.000000
1088.683500	1773.000000
1090.807145	1746.000000
1092.926455	1676.000000
1095.050995	1777.000000
1097.169289	1609.000000
1099.288988	1749.000000
1101.406268	1670.000000
1103.523041	1747.000000
1105.639309	1653.000000
1107.753160	1703.000000
1109.868416	1697.000000
1111.979348	1696.000000
1114.093593	1586.000000
1116.203517	1623.000000
1118.314845	1736.000000
1120.425668	1687.000000
1122.532175	1609.000000
1124.641992	1630.000000
1126.747494	1572.000000
1128.854399	1590.000000
1130.955089	1656.000000
1133.060991	1591.000000
1135.162584	1559.000000
1137.265580	1528.000000
1139.368075	1612.000000
1141.464363	1625.000000
1143.565858	1558.000000
1145.663051	1524.000000
1147.759746	1504.000000
1149.855942	1475.000000
1151.951641	1521.000000
1154.046841	1670.000000
1156.139645	1495.000000
1158.233852	1618.000000
1160.321866	1686.000000
1162.415080	1567.000000
1164.502105	1495.000000
1166.592429	1652.000000
1168.678465	1467.000000
1170.767800	1511.000000
1172.850953	1454.000000
1174.935508	1640.000000
1177.021465	1577.000000
1179.103140	1470.000000
1181.186217	1584.000000
1183.266908	1519.000000
1185.347107	1518.000000
1187.426815	1455.000000
1189.506032	1601.000000
1191.582867	1589.000000
1193.657320	1414.000000
1195.735066	1470.000000
1197.808542	1582.000000
1199.883418	1451.000000
1201.954027	1429.000000
1204.026037	1416.000000
1206.095672	1453.000000
1208.166706	1393.000000
1210.237254	1490.000000
1212.303540	1401.000000
1214.371227	1409.000000
1216.436542	1369.000000
1218.503257	1473.000000
1220.565716	1514.000000
1222.631460	1499.000000
1224.692950	1493.000000
1226.755841	1507.000000
1228.816364	1475.000000
1230.876403	1559.000000
1232.935960	1496.000000
1234.993151	1463.000000
1237.049861	1578.000000
1239.104207	1546.000000
1241.161835	1544.000000
1243.217100	1570.000000
1245.268124	1540.000000
1247.320548	1508.000000
1249.372492	1577.000000
1251.422078	1587.000000
1253.471185	1517.000000
1255.519814	1631.000000
1257.567964	1561.000000
1259.615635	1713.000000
1261.659076	1568.000000
1263.705793	1649.000000
1265.750156	1566.000000
1267.794043	1659.000000
1269.835578	1621.000000
1271.874764	1610.000000
1273.917223	1589.000000
1275.955459	1607.000000
1277.995094	1560.000000
1280.034254	1489.000000
1282.069195	1470.000000
1284.105535	1575.000000
1286.139531	1514.000000
1288.174924	1527.000000
1290.206105	1465.000000
1292.238683	1481.000000
1294.270790	1624.000000
1296.300556	1526.000000
1298.331719	1538.000000
1300.358676	1479.000000
1302.387030	1651.000000
1304.411179	1577.000000
1306.438594	1526.000000
1308.461806	1593.000000
1310.486416	1554.000000
1312.508692	1542.000000
1314.532365	1493.000000
1316.553704	1551.000000
1318.574577	1479.000000
1320.594982	1379.000000
1322.611194	1527.000000
1324.628803	1481.000000
1326.644084	1434.000000
1328.662624	1570.000000
1330.676975	1554.000000
1332.688999	1490.000000
1334.704282	1531.000000
1336.715379	1474.000000
1338.727873	1612.000000
1340.736184	1552.000000
1342.747750	1574.000000
1344.753278	1532.000000
1346.762061	1590.000000
1348.766666	1660.000000
1350.774525	1650.000000
1352.781922	1687.000000
1354.783288	1712.000000
1356.786050	1585.000000
1358.788353	1565.000000
1360.790196	1522.000000
1362.791579	1650.000000
1364.790649	1503.000000
1366.789260	1689.000000
1368.787413	1491.000000
1370.785107	1540.000000
1372.778639	1568.000000
1374.773566	1552.000000
1376.768037	1557.000000
1378.762051	1558.000000
1380.753758	1481.000000
1382.745009	1601.000000
1384.733955	1520.000000
1386.724297	1467.000000
1388.714183	1401.000000
1390.701765	1483.000000
1392.688894	1465.000000
1394.673721	1457.000000
1396.659943	1500.000000
1398.643864	1493.000000
1400.627333	1462.000000
1402.610350	1375.000000
1404.591069	1487.000000
1406.573182	1434.000000
1408.552999	1427.000000
1410.532364	1576.000000
1412.507591	1480.000000
1414.486056	1484.000000
1416.462228	1482.000000
1418.437951	1534.000000
1420.413224	1476.000000
1422.386206	1457.000000
1424.358740	1508.000000
1426.330826	1529.000000
1428.302465	1417.000000
1430.269975	1487.000000
1432.242559	1469.000000
1434.207337	1498.000000
1436.177188	1387.000000
1438.142915	1465.000000
1440.110034	1550.000000
1442.074870	1437.000000
1444.035586	1432.000000
1446.001370	1402.000000
1447.961199	1503.000000
1449.922422	1581.000000
1451.885037	1561.000000
1453.843537	1570.000000
1455.801594	1483.000000
1457.759210	1560.000000
1459.716383	1515.000000
1461.671281	1517.000000
1463.627572	1567.000000
1465.581588	1464.000000
1467.535163	1499.000000
1469.486466	1622.000000
1471.439162	1537.000000
1473.389585	1544.000000
1475.339570	1425.000000
1477.289116	1520.000000
1479.236393	1425.000000
1481.181402	1525.000000
1483.127804	1459.000000
1485.073768	1483.000000
1487.019295	1502.000000
1488.962556	1429.000000
1490.905382	1491.000000
1492.845944	1440.000000
1494.787897	1452.000000
1496.727588	1488.000000
1498.666845	1543.000000
1500.605666	1550.000000
1502.542228	1612.000000
1504.480181	1543.000000
1506.415875	1616.000000
1508.351136	1610.000000
1510.284141	1535.000000
1512.216713	1634.000000
1514.148853	1720.000000
1516.080561	1670.000000
1518.010015	1586.000000
1519.940860	1700.000000
1521.871273	1674.000000
1523.797614	1661.000000
1525.725345	1812.000000
1527.650827	1803.000000
1529.575879	1686.000000
1531.500502	1799.000000
1533.424695	1745.000000
1535.346642	1881.000000
1537.269979	1820.000000
1539.191069	1928.000000
1541.109915	1890.000000
1543.030151	2045.000000
1544.948144	1965.000000
1546.865710	2085.000000
1548.781034	2147.000000
1550.697748	2337.000000
1552.610407	2257.000000
1554.526270	2457.000000
1556.439893	2615.000000
1558.351278	2650.000000
1560.264053	2719.000000
1562.172778	2999.000000
1564.082892	3323.000000
1565.992583	3634.000000
1567.901851	3987.000000
1569.808885	4528.000000
1571.713686	4962.000000
1573.619876	5752.000000
1575.523834	6287.000000
1577.427371	6876.000000
1579.330488	7284.000000
1581.231375	7480.000000
1583.133651	7308.000000
1585.033699	6970.000000
1586.935134	6464.000000
1588.832536	6020.000000
1590.729519	5323.000000
1592.626084	4789.000000
1594.524037	4457.000000
1596.416155	3931.000000
1598.311466	3475.000000
1600.206360	3030.000000
1602.099032	2803.000000
1603.991287	2637.000000
1605.881323	2330.000000
1607.770943	2266.000000
1609.660148	2313.000000
1611.548938	2076.000000
1613.435510	1959.000000
1615.323470	1968.000000
1617.207413	1962.000000
1619.092743	1961.000000
1620.977660	1885.000000
1622.860363	1730.000000
1624.744453	1631.000000
1626.624531	1603.000000
1628.505997	1549.000000
1630.385252	1505.000000
1632.265893	1382.000000
1634.140730	1370.000000
1636.020548	1434.000000
1637.896362	1401.000000
1639.771765	1387.000000
1641.648554	1320.000000
1643.519547	1397.000000
1645.393721	1347.000000
1647.263896	1267.000000
1649.137252	1308.000000
1651.008405	1257.000000
1652.877357	1151.000000
1654.747693	1226.000000
1656.614037	1216.000000
1658.481766	1245.000000
1660.347296	1215.000000
1662.214212	1180.000000
1664.077139	1119.000000
1665.941451	1067.000000
1667.803567	1191.000000
1669.665278	1162.000000
1671.528375	1139.000000
1673.389276	1200.000000
1675.247985	1130.000000
1677.106290	1046.000000
1678.965979	1118.000000
1680.819902	1072.000000
1682.676998	1097.000000
1684.533690	973.000000
1686.386407	1017.000000
1688.242295	1024.000000
1690.094209	986.000000
1691.945722	1023.000000
1693.796834	1049.000000
1695.647546	981.000000
1697.497856	962.000000
1699.345983	987.000000
1701.195494	1044.000000
1703.039256	1049.000000
1704.887967	1023.000000
1706.730932	1005.000000
1708.577064	970.000000
1710.419233	978.000000
1712.264568	993.000000
1714.104162	958.000000
1715.945140	971.000000
1717.787501	1030.000000
1719.625906	1043.000000
1721.465694	995.000000
1723.303306	984.000000
1725.140524	940.000000
1726.975568	944.000000
1728.811995	974.000000
1730.646250	996.000000
1732.480110	1007.000000
1734.313576	990.000000
1736.143097	1016.000000
1737.975776	922.000000
1739.804511	947.000000
1741.636403	974.000000
1743.464353	990.000000
1745.291912	949.000000
1747.119078	984.000000
1748.945853	890.000000
1750.772236	888.000000
1752.594683	961.000000
1754.420285	917.000000
1756.241952	958.000000
1758.065001	904.000000
1759.885888	944.000000
1761.706387	977.000000
1763.528266	907.000000
1765.344447	946.000000
1767.163779	1022.000000
1768.979183	883.000000
1770.797739	935.000000
1772.612369	968.000000
1774.426612	857.000000
1776.240469	977.000000
1778.053939	926.000000
1779.865256	924.000000
1781.677953	919.000000
1783.490265	951.000000
1785.298658	975.000000
1787.108433	937.000000
1788.914293	887.000000
1790.723298	926.000000
1792.528390	898.000000
1794.334863	902.000000
1796.140952	921.000000
1797.943130	954.000000
1799.748453	944.000000
1801.549867	888.000000
1803.352661	890.000000
1805.151549	929.000000
1806.951818	944.000000
1808.751705	805.000000
1810.549450	802.000000
1812.346815	937.000000
1814.143800	859.000000
1815.940404	875.000000
1817.734869	901.000000
1819.530713	940.000000
1821.320902	951.000000
1823.115988	846.000000
1824.905422	924.000000
1826.697992	855.000000
1828.488427	933.000000
1830.276728	942.000000
1832.068164	988.000000
1833.853954	918.000000
1835.641124	976.000000
1837.426162	917.000000
1839.214334	979.000000
1840.998620	982.000000
1842.780776	875.000000
1844.564312	890.000000
1846.345719	919.000000
1848.128505	998.000000
1849.907410	988.000000
1851.687694	890.000000
1853.465853	959.000000
1855.245390	934.000000
1857.022802	1037.000000
1858.798090	874.000000
1860.574756	909.000000
1862.349300	860.000000
1864.125222	999.000000
1865.895523	889.000000
1867.668952	978.000000
1869.440261	967.000000
1871.211199	968.000000
1872.983515	974.000000
1874.750217	951.000000
1876.520045	976.000000
1878.286009	944.000000
1880.055096	997.000000
1881.820322	935.000000
1883.585180	920.000000
1885.351415	974.000000
1887.113791	942.000000
1888.875800	963.000000
1890.637441	878.000000
1892.398716	964.000000
1894.159623	911.000000
1895.920164	994.000000
1897.678595	924.000000
1899.436660	1024.000000
1901.192618	852.000000
1902.949952	890.000000
1904.706921	849.000000
1906.461783	853.000000
1908.214541	873.000000
1909.966934	838.000000
1911.720704	791.000000
1913.472370	889.000000
1915.221934	903.000000
1916.972873	851.000000
1918.723450	811.000000
1920.470187	884.000000
1922.218301	833.000000
1923.964315	940.000000
1925.711704	850.000000
1927.456996	938.000000
1929.200190	847.000000
1930.944759	885.000000
1932.687232	785.000000
1934.429346	895.000000
1936.171099	899.000000
1937.912492	854.000000
1939.651792	843.000000
1941.390733	873.000000
1943.129315	820.000000
1944.865806	954.000000
1946.601939	902.000000
1948.339446	850.000000
1950.073131	763.000000
1951.808191	853.000000
1953.541162	882.000000
1955.273777	829.000000
1957.006036	807.000000
1958.737938	848.000000
1960.467754	787.000000
1962.195485	760.000000
1963.924591	861.000000
1965.653341	910.000000
1967.380009	884.000000
1969.106322	868.000000
1970.834008	858.000000
1972.556158	877.000000
1974.281409	839.000000
1976.002853	902.000000
1977.727398	861.000000
1979.449862	855.000000
1981.168524	919.000000
1982.890284	912.000000
1984.608242	890.000000
1986.327573	865.000000
1988.043105	836.000000
1989.763457	910.000000
1991.480011	847.000000
1993.192768	847.000000
1994.908621	895.000000
1996.622402	885.000000
1998.335833	851.000000
2000.047193	904.000000
2001.759925	870.000000
2003.468867	892.000000
2005.180901	885.000000
2006.887426	874.000000
2008.597044	929.000000
2010.304595	864.000000
2012.011797	838.000000
2013.716934	855.000000
2015.421725	925.000000
2017.127887	937.000000
2018.830267	828.000000
2020.534018	942.000000
2022.235707	836.000000
2023.937051	835.000000
2025.638049	853.000000
2027.336986	845.000000
2029.037295	763.000000
2030.733828	920.000000
2032.431734	860.000000
2034.127580	911.000000
2035.826512	805.000000
2037.519958	798.000000
2039.214775	788.000000
2040.909250	800.000000
2042.599956	784.000000
2044.293746	867.000000
2045.983769	772.000000
2047.675163	820.000000
2049.364504	779.000000
2051.055215	891.000000
2052.742163	874.000000
2054.428772	870.000000
2056.116750	780.000000
2057.800969	800.000000
2059.486559	860.000000
2061.171809	876.000000
2062.855010	842.000000
2064.539582	844.000000
2066.218691	817.000000
2067.902585	748.000000
2069.581018	788.000000
2071.262529	777.000000
2072.940288	812.000000
2074.617711	817.000000
2076.296503	774.000000
2077.973253	904.000000
2079.647961	755.000000
2081.324038	884.000000
2082.998074	799.000000
2084.671776	715.000000
2086.345142	837.000000
2088.016469	768.000000
2089.687462	821.000000
2091.358121	854.000000
2093.028446	796.000000
2094.698437	891.000000
2096.366392	805.000000
2098.034014	817.000000
2099.699601	749.000000
2101.366557	825.000000
2103.031480	858.000000
2104.696071	859.000000
2106.358630	829.000000
2108.022557	889.000000
2109.684453	781.000000
2111.346019	834.000000
2113.007253	774.000000
2114.666459	883.000000
2116.325334	803.000000
2117.983880	785.000000
2119.642095	768.000000
2121.296588	793.000000
2122.954145	864.000000
2124.611372	792.000000
2126.264879	711.000000
2127.919753	694.000000
2129.570908	817.000000
2131.225126	679.000000
2132.875626	700.000000
2134.527494	728.000000
2136.173953	699.000000
2137.825167	761.000000
2139.472667	730.000000
2141.121534	723.000000
2142.768382	709.000000
2144.414905	904.000000
2146.061102	819.000000
2147.703591	718.000000
2149.349138	816.000000
2150.990978	775.000000
2152.635875	754.000000
2154.277066	776.000000
2155.917935	820.000000
2157.558479	767.000000
2159.197011	786.000000
2160.836909	861.000000
2162.473107	831.000000
2164.110671	757.000000
2165.747913	828.000000
2167.383145	789.000000
2169.018055	717.000000
2170.652644	868.000000
2172.286912	757.000000
2173.917486	766.000000
2175.551112	803.000000
2177.181046	801.000000
2178.812345	713.000000
2180.441639	817.000000
2182.070614	801.000000
2183.699269	862.000000
2185.327605	743.000000
2186.953939	785.000000
2188.579954	767.000000
2190.203967	813.000000
2191.829346	752.000000
2193.452724	832.000000
2195.077467	813.000000
2196.698529	832.000000
2198.319274	805.000000
2199.941384	768.000000
2201.561496	776.000000
2203.179611	859.000000
2204.797411	825.000000
2206.414896	795.000000
2208.032065	745.000000
2209.648919	880.000000
2211.265457	778.000000
2212.880003	697.000000
2214.492556	744.000000
2216.106473	823.000000
2217.718399	753.000000
2219.331688	808.000000
2220.942987	703.000000
2222.552296	737.000000
2224.162969	746.000000
2225.771653	747.000000
2227.380024	746.000000
2228.986409	720.000000
2230.594156	689.000000
2232.199918	751.000000
2233.805368	778.000000
2235.408833	698.000000
2237.013661	743.000000
2238.616505	799.000000
2240.217366	744.000000
2241.819590	788.000000
2243.419832	679.000000
2245.021436	772.000000
2246.619387	774.000000
2248.218701	813.000000
2249.816035	757.000000
2251.413061	822.000000
2253.011449	745.000000
2254.606188	847.000000
2256.198950	677.000000
2257.793075	865.000000
2259.388561	707.000000
2260.980402	869.000000
2262.571937	790.000000
2264.164834	713.000000
2265.752421	803.000000
2267.344704	698.000000
2268.931681	735.000000
2270.521685	836.000000
2272.106385	789.000000
2273.695779	770.000000
2275.279871	649.000000
2276.865323	744.000000
2278.448807	785.000000
2280.035316	757.000000
2281.618192	749.000000
2283.200765	775.000000
2284.783034	764.000000
2286.361673	713.000000
2287.943337	801.000000
2289.521372	799.000000
2291.102430	724.000000
2292.679861	702.500000
2294.255329	681.000000
2295.833819	777.000000
2297.408685	752.000000
2298.983250	799.000000
2300.557514	715.000000
2302.131479	823.000000
2303.705142	715.000000
2305.278506	698.000000
2306.848251	702.000000
2308.417697	772.000000
2309.990161	774.000000
2311.557351	816.000000
2313.127559	774.000000
2314.694152	761.000000
2316.262105	738.000000
2317.828102	759.000000
2319.393802	824.000000
2320.959204	793.000000
2322.522653	767.000000
2324.087461	872.000000
2325.648661	856.000000
2327.212875	873.000000
2328.771827	915.000000
2330.333793	876.000000
2331.893809	784.000000
2333.453530	803.000000
2335.011301	735.000000
2336.568777	764.000000
2338.125959	697.000000
2339.681193	758.000000
2341.236134	750.000000
2342.790780	820.000000
2344.345133	731.000000
2345.899192	811.000000
2347.452958	747.000000
2349.004779	828.000000
2350.554658	757.000000
2352.107544	820.000000
2353.655187	734.000000
2355.205839	796.000000
2356.752899	789.000000
2358.301317	791.000000
2359.849444	686.000000
2361.393982	799.000000
2362.939878	750.000000
2364.483836	749.000000
2366.029150	736.000000
2367.570881	789.000000
2369.113968	764.000000
2370.655119	791.000000
2372.195981	691.000000
2373.736554	762.000000
2375.276838	659.000000
2376.816833	752.000000
2378.353250	750.000000
2379.892668	720.000000
2381.428508	770.000000
2382.965706	784.000000
2384.499328	771.000000
2386.035950	778.000000
2387.570642	729.000000
2389.103404	822.000000
2390.635879	824.000000
2392.166426	878.000000
2393.699971	767.000000
2395.228305	739.000000
2396.757995	738.000000
2398.287400	758.000000
2399.816520	782.000000
2401.345354	742.000000
2402.868984	800.000000
2404.397249	724.000000
2405.920312	779.000000
2407.448008	797.000000
2408.968865	797.000000
2410.494354	858.000000
2412.016284	845.000000
2413.539568	862.000000
2415.060932	839.000000
2416.580376	837.000000
2418.101175	852.000000
2419.620056	879.000000
2421.138654	974.000000
2422.655335	886.000000
2424.173370	947.000000
2425.691124	904.000000
2427.205326	948.000000
2428.719249	906.000000
2430.232891	901.000000
2431.747888	948.000000
2433.259336	952.000000
2434.772139	999.000000
2436.283028	1127.000000
2437.793639	997.000000
2439.302338	1108.000000
2440.814023	1118.000000
2442.322165	1042.000000
2443.830029	1224.000000
2445.337615	1185.000000
2446.841660	1120.000000
2448.348690	1168.000000
2449.853812	1201.000000
2451.358657	1205.000000
2452.861595	1105.000000
2454.364257	1220.000000
2455.866642	1211.000000
2457.367122	1169.000000
2458.868955	1081.000000
2460.368883	989.000000
2461.868536	972.000000
2463.367914	1084.000000
2464.865389	1075.000000
2466.360962	999.000000
2467.859515	919.000000
2469.354540	950.000000
2470.850917	1062.000000
2472.343768	972.000000
2473.837972	968.000000
2475.331902	948.000000
2476.822308	927.000000
2478.315692	900.000000
2479.807178	887.000000
2481.296767	909.000000
2482.786084	857.000000
2484.273505	878.000000
2485.763902	942.000000
2487.250781	914.000000
2488.739011	863.000000
2490.223724	861.000000
2491.708168	866.000000
2493.193962	871.000000
2494.677865	890.000000
2496.163118	914.000000
2497.643238	879.000000
2499.126331	786.000000
2500.607533	900.000000
2502.088466	886.000000
2503.567510	776.000000
2505.046285	804.000000
2506.524792	829.000000
2508.003031	835.000000
2509.481001	892.000000
2510.955466	787.000000
2512.432901	854.000000
2513.906832	839.000000
2515.382113	892.000000
2516.857127	784.000000
2518.328640	870.000000
2519.801504	850.000000
2521.272485	802.000000
2522.744816	862.000000
2524.212033	853.000000
2525.682217	789.000000
2527.150520	890.000000
2528.618558	781.000000
2530.086331	837.000000
2531.553839	827.000000
2533.021082	835.000000
2534.484833	872.000000
2535.949934	793.000000
2537.413158	875.000000
2538.877731	868.000000
2540.338816	818.000000
2541.801250	909.000000
2543.263421	847.000000
2544.722106	872.000000
2546.185362	796.000000
2547.643523	884.000000
2549.103032	795.000000
2550.557447	830.000000
2552.016433	893.000000
2553.473547	881.000000
2554.928789	793.000000
2556.383771	918.000000
2557.836884	818.000000
2559.291345	887.000000
2560.743936	889.000000
2562.196268	801.000000
2563.646733	870.000000
2565.100153	911.000000
2566.548491	830.000000
2567.999784	899.000000
2569.449212	841.000000
2570.895167	895.000000
2572.344077	904.000000
2573.789517	867.000000
2575.236304	874.000000
2576.681228	955.000000
2578.125895	872.000000
2579.571909	870.000000
2581.014457	870.000000
2582.458352	915.000000
2583.898782	926.000000
2585.340559	875.000000
2586.780477	894.000000
2588.221742	896.000000
2589.659545	904.000000
2591.100298	931.000000
2592.535989	938.000000
2593.974629	888.000000
2595.411411	938.000000
2596.846338	847.000000
2598.284212	1012.000000
2599.717029	976.000000
2601.151193	875.000000
2602.583503	878.000000
2604.017159	982.000000
2605.448962	915.000000
2606.880511	990.000000
2608.311808	1034.000000
2609.741252	944.000000
2611.170444	1099.000000
2612.597786	1032.000000
2614.026473	1094.000000
2615.454909	1051.000000
2616.879897	1098.000000
2618.306232	1152.000000
2619.730718	1123.000000
2621.156550	1096.000000
2622.578938	1266.000000
2624.002672	1277.000000
2625.424559	1313.000000
2626.846197	1334.000000
2628.265989	1356.000000
2629.687127	1409.000000
2631.108015	1453.000000
2632.525464	1333.000000
2633.945854	1623.000000
2635.362806	1511.000000
2636.779509	1721.000000
2638.195964	1725.000000
2639.612171	1921.000000
2641.028130	1882.000000
2642.442248	1902.000000
2643.856118	2025.000000
2645.268150	2109.000000
2646.681525	2185.000000
2648.091471	2441.000000
2649.504353	2527.000000
2650.913806	2557.000000
2652.323013	2719.000000
2653.730384	3065.000000
2655.140689	3159.000000
2656.549159	3184.000000
2657.955793	3517.000000
2659.362182	3894.000000
2660.766737	3997.000000
2662.172636	4296.000000
2663.576702	4538.000000
2664.980523	4667.000000
2666.384100	4995.000000
2667.785846	5261.000000
2669.188935	5683.000000
2670.588606	5747.000000
2671.989621	5916.000000
2673.387220	6378.000000
2674.787748	6305.000000
2676.184862	6396.000000
2677.583319	6750.000000
2678.979949	6813.000000
2680.376336	6727.000000
2681.772481	6813.000000
2683.166800	6535.000000
2684.562462	6559.000000
2685.954715	6391.000000
2687.348310	6390.000000
2688.740081	6273.000000
2690.133195	5846.000000
2691.524485	5864.000000
2692.913952	5700.000000
2694.303179	5321.000000
2695.692167	5231.000000
2697.082496	4852.000000
2698.467842	4758.000000
2699.856111	4329.000000
2701.242560	4229.000000
2702.628770	3896.000000
2704.014741	3820.000000
2705.397314	3551.000000
2706.781229	3329.000000
2708.164906	3093.000000
2709.548344	3025.000000
2710.928387	2824.000000
2712.309772	2576.000000
2713.689342	2595.000000
2715.070252	2337.000000
2716.449348	2255.000000
2717.826630	2214.000000
2719.205253	2063.000000
2720.582063	2088.000000
2721.958636	1919.000000
2723.334974	1794.000000
2724.709501	1722.000000
2726.085368	1678.000000
2727.457848	1623.000000
2728.833244	1586.000000
2730.203680	1463.000000
2731.575457	1470.000000
2732.946999	1393.000000
2734.316733	1380.000000
2735.687808	1347.000000
2737.057074	1340.000000
2738.426107	1216.000000
2739.793334	1171.000000
2741.160327	1188.000000
2742.527088	1132.000000
2743.893617	1127.000000
2745.258340	1028.000000
2746.622831	1012.000000
2747.987091	1106.000000
2749.351118	1011.000000
2750.714914	976.000000
2752.075336	920.000000
2753.438668	1000.000000
2754.797058	883.000000
2756.158358	876.000000
2757.516288	930.000000
2758.877126	923.000000
2760.236165	808.000000
2761.591835	942.000000
2762.950413	908.000000
2764.305624	806.000000
2765.660606	868.000000
2767.013792	886.000000
2768.369883	881.000000
2769.722611	825.000000
2771.075111	835.000000
2772.427382	851.000000
2773.780991	857.000000
2775.131240	845.000000
2776.479694	843.000000
2777.831054	832.000000
2779.179054	846.000000
2780.528392	805.000000
2781.875938	729.000000
2783.223258	806.000000
2784.570351	782.000000
2785.915653	819.000000
2787.260728	741.000000
2788.605578	761.000000
2789.950202	745.000000
2791.291474	839.000000
2792.634084	744.000000
2793.976468	755.000000
2795.318627	689.000000
2796.657437	733.000000
2797.999147	666.000000
2799.337509	772.000000
2800.677207	710.000000
2802.015121	767.000000
2803.351250	825.000000
2804.687155	679.000000
2806.024398	637.000000
2807.359857	740.000000
2808.695093	790.000000
2810.028546	751.000000
2811.363336	754.000000
2812.694786	757.000000
2814.029131	754.000000
2815.358578	747.000000
2816.689361	704.000000
2818.019924	716.000000
2819.348707	623.000000
2820.678826	731.000000
2822.007167	690.000000
2823.335287	711.000000
2824.661629	655.000000
2825.989308	698.000000
2827.313653	676.000000
2828.639335	702.000000
2829.963241	704.000000
2831.286927	666.000000
2832.611950	688.000000
2833.933642	698.000000
2835.255116	695.000000
2836.576371	708.000000
2837.897407	718.000000
2839.216670	675.000000
2840.537269	657.000000
2841.856097	674.000000
2843.174706	666.000000
2844.491544	616.000000
2845.808165	676.000000
2847.124569	657.000000
2848.439203	677.000000
2849.755173	630.000000
2851.067822	567.000000
2852.381806	649.000000
2853.695574	513.000000
2855.009125	669.000000
2856.320910	690.000000
2857.630928	652.000000
2858.942281	645.000000
2860.250319	633.000000
2861.559691	669.000000
2862.868849	631.000000
2864.177791	678.000000
2865.484969	627.000000
2866.790385	651.000000
2868.097134	689.000000
2869.402122	630.000000
2870.706895	679.000000
2872.009908	670.000000
2873.315801	630.000000
2874.616840	689.000000
2875.919213	696.000000
2877.219826	670.000000
2878.521773	647.000000
2879.823506	595.000000
2881.121936	621.000000
2882.421699	666.000000
2883.719705	639.000000
2885.017499	580.000000
2886.313537	532.000000
2887.610908	665.000000
2888.906523	680.000000
2890.201927	686.000000
2891.497120	691.000000
2892.789016	624.000000
2894.083788	787.000000
2895.375263	661.000000
2896.668071	602.000000
2897.960669	626.000000
2899.249973	593.000000
2900.540609	618.000000
2901.829494	583.000000
2903.119711	611.000000
2904.406637	643.000000
2905.694895	641.000000
2906.981404	655.000000
2908.267704	648.000000
2909.553797	614.000000
2910.838141	588.000000
2912.125356	661.000000
2913.407745	596.000000
2914.691466	617.000000
2915.973441	579.000000
2917.255208	565.000000
2918.535231	617.000000
2919.818123	679.000000
2921.099270	613.000000
2922.377135	720.000000
2923.657869	635.000000
2924.935322	637.000000
2926.212569	628.000000
2927.488074	637.000000
2928.766447	541.000000
2930.040006	590.000000
2931.316432	591.000000
2932.591117	576.000000
2933.864061	559.000000
2935.138337	601.000000
2936.410873	586.000000
2937.683204	590.000000
2938.952263	632.000000
2940.224187	638.000000
2941.494373	653.000000
2942.764355	586.000000
2944.034134	563.000000
2945.302177	636.000000
2946.568483	577.000000
2947.834588	577.000000
2949.102022	645.000000
2950.367721	622.000000
2951.633219	577.000000
2952.898514	605.000000
2954.160544	623.000000
2955.423904	559.000000
2956.687063	545.000000
2957.948490	557.000000
2959.211246	663.000000
2960.472270	628.000000
2961.731564	514.000000
2962.990658	599.000000
2964.249551	509.000000
2965.508244	558.000000
2966.766737	554.000000
2968.023501	555.000000
2969.280065	624.000000
2970.534902	599.000000
2971.791067	608.000000
2973.043978	590.000000
2974.298218	538.000000
2975.552258	583.000000
2976.804573	504.000000
2978.056690	638.000000
2979.307082	561.000000
2980.560329	617.000000
2981.808799	566.000000
2983.060124	559.000000
2984.308199	645.000000
2985.556078	575.000000
2986.803759	501.000000
2988.051243	526.000000
2989.297006	524.000000
2990.542573	545.000000
2991.789467	510.000000
2993.033117	567.000000
2994.278095	550.000000
2995.519829	527.000000
2996.764415	527.000000
2998.007282	568.000000
2999.246908	532.000000
3000.489384	657.000000
3001.728620	544.000000
3002.969184	572.000000
3004.208031	569.000000
3005.446684	589.000000
3006.683621	591.000000
3007.921886	582.000000
3009.158435	519.000000
3010.394791	603.000000
3011.630953	517.000000
3012.865401	540.000000
3014.099657	551.000000
3015.333719	578.000000
3016.566068	570.000000
3017.796707	541.000000
3019.030191	517.000000
3020.261963	556.000000
3021.492025	566.000000
3022.721894	572.000000
3023.950054	541.000000
3025.179541	477.000000
3026.407318	542.000000
3027.634904	575.000000
3028.863816	527.000000
3030.087987	609.000000
3031.315000	601.000000
3032.538789	492.000000
3033.763905	522.000000
3034.987314	576.000000
3036.210533	459.000000
3037.432047	521.000000
3038.656402	468.000000
3039.876022	504.000000
3041.096968	561.000000
3042.317725	532.000000
3043.536778	503.000000
3044.757156	571.000000
3045.974318	506.000000
3047.192806	545.000000
3048.409591	470.000000
3049.626189	504.000000
3050.842598	470.000000
3052.055794	508.000000
3053.271829	555.000000
3054.484651	455.000000
3055.700310	519.000000
3056.911246	506.000000
3058.123507	543.000000
3059.335582	532.000000
3060.547469	502.000000
3061.757660	472.000000
3062.967664	496.000000
3064.177482	458.000000
3065.385604	477.000000
3066.593541	540.000000
3067.799782	449.000000
3069.007348	395.000000
3070.213219	471.000000
3071.418906	547.000000
3072.624407	437.000000
3073.828215	495.000000
3075.033347	494.000000
3076.236786	455.000000
3077.438534	524.000000
3078.640097	465.000000
3079.841477	462.000000
3081.042673	412.000000
3082.242179	446.000000
3083.441502	452.000000
3084.642148	469.000000
3085.841104	482.000000
3087.036866	429.000000
3088.235457	508.000000
3089.430854	457.000000
3090.627574	425.000000
3091.821102	480.000000
3093.017458	413.000000
3094.212127	456.000000
3095.403606	599.000000
3096.599417	501.000000
3097.790533	427.000000
3098.982973	523.000000
3100.172225	442.000000
3101.364302	440.000000
3102.554696	423.000000
3103.741904	452.000000
3104.930434	464.000000
3106.120287	388.000000
3107.306956	439.000000
3108.493444	472.000000
3109.679754	495.000000
3110.867385	462.000000
3112.051834	493.000000
3113.234604	468.000000
3114.420196	570.000000
3115.604109	470.000000
3116.786343	449.000000
3117.968398	451.000000
3119.150275	489.000000
3120.331974	456.000000
3121.511996	520.000000
3122.690341	425.000000
3123.871506	464.000000
3125.049496	529.000000
3126.227309	356.000000
3127.404945	456.000000
3128.580907	453.000000
3129.756691	503.000000
3130.933797	423.000000
3132.109228	400.000000
3133.282986	372.000000
3134.455071	421.000000
3135.628478	446.000000
3136.801708	406.000000
3137.973267	404.000000
3139.146146	454.000000
3140.315858	467.000000
3141.486891	450.000000
3142.656254	496.000000
3143.823946	422.000000
3144.994454	430.000000
3146.160304	472.000000
3147.330462	472.000000
3148.495964	409.000000
3149.661291	499.000000
3150.826445	486.000000
3151.991426	462.000000
3153.157726	403.000000
3154.319374	461.000000
3155.482341	398.000000
3156.645136	472.000000
3157.807758	514.000000
3158.968714	430.000000
3160.129499	443.000000
3161.290111	441.000000
3162.449059	441.000000
3163.607836	480.000000
3164.766440	389.000000
3165.924873	470.000000
3167.083135	465.000000
3168.239734	487.000000
3169.394672	422.000000
3170.550929	445.000000
3171.705525	471.000000
3172.859951	457.000000
3174.012717	416.000000
3175.165312	472.000000
3176.317738	355.000000
3177.469994	460.000000
3178.622079	429.000000
3179.771018	450.000000
3180.922765	403.000000
3182.072853	400.000000
3183.221285	442.000000
3184.369547	457.000000
3185.517641	436.000000
3186.665566	420.000000
3187.811835	404.000000
3188.957936	516.000000
3190.102383	461.000000
3191.246662	456.000000
3192.390773	458.000000
3193.536201	363.000000
3194.678491	403.000000
3195.820614	485.000000
3196.962569	377.000000
3198.104357	416.000000
3199.245978	332.000000
3200.384464	384.000000
3201.524267	379.000000
3202.665387	413.000000
3203.803374	360.000000
3204.939711	400.000000
3206.075882	428.000000
3207.213370	460.000000
3208.349210	425.000000
3209.486367	415.000000
3210.618911	493.000000
3211.755737	493.000000
3212.887951	476.000000
3214.021482	499.000000
3215.154849	462.000000
3216.285088	505.000000
3217.418125	435.000000
3218.548036	503.000000
3219.679263	468.000000
3220.807366	560.000000
3221.938265	531.000000
3223.067520	612.000000
3224.195132	590.000000
3225.319621	566.000000
3226.448386	512.000000
3227.574029	548.000000
3228.699510	531.000000
3229.823349	568.000000
3230.949982	564.000000
3232.072018	583.000000
3233.195370	636.000000
3234.318560	664.000000
3235.441587	592.000000
3236.562976	641.000000
3237.684202	640.000000
3238.803791	591.000000
3239.923218	576.000000
3241.041007	668.000000
3242.161588	661.000000
3243.279056	566.000000
3244.396363	592.000000
3245.513510	530.000000
3246.629020	533.000000
3247.745846	543.000000
3248.859562	529.000000
3249.976067	566.000000
3251.090938	517.000000
3252.202699	493.000000
3253.314302	438.000000
3254.427220	483.000000
3255.539978	491.000000
3256.649630	433.000000
3257.760597	447.000000
3258.871405	487.000000
3259.980581	376.000000
3261.088126	438.000000
3262.196986	389.000000
3263.305688	400.000000
3264.411287	438.000000
3265.518200	411.000000
3266.623484	415.000000
3267.730082	359.000000
3268.833580	435.000000
3269.938393	412.000000
3271.043047	402.000000
3272.144604	376.000000
3273.246004	340.000000
3274.348718	342.000000
3275.451276	347.000000
3276.550737	393.000000
3277.652982	373.000000
3278.752131	479.000000
3279.849656	435.000000
3280.947025	354.000000
3282.047176	337.000000
3283.144235	393.000000
3284.241138	344.000000
3285.337886	438.000000
3286.430076	407.000000
3287.526514	441.000000
3288.621330	351.000000
3289.715992	379.000000
3290.809032	430.000000
3291.901917	392.000000
3292.993182	381.000000
3294.085760	426.000000
3295.176718	356.000000
3296.266056	368.000000
3297.355241	357.000000
3298.445739	333.000000
3299.533152	380.000000
3300.620412	316.000000
3301.708985	406.000000
3302.797405	373.000000
3303.881279	343.000000
3304.969394	358.000000
3306.054427	235.000000
3307.137845	403.000000
3308.222575	401.000000
3309.305689	362.000000
3310.390116	343.000000
3311.471464	344.000000
3312.554124	346.000000
3313.635170	405.000000
3314.716065	346.000000
3315.795346	352.000000
3316.874477	391.000000
3317.954920	329.000000
3319.032288	375.000000
3320.110968	392.000000
3321.188036	318.000000
3322.264955	396.000000
3323.340262	365.000000
3324.415420	416.000000
3325.491889	314.000000
3326.565288	320.000000
3327.638537	318.000000
3328.713098	349.000000
3329.786050	359.000000
3330.857393	317.000000
3331.930047	420.000000
3332.999635	374.000000
3334.070533	381.000000
3335.139824	398.000000
3336.210426	355.000000
3337.279421	391.000000
3338.346810	375.000000
3339.412594	311.000000
3340.482604	307.000000
3341.549551	358.000000
3342.613436	376.000000
3343.680088	380.000000
3344.745137	354.000000
3345.808582	280.000000
3346.871881	328.000000
3347.935033	359.000000
3348.998039	379.000000
3350.060899	444.000000
3351.122157	311.000000
3352.180358	386.000000
3353.242779	376.000000
3354.302145	294.000000
3355.361365	332.000000
3356.421894	298.000000
3357.477915	329.000000
3358.536699	357.000000
3359.590976	390.000000
3360.648017	299.000000
3361.703459	376.000000
3362.760211	389.000000
3363.815364	333.000000
3364.868920	308.000000
3365.920880	350.000000
3366.975601	360.000000
3368.027273	305.000000
3369.078802	341.000000
3370.131639	407.000000
3371.181429	332.000000
3372.232528	314.000000
3373.280581	393.000000
3374.331393	345.000000
3375.379161	324.000000
3376.426786	331.000000
3377.474268	368.000000
3378.520158	313.000000
3379.567356	363.000000
3380.611512	288.000000
3381.658426	306.000000
3382.703748	353.000000
3383.746029	303.000000
3384.788170	350.000000
3385.831618	368.000000
3386.874925	379.000000
3387.916643	371.000000
3388.958219	272.000000
3389.999654	336.000000
3391.039501	316.000000
3392.077759	298.000000
3393.117325	252.000000
3394.156751	344.000000
3395.194589	330.000000
3396.230840	359.000000
3397.266952	328.000000
3398.304371	369.000000
3399.338757	335.000000
3400.374450	364.000000
3401.410004	302.000000
3402.442527	337.000000
3403.477803	335.000000
3404.510048	300.000000
3405.542155	335.000000
3406.572678	332.000000
3407.604508	359.000000
3408.636200	264.000000
3409.664864	273.000000
3410.693391	318.000000
3411.723224	317.000000
3412.752920	286.000000
3413.779590	304.000000
3414.807567	341.000000
3415.832519	283.000000
3416.860221	349.000000
3417.884900	309.000000
3418.910885	376.000000
3419.935290	273.000000
3420.959559	348.000000
3421.982249	349.000000
3423.004803	389.000000
3424.028663	276.000000
3425.049503	335.000000
3426.070207	348.000000
3427.092218	303.000000
3428.111210	299.000000
3429.130066	368.000000
3430.150229	320.000000
3431.167375	386.000000
