-118.343598	15.736264
-115.673997	13.208791
-113.007332	10.963037
-110.341419	8.936064
-107.678439	7.064935
-105.014028	5.286713
-102.352548	3.538462
-99.689639	2.517483
-97.031836	-0.573427
-94.372604	-2.020979
-91.714120	-7.895105
-89.058561	-11.664336
-86.401572	-11.888112
-83.749682	-5.972028
-81.096362	-6.251748
-78.445961	-2.482517
-75.794132	4.153846
-73.147393	1.048951
-70.499224	0.104895
-67.851798	9.559441
-65.207287	13.741259
-62.561346	7.741259
-59.920487	-2.601399
-57.278199	-0.048951
-54.638820	1.972028
-51.998012	3.328671
-49.357943	2.559441
-46.722948	5.398601
-44.086523	9.181818
-41.453001	5.265734
-38.818051	3.258741
-36.188167	20.104895
-33.554689	18.587413
-30.926274	14.979021
-28.298593	17.118881
-25.669483	4.230769
-23.045431	-41.461538
-20.417788	-216.846154
-17.795200	-619.685315
-15.173342	-975.006993
-12.552215	423.027972
-9.931819	3010.216783
-7.314310	5171.580420
-4.695373	6711.524476
-2.079322	7590.741259
0.536002	7815.244755
3.150597	7395.034965
5.762311	6324.965035
8.375453	4643.608392
10.983561	2462.447552
13.595250	182.125874
16.201909	-1272.916084
18.809997	-834.104895
21.417359	-75.020979
24.019697	11.776224
26.625613	13.076923
29.226508	9.286713
31.828830	2.776224
34.426134	0.153846
37.027015	4.986014
39.622880	4.356643
42.220173	11.461538
44.816747	15.279720
47.408312	22.601399
50.001306	21.993007
52.591438	15.839161
55.182997	9.202797
57.771698	0.489510
60.361825	-2.370629
62.946953	-7.664336
65.533509	-7.139860
68.119350	1.440559
70.702338	-0.608392
73.286753	2.944056
75.864039	3.566434
78.444890	0.895105
81.022894	-2.055944
83.600186	1.503497
86.178906	2.216783
88.752643	4.720280
91.327807	10.104895
93.900128	15.013986
96.471742	17.755245
99.040515	25.195804
101.610715	24.650350
104.178076	27.783217
106.746864	21.055944
109.312815	19.874126
111.875931	17.181818
114.442603	31.237762
117.000053	22.510490
119.563189	23.790210
122.121366	30.867133
124.683097	33.601399
127.239871	43.958042
129.798071	85.846154
132.351319	142.034965
134.903869	207.685315
137.459969	274.153846
140.011121	348.328671
142.561576	427.748252
145.111333	501.279720
147.658271	546.930070
150.204514	591.720280
152.752182	611.279720
155.299154	612.111888
157.841190	614.930070
160.382534	620.839161
162.923184	617.069930
165.465259	610.300699
168.004524	598.734266
170.540979	586.083916
173.076744	588.755245
175.613934	597.951049
178.150433	598.699301
180.684126	609.034965
183.215015	609.237762
185.745216	613.944056
188.276843	622.594406
190.805668	628.832168
193.331694	626.188811
195.857034	629.510490
198.383799	617.454545
200.907768	612.566434
203.431051	613.083916
205.953650	616.405594
208.473456	607.811189
210.992579	611.783217
213.511019	620.643357
216.030884	632.286713
218.543746	638.615385
221.060140	643.230769
223.575853	650.755245
226.086675	668.776224
228.598922	678.895105
231.108386	707.706294
233.617172	709.237762
236.125280	716.363636
238.634812	722.230769
241.139463	727.944056
243.643438	735.482517
246.148837	729.062937
248.649361	716.937063
251.153408	711.195804
253.650485	710.251748
256.151084	706.797203
258.648912	705.496503
261.146067	715.566434
263.642550	698.846154
266.134169	701.454545
268.629308	704.426573
271.121680	706.433566
273.613382	714.251748
276.102321	724.377622
278.592683	734.013986
281.080284	751.979021
283.565125	762.916084
286.053481	769.804196
288.534897	786.916084
291.019827	805.692308
293.499911	819.790210
295.983508	833.517483
298.462263	838.762238
300.942440	827.433566
303.419866	818.286713
305.896628	812.132867
308.372726	801.405594
310.846076	806.069930
313.318765	805.902098
315.790792	801.020979
318.262157	805.482517
320.730779	816.643357
323.198741	828.615385
325.668126	834.790210
328.132688	814.692308
330.600754	793.741259
333.063999	780.720280
335.526588	775.965035
337.988520	760.251748
340.449795	742.559441
342.908335	722.720280
345.368298	719.517483
347.825529	709.447552
350.282105	714.671329
352.738027	732.615385
355.191219	751.405594
357.645834	744.552448
360.095647	756.587413
362.548956	771.923077
364.997466	778.972028
367.445326	774.643357
369.894608	755.979021
372.339095	742.818182
374.785005	735.720280
377.230266	712.202797
379.672808	720.272727
382.114702	727.272727
384.555948	733.965035
386.994480	731.839161
389.434432	746.629371
391.871671	762.643357
394.306199	772.874126
396.744213	771.797203
399.177452	758.832168
401.612111	734.937063
404.041998	720.622378
406.475370	710.209790
408.903972	702.573427
411.331932	696.699301
413.761313	699.160839
416.185930	703.685315
418.611967	713.076923
421.037365	732.104895
423.462122	745.916084
425.882120	749.643357
428.303540	756.965035
430.722264	752.286713
433.142407	766.209790
435.559856	762.608392
437.978726	758.125874
440.394901	760.272727
442.806330	752.000000
445.221235	746.909091
447.633450	734.237762
450.045032	729.958042
452.455979	716.076923
454.864239	704.083916
457.271868	695.762238
459.678864	683.944056
462.085229	691.790210
464.488911	685.048951
466.891963	691.090909
469.294385	705.496503
471.696177	703.258741
474.095291	720.517483
476.495825	723.461538
478.895730	734.111888
481.290913	749.671329
483.689561	762.643357
486.083490	777.685315
488.476793	790.895105
490.869471	806.664336
493.261523	809.636364
495.654993	824.062937
498.043751	828.496503
500.429843	763.601399
502.817355	668.132867
505.204244	718.678322
507.588468	1538.118881
509.974112	3529.860140
512.357094	6123.216783
514.737414	8478.419580
517.119155	10193.685315
519.498236	11116.209790
521.878735	11183.000000
524.256578	10416.699301
526.631764	8856.762238
529.006333	6640.650350
531.382321	4139.839161
533.755656	1963.783217
536.130408	820.069930
538.500474	718.048951
540.869926	913.972028
543.240795	971.923077
545.606983	956.419580
547.974590	925.797203
550.339551	880.580420
552.703900	845.615385
555.067635	831.405594
557.432788	799.748252
559.793269	784.538462
562.155167	756.916084
564.514426	744.993007
566.871046	727.125874
569.231112	710.447552
571.584486	700.881119
573.941305	685.720280
576.295489	674.300699
578.649064	662.475524
581.002032	659.972028
583.352367	669.146853
585.704120	665.146853
588.049196	672.167832
590.399735	670.825175
592.743602	675.832168
595.092930	686.888112
597.437609	687.034965
599.779664	686.188811
602.123136	678.832168
604.463985	670.300699
606.804231	668.846154
609.141857	671.909091
611.482918	675.223776
613.819342	675.020979
616.157182	678.594406
618.492405	678.279720
620.825011	677.440559
623.159035	682.909091
625.490444	682.335664
627.821255	673.069930
630.151468	665.041958
632.481084	656.573427
634.806076	650.069930
637.136510	648.377622
639.462323	641.363636
641.785528	629.902098
644.110150	637.671329
646.432166	638.748252
648.753588	646.608392
651.072407	656.258741
653.392643	662.860140
655.712284	665.853147
658.029326	668.986014
660.345775	676.937063
662.659626	669.153846
664.974893	662.552448
667.287563	659.475524
669.601648	650.398601
671.911133	644.342657
674.222034	635.993007
676.530342	632.916084
678.838061	634.258741
681.147196	624.811189
683.451738	632.013986
685.755694	623.090909
688.059063	621.055944
690.363848	614.139860
692.664045	606.349650
694.965658	606.615385
697.266685	598.853147
699.563131	595.314685
701.860992	607.356643
704.158269	617.783217
706.454963	623.790210
708.747081	622.958042
711.042610	634.146853
713.333565	638.398601
715.625935	637.454545
717.915729	633.888112
720.204944	629.188811
722.493579	619.335664
724.779641	612.405594
727.067117	607.111888
729.352023	616.055944
731.636351	608.139860
733.918110	611.125874
736.201283	620.111888
738.483879	618.104895
740.761919	623.447552
743.041373	629.454545
745.320252	627.454545
747.598556	639.412587
749.872309	633.629371
752.147477	640.391608
754.422071	636.181818
756.694106	632.615385
758.967554	633.272727
761.238444	642.433566
763.506778	636.531469
765.776525	617.951049
768.043717	613.804196
770.310340	613.629371
772.576392	605.132867
774.839893	614.237762
777.104806	622.209790
779.369151	638.440559
781.628965	644.412587
783.890193	647.440559
786.150853	660.958042
788.408967	659.685315
790.664536	660.692308
792.923495	657.160839
795.175956	653.944056
797.433784	654.706294
799.687093	663.132867
801.937862	664.629371
804.190043	661.979021
806.439685	678.566434
808.690739	675.209790
810.937282	671.552448
813.185238	663.671329
815.430658	659.405594
817.677491	664.216783
819.923761	664.188811
822.165528	664.559441
824.410677	673.846154
826.649355	680.825175
828.891414	673.741259
831.128975	672.587413
833.367948	678.041958
835.604394	664.524476
837.842251	668.293706
840.077583	659.972028
842.310392	665.503497
844.544611	653.944056
846.776309	646.643357
849.007452	635.335664
851.238040	636.531469
853.468074	631.419580
855.697553	632.258741
857.922552	633.748252
860.150924	637.461538
862.374818	649.013986
864.600123	670.895105
866.820952	676.307692
869.045153	688.349650
871.264881	679.034965
873.486019	676.398601
875.706607	667.006993
877.924686	668.370629
880.144174	651.265734
882.359196	652.041958
884.573670	650.132867
886.787597	665.272727
889.000976	666.412587
891.213809	668.000000
893.426094	653.195804
895.635878	657.524476
897.845116	649.111888
900.053809	648.475524
902.260002	645.272727
904.467605	643.202797
906.672711	641.825175
908.877273	653.342657
911.079340	654.076923
913.282816	670.041958
915.483798	669.832168
917.684238	663.755245
919.886087	663.545455
922.081545	690.916084
924.280361	710.048951
926.474740	735.153846
928.672476	769.685315
930.865776	817.972028
933.060485	878.832168
935.252707	931.111888
937.444392	971.328671
939.635539	1013.909091
941.824203	1037.286713
944.012331	1046.426573
946.197977	1063.062937
948.386977	1065.447552
950.571552	1053.573427
952.755593	1048.650350
954.942985	1057.006993
957.122072	1072.335664
959.304510	1081.832168
961.486414	1089.027972
963.665843	1085.139860
965.842800	1088.615385
968.021165	1087.972028
970.200937	1093.657343
972.374359	1101.503497
974.551129	1090.685315
976.723491	1088.188811
978.897261	1090.804196
981.066627	1082.216783
983.239337	1084.559441
985.409582	1069.713287
987.579297	1049.944056
989.748484	1009.258741
991.913274	968.496503
994.081406	920.629371
996.245142	888.300699
998.410286	859.909091
1000.572970	833.167832
1002.735129	810.405594
1004.894831	803.587413
1007.054008	792.727273
1009.214592	801.139860
1011.372721	805.874126
1013.530327	799.762238
1015.687409	773.454545
1017.843967	752.685315
1019.996146	732.951049
1022.149732	729.874126
1024.302796	728.188811
1026.453411	730.909091
1028.605432	731.314685
1030.753081	737.153846
1032.904061	725.685315
1035.050670	735.237762
1037.196760	747.223776
1039.342332	746.937063
1041.489309	734.034965
1043.629997	726.496503
1045.774014	724.034965
1047.915592	719.433566
1050.056652	714.531469
1052.199118	713.104895
1054.335303	713.776224
1056.474815	707.545455
1058.609971	700.895105
1060.748452	713.594406
1062.882580	717.748252
1065.016194	719.552448
1067.151212	711.335664
1069.281882	705.188811
1071.413956	699.496503
1073.543600	697.412587
1075.672733	700.622378
1077.801355	704.363636
1079.929465	703.090909
1082.055149	701.251748
1084.180323	696.860140
1086.306901	691.377622
1088.429141	684.062937
1090.552786	680.587413
1092.672096	676.517483
1094.796635	669.496503
1096.914930	661.972028
1099.034628	672.202797
1101.151909	679.706294
1103.268682	680.734266
1105.384949	678.440559
1107.498801	684.979021
1109.614056	683.916084
1111.724989	678.867133
1113.839234	684.153846
1115.949158	691.874126
1118.060485	706.342657
1120.171309	705.979021
1122.277816	712.811189
1124.387632	712.307692
1126.493134	714.846154
1128.600040	700.363636
1130.700730	692.013986
1132.806632	681.727273
1134.908225	677.867133
1137.011220	676.608392
1139.113716	683.566434
1141.210004	681.139860
1143.311499	681.195804
1145.408692	670.524476
1147.505386	668.510490
1149.601583	657.475524
1151.697281	651.755245
1153.792482	639.720280
1155.885286	644.741259
1157.979492	651.349650
1160.067507	676.258741
1162.160720	687.048951
1164.247746	692.377622
1166.338070	690.664336
1168.424106	686.510490
1170.513440	684.636364
1172.596593	679.671329
1174.681149	682.083916
1176.767106	678.762238
1178.848781	677.538462
1180.931857	690.153846
1183.012548	699.531469
1185.092748	704.433566
1187.172456	696.727273
1189.251673	691.279720
1191.328507	685.601399
1193.402961	682.678322
1195.480707	673.286713
1197.554182	675.041958
1199.629059	668.804196
1201.699668	661.762238
1203.771678	657.776224
1205.841312	661.440559
1207.912347	671.776224
1209.982894	665.664336
1212.049181	676.055944
1214.116868	671.314685
1216.182182	670.580420
1218.248897	666.608392
1220.311356	661.321678
1222.377101	667.251748
1224.438591	652.118881
1226.501482	645.139860
1228.562004	646.993007
1230.622044	644.818182
1232.681600	660.419580
1234.738792	654.314685
1236.795501	669.769231
1238.849848	659.734266
1240.907475	667.461538
1242.962740	669.853147
1245.013765	677.888112
1247.066189	685.727273
1249.118133	682.020979
1251.167719	680.699301
1253.216826	685.580420
1255.265454	684.160839
1257.313604	699.048951
1259.361276	700.972028
1261.404717	714.986014
1263.451434	717.622378
1265.495797	713.335664
1267.539683	703.713287
1269.581219	686.951049
1271.620405	665.125874
1273.662864	651.377622
1275.701100	643.587413
1277.740735	643.041958
1279.779894	659.342657
1281.814836	676.811189
1283.851176	700.832168
1285.885172	713.034965
1287.920565	718.202797
1289.951745	706.881119
1291.984324	699.293706
1294.016431	683.258741
1296.046197	667.125874
1298.077360	659.125874
1300.104316	653.559441
1302.132671	666.125874
1304.156820	683.888112
1306.184235	680.699301
1308.207447	693.881119
1310.232057	679.202797
1312.254332	675.363636
1314.278005	669.356643
1316.299345	674.076923
1318.320218	681.146853
1320.340623	677.076923
1322.356835	673.874126
1324.374444	675.748252
1326.389725	694.300699
1328.408265	697.671329
1330.422615	698.909091
1332.434640	704.769231
1334.449923	695.223776
1336.461020	697.342657
1338.473513	695.867133
1340.481824	699.524476
1342.493391	696.797203
1344.498919	678.447552
1346.507702	674.664336
1348.512307	661.930070
1350.520166	674.636364
1352.527563	673.090909
1354.528929	684.461538
1356.531691	684.013986
1358.533994	684.622378
1360.535837	681.468531
1362.537220	686.342657
1364.536289	685.699301
1366.534900	677.727273
1368.533053	668.524476
1370.530748	668.496503
1372.524280	674.965035
1374.519207	684.237762
1376.513678	683.314685
1378.507692	694.111888
1380.499399	691.643357
1382.490650	692.972028
1384.479596	684.755245
1386.469937	690.951049
1388.459824	681.146853
1390.447406	665.699301
1392.434535	657.685315
1394.419362	641.965035
1396.405584	646.629371
1398.389505	633.188811
1400.372974	627.720280
1402.355991	646.188811
1404.336710	644.734266
1406.318823	660.286713
1408.298639	660.258741
1410.278005	678.272727
1412.253232	676.188811
1414.231697	674.265734
1416.207869	675.790210
1418.183591	666.104895
1420.158864	670.951049
1422.131847	654.055944
1424.104381	644.587413
1426.076467	655.111888
1428.048106	653.545455
1430.015616	672.160839
1431.988200	676.069930
1433.952978	685.685315
1435.922829	679.650350
1437.888555	680.720280
1439.855675	677.944056
1441.820511	672.258741
1443.781227	670.265734
1445.747011	663.979021
1447.706840	663.594406
1449.668063	669.615385
1451.630677	670.454545
1453.589177	680.657343
1455.547235	689.377622
1457.504851	681.307692
1459.462024	674.685315
1461.416922	675.888112
1463.373213	663.867133
1465.327229	659.496503
1467.280804	650.167832
1469.232107	659.027972
1471.184802	655.916084
1473.135226	650.496503
1475.085211	657.790210
1477.034757	671.426573
1478.982034	673.286713
1480.927043	659.097902
1482.873445	649.440559
1484.819409	657.153846
1486.764936	656.951049
1488.708197	666.412587
1490.651022	666.545455
1492.591584	673.755245
1494.533538	668.412587
1496.473229	666.000000
1498.412485	678.020979
1500.351307	680.993007
1502.287869	684.356643
1504.225822	681.769231
1506.161516	687.979021
1508.096777	701.888112
1510.029781	705.573427
1511.962353	712.853147
1513.894493	709.265734
1515.826201	705.699301
1517.755656	690.125874
1519.686501	681.272727
1521.616914	686.041958
1523.543255	686.398601
1525.470986	689.839161
1527.396468	692.454545
1529.321520	691.524476
1531.246142	690.384615
1533.170336	687.958042
1535.092283	679.433566
1537.015620	672.398601
1538.936710	667.118881
1540.855556	653.475524
1542.775792	659.251748
1544.693784	660.055944
1546.611350	664.041958
1548.526675	672.293706
1550.443389	683.811189
1552.356047	684.818182
1554.271910	698.034965
1556.185534	707.272727
1558.096919	690.405594
1560.009694	683.349650
1561.918419	680.748252
1563.828533	671.454545
1565.738224	671.783217
1567.647492	661.398601
1569.554525	661.391608
1571.459326	658.055944
1573.365516	656.167832
1575.269475	653.076923
1577.173012	667.041958
1579.076129	676.566434
1580.977016	680.867133
1582.879292	682.454545
1584.779339	689.314685
1586.680775	687.979021
1588.578176	691.951049
1590.475160	684.923077
1592.371725	683.335664
1594.269677	669.818182
1596.161795	664.146853
1598.057107	661.608392
1599.952000	668.608392
1601.844673	672.440559
1603.736928	680.272727
1605.626964	671.839161
1607.516584	667.076923
1609.405789	665.020979
1611.294578	665.965035
1613.181151	666.811189
1615.069111	664.993007
1616.953054	659.272727
1618.838384	672.594406
1620.723301	676.755245
1622.606004	669.902098
1624.490094	675.041958
1626.370172	679.195804
1628.251638	673.132867
1630.130892	670.111888
1632.011534	672.622378
1633.886371	676.027972
1635.766189	672.503497
1637.642002	655.573427
1639.517406	658.811189
1641.394195	662.748252
1643.265187	649.951049
1645.139362	646.902098
1647.009537	656.524476
1648.882893	658.384615
1650.754046	657.160839
1652.622997	667.104895
1654.493334	679.167832
1656.359677	686.391608
1658.227407	678.447552
1660.092937	671.111888
1661.959853	674.258741
1663.822779	667.580420
1665.687092	667.657343
1667.549208	671.587413
1669.410919	669.811189
1671.274015	666.776224
1673.134917	666.356643
1674.993626	671.132867
1676.851931	677.741259
1678.711620	675.412587
1680.565543	667.279720
1682.422639	665.531469
1684.279331	673.671329
1686.132048	672.482517
1687.987936	682.020979
1689.839850	675.482517
1691.691363	670.531469
1693.542475	676.454545
1695.393186	671.349650
1697.243497	664.405594
1699.091624	659.279720
1700.941135	646.797203
1702.784896	640.489510
1704.633608	646.867133
1706.476573	655.559441
1708.322704	658.223776
1710.164874	672.097902
1712.010208	681.888112
1713.849802	684.244755
1715.690781	692.846154
1717.533142	684.692308
1719.371546	668.958042
1721.211334	654.041958
1723.048947	643.328671
1724.886165	637.510490
1726.721209	639.636364
1728.557636	632.776224
1730.391890	626.202797
1732.225751	622.699301
1734.059217	617.104895
1735.888737	608.321678
1737.721417	607.692308
1739.550151	604.398601
1741.382044	606.930070
1743.209994	613.111888
1745.037552	619.055944
1746.864719	637.258741
1748.691494	650.531469
1750.517877	651.839161
1752.340324	650.062937
1754.165926	648.685315
1755.987592	648.818182
1757.810641	648.951049
1759.631529	647.174825
1761.452027	649.552448
1763.273907	651.657343
1765.090087	631.622378
1766.909419	623.272727
1768.724824	623.748252
1770.543380	630.944056
1772.358010	627.909091
1774.172253	637.881119
1775.986110	642.601399
1777.799580	646.405594
1779.610896	646.517483
1781.423594	654.146853
1783.235905	653.580420
1785.044299	650.349650
1786.854074	639.468531
1788.659933	631.699301
1790.468939	633.391608
1792.274031	642.188811
1794.080504	633.601399
1795.886592	636.153846
1797.688771	629.328671
1799.494093	630.419580
1801.295507	636.587413
1803.098302	653.265734
1804.897190	652.580420
1806.697459	670.965035
1808.497346	664.419580
1810.295091	647.601399
1812.092456	640.839161
1813.889440	621.279720
1815.686044	607.622378
1817.480509	604.328671
1819.276354	596.951049
1821.066543	588.888112
1822.861629	591.601399
1824.651062	610.167832
1826.443633	626.181818
1828.234068	640.902098
1830.022368	644.643357
1831.813804	648.720280
1833.599595	650.412587
1835.386764	644.174825
1837.171803	645.356643
1838.959974	644.986014
1840.744260	631.937063
1842.526417	610.748252
1844.309953	614.363636
1846.091360	618.741259
1847.874145	625.034965
1849.653051	623.300699
1851.433335	631.671329
1853.211494	635.447552
1854.991030	637.398601
1856.768442	640.300699
1858.543731	639.832168
1860.320397	640.258741
1862.094941	642.706294
1863.870862	639.244755
1865.641164	648.209790
1867.414593	641.440559
1869.185902	638.986014
1870.956840	630.006993
1872.729156	627.503497
1874.495858	627.195804
1876.265685	628.699301
1878.031649	626.979021
1879.800737	625.517483
1881.565963	628.244755
1883.330821	633.524476
1885.097055	630.356643
1886.859431	634.181818
1888.621440	642.909091
1890.383082	640.559441
1892.144356	642.454545
1893.905264	639.321678
1895.665804	635.286713
1897.424236	630.013986
1899.182301	615.713287
1900.938259	612.902098
1902.695593	606.797203
1904.452562	601.888112
1906.207424	601.153846
1907.960181	601.930070
1909.712575	610.062937
1911.466345	598.461538
1913.218011	600.965035
1914.967574	594.853147
1916.718514	603.335664
1918.469090	604.468531
1920.215828	603.615385
1921.963941	616.510490
1923.709955	625.622378
1925.457345	635.902098
1927.202636	644.587413
1928.945830	643.804196
1930.690400	651.237762
1932.432873	649.118881
1934.174986	653.412587
1935.916740	658.863636
1937.658133	664.979021
1939.397433	653.772727
1941.136374	648.000000
1942.874956	652.374126
1944.611447	652.643357
1946.347579	640.283217
1948.085087	632.748252
1949.818772	626.667832
1951.553832	627.244755
1953.286803	631.199301
1955.019418	635.867133
1956.751676	634.486014
1958.483578	634.286713
1960.213395	627.769231
1961.941126	638.258741
1963.670232	644.685315
1965.398982	651.601399
1967.125649	639.237762
1968.851962	638.244755
1970.579649	628.566434
1972.301799	629.020979
1974.027050	626.055944
1975.748494	618.125874
1977.473038	615.559441
1979.195503	618.279720
1980.914164	617.601399
1982.635924	632.867133
1984.353883	634.041958
1986.073214	650.146853
1987.788746	637.867133
1989.509098	638.370629
1991.225652	637.860140
1992.938409	635.755245
1994.654262	624.440559
1996.368043	632.832168
1998.081474	641.741259
1999.792834	641.335664
2001.505566	632.125874
2003.214507	628.377622
2004.926542	629.853147
2006.633067	628.972028
2008.342685	616.916084
2010.050235	623.139860
2011.757438	627.874126
2013.462575	625.951049
2015.167365	624.923077
2016.873528	634.405594
2018.575907	630.307692
2020.279659	622.426573
2021.981348	616.216783
2023.682691	619.468531
2025.383690	622.041958
2027.082627	620.342657
2028.782936	617.706294
2030.479469	621.664336
2032.177374	626.930070
2033.873221	626.748252
2035.572153	620.356643
2037.265599	620.797203
2038.960416	621.552448
2040.654890	625.503497
2042.345597	636.202797
2044.039386	635.279720
2045.729410	626.531469
2047.420803	629.664336
2049.110144	619.860140
2050.800856	623.006993
2052.487804	623.762238
2054.174412	618.377622
2055.862391	611.860140
2057.546610	611.069930
2059.232199	609.818182
2060.917449	607.104895
2062.600651	610.013986
2064.285223	599.230769
2065.964331	597.181818
2067.648226	606.405594
2069.326659	607.181818
2071.008170	610.328671
2072.685929	609.468531
2074.363352	610.468531
2076.042144	613.244755
2077.718893	612.895105
2079.393601	621.230769
2081.069679	630.608392
2082.743715	636.671329
2084.417417	639.685315
2086.090783	638.503497
2087.762110	638.853147
2089.433103	630.468531
2091.103762	617.356643
2092.774087	608.454545
2094.444078	601.573427
2096.112032	598.440559
2097.779654	609.174825
2099.445242	617.818182
2101.112198	618.419580
2102.777121	625.342657
2104.441712	632.419580
2106.104271	613.230769
2107.768198	613.902098
2109.430094	602.454545
2111.091659	601.384615
2112.752894	592.041958
2114.412099	594.643357
2116.070975	604.335664
2117.729520	611.615385
2119.387736	600.692308
2121.042229	597.419580
2122.699786	606.055944
2124.357013	599.678322
2126.010520	592.118881
2127.665394	598.139860
2129.316549	590.965035
2130.970767	606.055944
2132.621267	607.314685
2134.273135	617.741259
2135.919594	624.321678
2137.570807	621.265734
2139.218308	610.762238
2140.867175	610.363636
2142.514023	612.650350
2144.160546	605.888112
2145.806743	600.265734
2147.449231	593.678322
2149.094778	590.384615
2150.736618	600.524476
2152.381515	602.524476
2154.022707	608.930070
2155.663575	606.867133
2157.304120	607.923077
2158.942652	612.027972
2160.582550	620.636364
2162.218748	612.636364
2163.856312	611.930070
2165.493554	606.062937
2167.128786	611.699301
2168.763696	616.818182
2170.398285	628.230769
2172.032553	632.300699
2173.663127	630.202797
2175.296753	612.874126
2176.926686	605.062937
2178.557986	599.447552
2180.187280	589.881119
2181.816255	582.062937
2183.444910	586.482517
2185.073246	585.300699
2186.699579	590.692308
2188.325594	598.489510
2189.949608	609.566434
2191.574987	610.475524
2193.198365	610.867133
2194.823108	610.419580
2196.444170	603.153846
2198.064915	596.174825
2199.687024	588.937063
2201.307136	586.146853
2202.925252	589.468531
2204.543052	580.965035
2206.160536	571.762238
2207.777706	568.286713
2209.394559	562.475524
2211.011098	561.881119
2212.625643	561.685315
2214.238197	555.027972
2215.852114	543.692308
2217.464040	538.531469
2219.077329	536.391608
2220.688627	547.454545
2222.297937	567.370629
2223.908609	564.377622
2225.517293	577.734266
2227.125665	586.545455
2228.732050	590.853147
2230.339797	598.062937
2231.945559	591.643357
2233.551009	583.384615
2235.154474	566.209790
2236.759302	564.958042
2238.362146	560.230769
2239.963007	558.020979
2241.565231	553.965035
2243.165473	557.566434
2244.767077	571.440559
2246.365028	578.139860
2247.964342	576.923077
2249.561676	585.034965
2251.158702	590.706294
2252.757089	578.447552
2254.351829	572.860140
2255.944591	576.230769
2257.538716	578.671329
2259.134202	572.272727
2260.726043	570.251748
2262.317578	567.993007
2263.910474	571.790210
2265.498062	568.629371
2267.090345	572.468531
2268.677321	571.937063
2270.267326	573.615385
2271.852026	566.664336
2273.441420	573.251748
2275.025511	574.797203
2276.610964	581.692308
2278.194448	577.832168
2279.780957	568.146853
2281.363833	561.888112
2282.946406	567.097902
2284.528675	564.132867
2286.107314	566.587413
2287.688978	552.566434
2289.267013	552.727273
2290.848071	552.314685
2292.425502	557.391608
2294.000970	562.398601
2295.579460	561.412587
2297.154326	558.867133
2298.728891	560.055944
2300.303155	570.566434
2301.877119	573.573427
2303.450783	570.615385
2305.024147	575.209790
2306.593892	559.181818
2308.163338	549.132867
2309.735802	538.979021
2311.302992	540.944056
2312.873199	532.727273
2314.439793	532.622378
2316.007745	539.167832
2317.573743	549.272727
2319.139443	551.405594
2320.704845	563.391608
2322.268294	573.692308
2323.833102	592.965035
2325.394301	579.223776
2326.958515	576.608392
2328.517468	568.622378
2330.079434	564.489510
2331.639450	557.000000
2333.199170	561.552448
2334.756942	564.944056
2336.314418	555.874126
2337.871600	552.517483
2339.426834	568.951049
2340.981774	569.426573
2342.536421	577.370629
2344.090774	565.720280
2345.644833	565.230769
2347.198599	562.370629
2348.750420	554.552448
2350.300298	543.391608
2351.853185	543.916084
2353.400828	534.930070
2354.951479	530.055944
2356.498540	533.251748
2358.046958	537.993007
2359.595084	526.678322
2361.139623	526.202797
2362.685519	518.419580
2364.229476	534.524476
2365.774791	536.020979
2367.316521	534.328671
2368.859609	525.846154
2370.400760	530.832168
2371.941622	535.713287
2373.482195	545.755245
2375.022479	542.510490
2376.562474	543.244755
2378.098890	540.272727
2379.638308	542.433566
2381.174149	540.671329
2382.711347	550.664336
2384.244969	548.629371
2385.781591	557.993007
2387.316283	558.860140
2388.849044	569.545455
2390.381520	573.524476
2391.912067	572.937063
2393.445612	570.643357
2394.973946	572.000000
2396.503636	569.594406
2398.033041	565.580420
2399.562161	557.587413
2401.090995	549.195804
2402.614625	544.951049
2404.142890	545.874126
2405.665952	535.111888
2407.193649	531.055944
2408.714506	517.615385
2410.239995	516.958042
2411.761925	519.895105
2413.285209	524.986014
2414.806573	523.377622
2416.326017	532.531469
2417.846816	536.188811
2419.365696	534.762238
2420.884295	549.000000
2422.400975	552.818182
2423.919011	545.216783
2425.436765	544.188811
2426.950967	541.090909
2428.464890	543.188811
2429.978532	555.797203
2431.493528	546.713287
2433.004977	531.104895
2434.517779	529.153846
2436.028669	523.377622
2437.539280	521.615385
2439.047979	517.097902
2440.559664	512.300699
2442.067806	509.146853
2443.575670	514.503497
2445.083255	522.874126
2446.587301	524.307692
2448.094331	538.678322
2449.599453	527.587413
2451.104298	523.181818
2452.607236	521.090909
2454.109897	525.300699
2455.612283	514.783217
2457.112762	509.776224
2458.614596	512.251748
2460.114524	513.468531
2461.614177	518.979021
2463.113555	522.062937
2464.611030	518.783217
2466.106603	522.734266
2467.605156	517.594406
2469.100181	508.979021
2470.596558	503.755245
2472.089409	503.713287
2473.583613	495.468531
2475.077543	497.020979
2476.567949	492.398601
2478.061333	497.405594
2479.552819	499.846154
2481.042408	495.216783
2482.531725	489.202797
2484.019146	488.223776
2485.509543	497.223776
2486.996422	490.405594
2488.484652	496.846154
2489.969365	500.020979
2491.453808	507.202797
2492.939603	520.202797
2494.423506	520.139860
2495.908759	520.643357
2497.388879	520.769231
2498.871971	518.153846
2500.353174	516.650350
2501.834107	520.650350
2503.313150	514.489510
2504.791926	503.356643
2506.270433	506.125874
2507.748671	496.769231
2509.226642	497.776224
2510.701107	496.391608
2512.178542	495.916084
2513.652472	491.944056
2515.127754	493.685315
2516.602768	503.797203
2518.074281	519.055944
2519.547145	516.048951
2521.018126	514.538462
2522.490457	518.118881
2523.957674	516.979021
2525.427858	514.902098
2526.896161	510.286713
2528.364198	496.916084
2529.831971	501.139860
2531.299479	487.797203
2532.766723	491.223776
2534.230474	511.790210
2535.695575	524.475524
2537.158799	521.048951
2538.623372	527.727273
2540.084457	528.146853
2541.546891	530.923077
2543.009062	531.503497
2544.467746	525.398601
2545.931003	512.244755
2547.389163	509.139860
2548.848673	509.958042
2550.303088	509.195804
2551.762074	510.622378
2553.219188	514.055944
2554.674430	511.573427
2556.129412	518.440559
2557.582524	515.839161
2559.036985	512.293706
2560.489577	502.755245
2561.941909	499.454545
2563.392373	497.433566
2564.845794	499.762238
2566.294132	506.083916
2567.745425	501.125874
2569.194852	499.328671
2570.640808	511.265734
2572.089718	506.615385
2573.535157	521.790210
2574.981945	517.769231
2576.426869	521.783217
2577.871536	516.069930
2579.317550	511.776224
2580.760097	507.461538
2582.203992	503.230769
2583.644422	494.552448
2585.086200	494.083916
2586.526118	487.685315
2587.967383	484.979021
2589.405186	476.055944
2590.845939	480.188811
2592.281630	475.160839
2593.720269	480.272727
2595.157052	476.237762
2596.591979	473.272727
2598.029853	474.118881
2599.462670	478.587413
2600.896834	477.237762
2602.329143	486.356643
2603.762800	490.825175
2605.194602	484.741259
2606.626152	477.097902
2608.057448	475.783217
2609.486893	467.419580
2610.916085	470.188811
2612.343426	467.979021
2613.772114	475.188811
2615.200549	483.734266
2616.625538	495.405594
2618.051872	495.622378
2619.476359	500.412587
2620.902190	497.489510
2622.324579	496.181818
2623.748312	494.342657
2625.170200	500.496503
2626.591837	487.678322
2628.011630	492.811189
2629.432768	485.559441
2630.853656	493.370629
2632.271105	492.195804
2633.691494	496.601399
2635.108446	492.160839
2636.525150	492.706294
2637.941605	491.293706
2639.357812	501.699301
2640.773771	495.776224
2642.187889	496.965035
2643.601759	486.720280
2645.013790	487.167832
2646.427166	473.706294
2647.837112	469.440559
2649.249994	467.041958
2650.659447	468.706294
2652.068654	466.020979
2653.476025	469.692308
2654.886330	458.706294
2656.294799	461.944056
2657.701434	466.916084
2659.107822	473.223776
2660.512378	469.069930
2661.918277	472.797203
2663.322342	471.125874
2664.726164	477.335664
2666.129741	477.860140
2667.531487	477.489510
2668.934576	467.762238
2670.334247	465.412587
2671.735262	456.265734
2673.132861	469.881119
2674.533389	474.678322
2675.930503	470.328671
2677.328960	466.006993
2678.725589	467.433566
2680.121977	472.524476
2681.518122	480.930070
2682.912441	473.790210
2684.308103	478.496503
2685.700356	471.979021
2687.093951	470.398601
2688.485722	466.321678
2689.878836	464.685315
2691.270125	456.531469
2692.659593	455.195804
2694.048820	454.286713
2695.437807	440.937063
2696.828137	444.286713
2698.213483	435.426573
2699.601752	425.398601
2700.988201	429.370629
2702.374411	429.202797
2703.760382	429.209790
2705.142955	431.888112
2706.526870	434.790210
2707.910546	439.503497
2709.293985	447.636364
2710.674028	444.594406
2712.055413	446.377622
2713.434982	443.874126
2714.815893	441.538462
2716.194989	441.531469
2717.572271	445.951049
2718.950894	448.797203
2720.327703	455.251748
2721.704277	460.139860
2723.080615	453.951049
2724.455141	450.237762
2725.831008	456.503497
2727.203488	452.076923
2728.578885	455.391608
2729.949321	451.965035
2731.321097	456.426573
2732.692640	450.734266
2734.062374	450.160839
2735.433448	446.132867
2736.802715	447.979021
2738.171748	443.307692
2739.538975	430.783217
2740.905968	424.174825
2742.272729	425.433566
2743.639257	422.594406
2745.003981	428.468531
2746.368472	435.930070
2747.732731	427.937063
2749.096759	440.146853
2750.460554	446.951049
2751.820977	455.804196
2753.184309	448.720280
2754.542699	434.503497
2755.903999	437.496503
2757.261929	421.727273
2758.622767	411.433566
2759.981805	407.594406
2761.337475	411.832168
2762.696054	402.776224
2764.051265	401.146853
2765.406247	410.272727
2766.759432	410.139860
2768.115524	410.468531
2769.468252	400.818182
2770.820751	406.384615
2772.173023	426.433566
2773.526632	420.293706
2774.876880	419.202797
2776.225335	424.811189
2777.576694	443.748252
2778.924694	447.797203
2780.274033	460.041958
2781.621579	450.769231
2782.968899	439.566434
2784.315991	431.503497
2785.661293	434.895105
2787.006369	440.244755
2788.351219	448.342657
2789.695843	438.524476
2791.037115	419.000000
2792.379724	412.160839
2793.722109	419.132867
2795.064268	417.888112
2796.403078	415.699301
2797.744788	403.146853
2799.083149	395.720280
2800.422848	400.027972
2801.760761	398.160839
2803.096890	404.783217
2804.432796	402.538462
2805.770038	399.797203
2807.105497	403.958042
2808.440733	409.594406
2809.774187	415.902098
2811.108977	416.216783
2812.440426	416.888112
2813.774771	426.867133
2815.104218	435.244755
2816.435002	447.664336
2817.765564	443.986014
2819.094347	442.027972
2820.424467	436.083916
2821.752808	440.286713
2823.080927	442.118881
2824.407270	428.461538
2825.734948	418.573427
2827.059294	404.440559
2828.384976	407.860140
2829.708882	411.468531
2831.032568	415.531469
2832.357590	424.832168
2833.679283	419.531469
2835.000757	415.895105
2836.322011	414.363636
2837.643047	413.972028
2838.962311	415.503497
2840.282910	407.342657
2841.601737	407.237762
2842.920346	404.734266
2844.237185	410.104895
2845.553806	406.097902
2846.870210	411.076923
2848.184844	414.664336
2849.500813	416.937063
2850.813463	421.342657
2852.127447	419.041958
2853.441215	417.643357
2854.754766	418.244755
2856.066551	399.559441
2857.376569	397.832168
2858.687922	391.265734
2859.995960	386.783217
2861.305332	389.328671
2862.614489	395.153846
2863.923431	406.342657
2865.230610	410.314685
2866.536025	413.818182
2867.842775	417.958042
2869.147763	416.384615
2870.452536	413.713287
2871.755549	406.244755
2873.061442	414.636364
2874.362481	412.559441
2875.664853	417.251748
2876.965467	419.769231
2878.267413	415.062937
2879.569147	405.671329
2880.867577	402.083916
2882.167340	399.552448
2883.465346	388.034965
2884.763140	377.769231
2886.059177	371.993007
2887.356548	375.293706
2888.652164	374.538462
2889.947568	369.895105
2891.242761	365.496503
2892.534657	360.951049
2893.829428	361.909091
2895.120904	364.265734
2896.413712	377.405594
2897.706310	380.146853
2898.995613	366.972028
2900.286250	370.937063
2901.575135	374.615385
2902.865352	380.293706
2904.152278	382.447552
2905.440536	379.629371
2906.727045	377.846154
2908.013345	375.699301
2909.299437	386.580420
2910.583781	386.202797
2911.870997	389.706294
2913.153386	388.055944
2914.437107	371.013986
2915.719081	371.937063
2917.000849	376.251748
2918.280871	367.615385
2919.563763	377.167832
2920.844910	382.881119
2922.122775	378.251748
2923.403509	374.916084
2924.680962	384.986014
2925.958210	375.489510
2927.233715	380.006993
2928.512088	374.391608
2929.785647	373.489510
2931.062073	376.419580
2932.336757	380.279720
2933.609702	383.622378
2934.883978	389.342657
2936.156513	384.503497
2937.428845	373.678322
2938.697904	379.034965
2939.969828	372.146853
2941.240014	354.503497
2942.509996	361.468531
2943.779775	353.538462
2945.047818	363.020979
2946.314124	369.069930
2947.580228	383.902098
2948.847663	385.475524
2950.113362	379.797203
2951.378860	376.160839
2952.644155	371.797203
2953.906185	371.986014
2955.169545	360.923077
2956.432704	350.321678
2957.694130	350.027972
2958.956887	346.209790
2960.217911	360.013986
2961.477205	363.902098
2962.736298	370.699301
2963.995191	362.874126
2965.253884	366.265734
2966.512377	354.818182
2967.769141	355.965035
2969.025706	356.104895
2970.280542	361.538462
2971.536708	361.118881
2972.789619	362.349650
2974.043858	376.461538
2975.297899	380.503497
2976.550214	376.419580
2977.802331	372.447552
2979.052723	363.034965
2980.305970	356.237762
2981.554440	356.181818
2982.805765	362.804196
2984.053840	360.839161
2985.301718	357.244755
2986.549400	353.475524
2987.796884	358.167832
2989.042647	363.153846
2990.288213	362.965035
2991.535108	372.475524
2992.778758	381.650350
2994.023735	379.020979
2995.265470	389.104895
2996.510056	398.391608
2997.752923	405.349650
2998.992549	397.216783
3000.235025	383.797203
3001.474261	381.839161
3002.714825	379.972028
3003.953672	372.664336
3005.192325	370.685315
3006.429262	375.923077
3007.667527	374.643357
3008.904076	369.741259
3010.140432	373.223776
3011.376594	372.384615
3012.611042	369.860140
3013.845297	368.496503
3015.079359	361.412587
3016.311709	356.839161
3017.542347	358.552448
3018.775831	361.909091
3020.007604	369.657343
3021.237665	371.853147
3022.467535	371.636364
3023.695695	365.797203
3024.925182	357.000000
3026.152959	352.440559
3027.380545	345.377622
3028.609457	348.972028
3029.833627	342.153846
3031.060640	333.013986
3032.284430	339.251748
3033.509545	347.552448
3034.732955	355.069930
3035.956174	355.636364
3037.177688	356.811189
3038.402043	352.825175
3039.621663	350.720280
3040.842609	350.398601
3042.063365	343.797203
3043.282419	345.559441
3044.502797	347.720280
3045.719959	342.755245
3046.938446	347.293706
3048.155232	348.762238
3049.371829	350.062937
3050.588239	348.272727
3051.801435	343.230769
3053.017469	345.972028
3054.230291	344.587413
3055.445950	342.258741
3056.656886	337.979021
3057.869148	339.433566
3059.081222	332.223776
3060.293110	329.713287
3061.503301	325.062937
3062.713305	318.409091
3063.923123	315.398601
3065.131245	312.045455
3066.339182	316.930070
3067.545423	329.304196
3068.752989	331.391608
3069.958860	338.430070
3071.164546	346.874126
3072.370048	347.094406
3073.573856	348.671329
3074.778988	347.611888
3075.982427	341.923077
3077.184174	340.346154
3078.385738	343.965035
3079.587118	339.104895
3080.788314	340.314685
3081.987820	333.118881
3083.187143	329.769231
3084.387789	336.503497
3085.586745	340.608392
3086.782506	344.608392
3087.981097	350.538462
3089.176494	355.139860
3090.373215	354.608392
3091.566743	352.986014
3092.763099	357.587413
3093.957768	341.685315
3095.149247	339.377622
3096.345058	330.482517
3097.536174	338.286713
3098.728614	338.153846
3099.917865	340.832168
3101.109943	340.881119
3102.300337	338.944056
3103.487545	333.202797
3104.676075	331.419580
3105.865928	325.356643
3107.052596	321.916084
3108.239085	318.727273
3109.425395	325.125874
3110.613026	320.601399
3111.797475	319.475524
3112.980245	317.013986
3114.165837	317.867133
3115.349750	310.132867
3116.531983	309.006993
3117.714039	308.678322
3118.895916	317.006993
3120.077615	312.342657
3121.257637	313.342657
3122.435982	321.013986
3123.617147	331.188811
3124.795137	326.195804
3125.972950	327.832168
3127.150586	328.587413
3128.326547	317.265734
3129.502332	309.048951
3130.679437	313.167832
3131.854869	314.587413
3133.028627	315.734266
3134.200712	311.706294
3135.374118	316.398601
3136.547349	315.699301
3137.718908	335.545455
3138.891787	339.195804
3140.061499	341.573427
3141.232532	331.195804
3142.401894	328.104895
3143.569587	327.041958
3144.740095	325.559441
3145.905944	326.363636
3147.076103	324.076923
3148.241604	321.412587
3149.406932	320.244755
3150.572086	311.825175
3151.737067	316.986014
3152.903367	308.146853
3154.065014	301.979021
3155.227982	297.825175
3156.390777	295.489510
3157.553398	283.216783
3158.714355	283.776224
3159.875140	284.685315
3161.035752	289.853147
3162.194700	294.797203
3163.353477	293.027972
3164.512081	294.636364
3165.670514	301.580420
3166.828775	301.349650
3167.985375	299.790210
3169.140313	299.111888
3170.296570	296.307692
3171.451166	292.811189
3172.605592	301.454545
3173.758357	304.503497
3174.910953	308.944056
3176.063379	310.944056
3177.215634	317.517483
3178.367720	309.377622
3179.516659	310.041958
3180.668405	303.335664
3181.818494	299.062937
3182.966925	307.720280
3184.115188	301.727273
3185.263282	298.979021
3186.411207	296.804196
3187.557476	303.755245
3188.703577	305.181818
3189.848024	311.027972
3190.992302	305.006993
3192.136413	279.923077
3193.281842	283.601399
3194.424132	282.699301
3195.566254	284.510490
3196.708210	288.762238
3197.849998	282.090909
3198.991619	286.888112
3200.130105	282.230769
3201.269908	294.993007
3202.411028	301.279720
3203.549015	302.860140
3204.685351	287.797203
3205.821523	272.454545
3206.959011	277.195804
3208.094851	272.678322
3209.232008	279.188811
3210.364552	286.804196
3211.501377	284.244755
3212.633592	276.944056
3213.767123	277.069930
3214.900489	278.762238
3216.030729	278.944056
3217.163766	266.832168
3218.293677	250.923077
3219.424904	244.300699
3220.553006	252.251748
3221.683906	255.601399
3222.813161	277.251748
3223.940773	279.643357
3225.065262	283.440559
3226.194027	292.601399
3227.319670	304.965035
3228.445150	307.783217
3229.568989	308.804196
3230.695623	298.790210
3231.817659	288.951049
3232.941011	283.937063
3234.064200	284.342657
3235.187228	276.664336
3236.308616	272.349650
3237.429843	251.594406
3238.549431	252.951049
3239.668858	256.776224
3240.786648	263.846154
3241.907229	272.860140
3243.024697	281.377622
3244.142004	286.328671
3245.259151	292.454545
3246.374661	303.902098
3247.491487	309.636364
3248.605202	304.209790
3249.721708	300.160839
3250.836578	287.510490
3251.948340	289.741259
3253.059943	291.524476
3254.172861	290.776224
3255.285619	282.699301
3256.395271	282.986014
3257.506238	289.937063
3258.617046	285.412587
3259.726222	283.510490
3260.833767	279.699301
3261.942627	274.853147
3263.051328	283.251748
3264.156927	277.650350
3265.263841	283.706294
3266.369125	277.832168
3267.475723	275.510490
3268.579221	266.951049
3269.684033	283.356643
3270.788688	288.909091
3271.890245	285.811189
3272.991645	287.902098
3274.094359	290.482517
3275.196917	283.559441
3276.296378	289.881119
3277.398623	279.916084
3278.497772	292.258741
3279.595296	290.237762
3280.692666	295.195804
3281.792817	293.951049
3282.889876	301.048951
3283.986779	292.531469
3285.083527	296.000000
3286.175716	289.027972
3287.272155	280.048951
3288.366971	264.629371
3289.461632	266.713287
3290.554672	265.846154
3291.647558	282.951049
3292.738823	279.503497
3293.831401	281.916084
3294.922359	276.818182
3296.011697	273.265734
3297.100882	260.594406
3298.191379	263.671329
3299.278793	256.832168
3300.366053	246.356643
3301.454626	244.685315
3302.543046	251.706294
3303.626920	255.804196
3304.715035	271.265734
3305.800068	271.979021
3306.883486	286.741259
3307.968216	289.174825
3309.051330	285.419580
3310.135756	288.069930
3311.217105	290.566434
3312.299765	276.188811
3313.380810	265.223776
3314.461705	262.517483
3315.540987	260.965035
3316.620118	255.146853
3317.700561	261.846154
3318.777929	261.230769
3319.856609	275.174825
3320.933677	279.286713
3322.010595	282.223776
3323.085903	289.713287
3324.161061	286.783217
3325.237530	279.174825
3326.310929	286.496503
3327.384178	278.475524
3328.458739	279.013986
3329.531691	261.566434
3330.603034	257.426573
3331.675688	257.860140
3332.745275	268.601399
3333.816173	269.265734
3334.885465	271.895105
3335.956066	270.454545
3337.025061	274.090909
3338.092451	269.230769
3339.158235	269.587413
3340.228245	259.902098
3341.295192	264.069930
3342.359077	257.097902
3343.425729	266.097902
3344.490778	265.741259
3345.554223	265.216783
3346.617522	257.076923
3347.680674	257.118881
3348.743680	254.272727
3349.806540	246.629371
3350.867797	241.741259
3351.925998	227.489510
3352.988420	223.020979
3354.047786	231.174825
3355.107006	237.440559
3356.167535	245.748252
3357.223556	243.860140
3358.282340	252.006993
3359.336617	258.013986
3360.393658	263.300699
3361.449100	261.650350
3362.505852	262.279720
3363.561005	257.776224
3364.614561	249.594406
3365.666520	242.090909
3366.721242	243.146853
3367.772914	237.230769
3368.824442	238.258741
3369.877280	229.811189
3370.927070	236.566434
3371.978169	244.923077
3373.026221	240.027972
3374.077034	235.846154
3375.124801	236.853147
3376.172426	225.629371
3377.219909	236.846154
3378.265799	232.125874
3379.312997	245.804196
3380.357152	246.440559
3381.404067	245.405594
3382.449389	244.902098
3383.491670	250.349650
3384.533810	260.405594
3385.577259	251.958042
3386.620566	249.139860
3387.662283	245.734266
3388.703860	239.398601
3389.745295	250.545455
3390.785142	247.951049
3391.823400	254.475524
3392.862966	246.055944
3393.902392	240.216783
3394.940230	247.272727
3395.976481	234.104895
3397.012592	232.251748
3398.050011	229.594406
3399.084397	231.202797
3400.120091	234.062937
3401.155645	237.209790
3402.188167	238.902098
3403.223443	232.342657
3404.255689	233.139860
3405.287795	236.461538
3406.318319	238.342657
3407.350149	242.181818
3408.381841	239.531469
3409.410505	241.104895
3410.439032	247.580420
3411.468865	246.356643
3412.498561	247.797203
3413.525231	242.153846
3414.553207	237.986014
3415.578159	240.944056
3416.605862	243.216783
3417.630540	240.720280
3418.656525	241.713287
3419.680931	241.874126
3420.705200	241.930070
3421.727890	228.419580
3422.750444	236.916084
3423.774304	232.419580
3424.795144	237.531469
3425.815848	242.276723
3426.837858	246.898601
3427.856850	250.547453
3428.875707	252.373626
3429.895870	251.527473
3430.913016	247.159341
