-117.841134	4.980000
-115.171534	2.250000
-112.504869	-1.430000
-109.838956	3.140000
-107.175976	3.510000
-104.511565	-1.570000
-101.850085	-3.260000
-99.187176	3.760000
-96.529373	-0.510000
-93.870141	0.210000
-91.211657	3.280000
-88.556098	2.600000
-85.899109	-1.170000
-83.247219	1.860000
-80.593899	-0.170000
-77.943498	3.160000
-75.291669	4.120000
-72.644930	2.270000
-69.996761	8.160000
-67.349335	1.340000
-64.704824	1.300000
-62.058883	-0.680000
-59.418024	0.830000
-56.775736	3.930000
-54.136357	0.290000
-51.495548	7.520000
-48.855480	-1.180000
-46.220485	3.480000
-43.584060	3.320000
-40.950538	5.670000
-38.315588	6.460000
-35.685703	6.750000
-33.052226	1.440000
-30.423811	4.870000
-27.796130	9.660000
-25.167020	7.740000
-22.542967	6.790000
-19.915325	8.270000
-17.292737	15.020000
-14.670879	17.400000
-12.049752	45.320000
-9.429356	90.940000
-6.811847	327.330000
-4.192910	923.240000
-1.576858	2524.910000
1.038465	4061.230000
3.653060	3609.370000
6.264774	526.250000
8.877916	52.530000
11.486024	25.310000
14.097713	13.920000
16.704373	9.910000
19.312460	8.040000
21.919823	11.550000
24.522161	4.670000
27.128077	6.670000
29.728971	3.530000
32.331293	1.980000
34.928597	3.080000
37.529478	3.410000
40.125343	2.100000
42.722637	-0.870000
45.319211	4.370000
47.910776	8.540000
50.503769	3.990000
53.093901	1.480000
55.685460	0.990000
58.274161	2.380000
60.864288	6.050000
63.449416	2.760000
66.035972	9.140000
68.621814	4.200000
71.204802	1.670000
73.789216	1.280000
76.366502	7.050000
78.947354	-1.510000
81.525357	3.180000
84.102650	2.790000
86.681369	3.620000
89.255106	5.210000
91.830271	5.890000
94.402592	1.380000
96.974205	7.640000
99.542978	5.010000
102.113178	0.080000
104.680539	-0.420000
107.249327	2.320000
109.815278	8.230000
112.378394	5.230000
114.945066	7.470000
117.502516	11.030000
120.065653	0.270000
122.623829	6.280000
125.185560	4.590000
127.742334	13.690000
130.300534	20.940000
132.853782	30.410000
135.406332	39.520000
137.962432	57.160000
140.513584	74.120000
143.064039	89.550000
145.613796	105.450000
148.160734	116.840000
150.706977	121.680000
153.254645	122.370000
155.801617	126.360000
158.343654	122.200000
160.884997	123.320000
163.425647	122.970000
165.967723	118.070000
168.506987	115.950000
171.043442	114.750000
173.579207	121.680000
176.116397	116.340000
178.652896	114.110000
181.186589	115.300000
183.717478	113.260000
186.247679	116.940000
188.779306	117.720000
191.308131	114.310000
193.834157	113.300000
196.359497	112.690000
198.886262	118.990000
201.410231	117.490000
203.933515	113.540000
206.456113	117.110000
208.975919	114.120000
211.495042	116.260000
214.013483	120.360000
216.533347	118.610000
219.046210	118.310000
221.562604	126.490000
224.078316	124.350000
226.589138	129.600000
229.101385	140.510000
231.610849	136.910000
234.119635	137.320000
236.627743	141.300000
239.137275	138.820000
241.641926	143.090000
244.145901	136.940000
246.651300	143.590000
249.151824	144.760000
251.655871	133.070000
254.152948	137.660000
256.653548	142.730000
259.151376	139.590000
261.648531	145.200000
264.145013	140.850000
266.636632	146.360000
269.131771	140.450000
271.624143	139.030000
274.115845	146.790000
276.604784	151.210000
279.095146	153.120000
281.582747	157.590000
284.067588	160.920000
286.555944	158.740000
289.037360	155.560000
291.522290	163.310000
294.002375	170.750000
296.485972	166.330000
298.964726	188.420000
301.444903	185.930000
303.922329	187.590000
306.399091	184.190000
308.875189	176.850000
311.348540	165.910000
313.821228	164.860000
316.293255	171.500000
318.764621	174.820000
321.233242	176.370000
323.701204	181.250000
326.170589	168.440000
328.635151	160.910000
331.103217	157.860000
333.566463	151.970000
336.029051	154.400000
338.490983	151.570000
340.952258	153.740000
343.410798	148.910000
345.870762	147.590000
348.327992	146.310000
350.784568	141.510000
353.240490	146.150000
355.693682	140.700000
358.148297	141.140000
360.598110	140.910000
363.051419	141.660000
365.499929	145.160000
367.947789	142.970000
370.397071	142.350000
372.841559	137.570000
375.287469	136.010000
377.732729	136.810000
380.175271	136.880000
382.617165	134.440000
385.058412	129.150000
387.496943	138.170000
389.936895	131.130000
392.374134	131.030000
394.808662	127.930000
397.246677	134.550000
399.679915	134.380000
402.114574	136.210000
404.544461	133.680000
406.977833	130.800000
409.406435	132.570000
411.834395	130.470000
414.263777	130.780000
416.688393	132.180000
419.114431	132.020000
421.539828	133.880000
423.964585	136.170000
426.384584	136.690000
428.806003	132.580000
431.224727	133.720000
433.644871	131.570000
436.062320	129.450000
438.481189	128.560000
440.897365	135.230000
443.308793	123.250000
445.723698	130.020000
448.135914	126.100000
450.547495	124.980000
452.958442	120.210000
455.366703	122.520000
457.774331	118.390000
460.181327	114.520000
462.587692	123.140000
464.991374	119.350000
467.394426	123.560000
469.796848	120.110000
472.198640	122.430000
474.597754	128.140000
476.998288	127.770000
479.398193	130.930000
481.793376	133.740000
484.192025	136.050000
486.585953	143.420000
488.979256	147.410000
491.371934	158.620000
493.763986	157.860000
496.157456	161.180000
498.546214	189.220000
500.932306	206.190000
503.319818	243.690000
505.706707	309.990000
508.090932	418.980000
510.476575	620.470000
512.859557	1044.890000
515.239878	1922.940000
517.621618	3579.700000
520.000699	5258.280000
522.381198	5168.270000
524.759041	3392.760000
527.134227	1725.580000
529.508797	943.600000
531.884784	628.080000
534.258119	465.320000
536.632871	376.980000
539.002937	309.590000
541.372389	268.590000
543.743258	236.150000
546.109446	218.860000
548.477053	192.730000
550.842015	179.760000
553.206363	168.690000
555.570098	160.150000
557.935251	151.470000
560.295732	136.910000
562.657631	136.160000
565.016889	126.420000
567.373509	130.520000
569.733575	127.310000
572.086949	112.210000
574.443768	112.370000
576.797952	112.100000
579.151527	105.560000
581.504495	105.990000
583.854830	102.160000
586.206583	109.140000
588.551659	102.080000
590.902198	101.190000
593.246065	99.630000
595.595393	101.470000
597.940072	102.410000
600.282127	106.720000
602.625599	102.750000
604.966448	101.170000
607.306694	99.680000
609.644320	107.390000
611.985381	105.540000
614.321805	108.950000
616.659645	105.130000
618.994868	102.010000
621.327475	105.070000
623.661498	99.430000
625.992907	103.950000
628.323718	96.970000
630.653931	98.910000
632.983547	95.880000
635.308539	95.460000
637.638973	99.760000
639.964786	93.190000
642.287991	91.910000
644.612613	86.350000
646.934629	90.590000
649.256051	87.400000
651.574870	86.570000
653.895106	88.380000
656.214748	96.400000
658.531789	89.300000
660.848238	88.500000
663.162089	88.950000
665.477356	87.530000
667.790026	93.040000
670.104111	84.610000
672.413596	96.580000
674.724497	90.440000
677.032805	84.960000
679.340525	86.960000
681.649659	87.920000
683.954201	89.290000
686.258157	83.470000
688.561527	79.650000
690.866311	79.850000
693.166508	78.030000
695.468121	78.330000
697.769148	78.160000
700.065594	75.310000
702.363455	76.220000
704.660732	74.150000
706.957426	74.420000
709.249544	72.650000
711.545073	73.140000
713.836028	74.630000
716.128398	74.270000
718.418193	73.980000
720.707407	77.140000
722.996042	78.430000
725.282104	73.340000
727.569581	74.310000
729.854486	78.820000
732.138814	76.220000
734.420573	75.670000
736.703746	80.990000
738.986342	69.110000
741.264382	74.820000
743.543837	74.640000
745.822715	74.360000
748.101019	71.970000
750.374773	76.940000
752.649940	77.670000
754.924534	75.390000
757.196569	77.730000
759.470017	75.550000
761.740907	78.970000
764.009241	72.050000
766.278988	77.380000
768.546180	76.740000
770.812803	76.450000
773.078855	77.380000
775.342356	77.620000
777.607270	79.410000
779.871614	77.690000
782.131429	82.260000
784.392656	80.860000
786.653316	82.130000
788.911430	82.550000
791.166999	86.490000
793.425959	77.410000
795.678419	80.150000
797.936247	80.950000
800.189556	88.280000
802.440325	79.750000
804.692506	87.260000
806.942148	80.210000
809.193202	82.180000
811.439746	80.500000
813.687701	84.080000
815.933122	82.110000
818.179954	82.770000
820.426225	88.300000
822.667991	80.380000
824.913141	80.240000
827.151818	82.540000
829.393877	86.250000
831.631438	81.940000
833.870411	83.950000
836.106857	82.420000
838.344714	81.270000
840.580046	80.550000
842.812855	87.260000
845.047074	79.000000
847.278772	80.240000
849.509915	81.170000
851.740503	81.700000
853.970537	78.910000
856.200017	74.570000
858.425015	83.830000
860.653388	77.500000
862.877281	78.610000
865.102586	80.910000
867.323415	79.470000
869.547616	81.060000
871.767344	80.910000
873.988482	84.550000
876.209070	81.920000
878.427149	75.670000
880.646637	79.240000
882.861659	84.570000
885.076133	81.230000
887.290060	80.690000
889.503440	80.100000
891.716272	80.920000
893.928558	79.490000
896.138341	86.230000
898.347579	73.170000
900.556272	79.820000
902.762465	81.550000
904.970069	85.340000
907.175174	81.590000
909.379736	86.250000
911.581803	88.760000
913.785279	85.940000
915.986261	85.750000
918.186701	87.610000
920.388550	90.160000
922.584008	90.680000
924.782825	99.420000
926.977203	105.580000
929.174939	118.410000
931.368239	129.210000
933.562948	146.160000
935.755171	168.430000
937.946855	186.930000
940.138002	205.290000
942.326666	208.740000
944.514794	211.530000
946.700441	208.190000
948.889440	208.570000
951.074016	201.740000
953.258057	205.790000
955.445448	209.850000
957.624535	209.060000
959.806973	212.320000
961.988877	210.150000
964.168306	214.960000
966.345263	215.790000
968.523628	219.580000
970.703400	223.830000
972.876823	222.710000
975.053592	230.340000
977.225954	224.910000
979.399724	223.390000
981.569090	217.280000
983.741800	219.840000
985.912045	209.380000
988.081760	191.150000
990.250948	186.210000
992.415738	164.420000
994.583869	150.900000
996.747605	138.810000
998.912749	134.790000
1001.075433	131.040000
1003.237592	126.400000
1005.397294	124.300000
1007.556471	115.850000
1009.717055	113.900000
1011.875184	109.500000
1014.032790	107.630000
1016.189872	104.030000
1018.346430	107.210000
1020.498609	106.120000
1022.652195	99.760000
1024.805259	100.040000
1026.955874	95.400000
1029.107896	96.380000
1031.255544	90.710000
1033.406524	91.930000
1035.553133	86.590000
1037.699223	88.070000
1039.844795	89.660000
1041.991772	85.130000
1044.132460	80.280000
1046.276478	81.050000
1048.418055	86.080000
1050.559115	80.050000
1052.701581	80.470000
1054.837766	82.910000
1056.977278	86.160000
1059.112435	78.580000
1061.250916	82.160000
1063.385043	83.970000
1065.518657	81.930000
1067.653675	81.510000
1069.784345	82.270000
1071.916419	80.850000
1074.046064	79.280000
1076.175197	79.780000
1078.303818	79.090000
1080.431928	77.090000
1082.557612	81.430000
1084.682786	80.500000
1086.809364	72.970000
1088.931604	77.060000
1091.055249	77.670000
1093.174559	77.010000
1095.299098	70.770000
1097.417393	78.350000
1099.537092	72.560000
1101.654372	75.050000
1103.771145	76.790000
1105.887413	71.910000
1108.001264	75.350000
1110.116520	71.130000
1112.227452	73.390000
1114.341697	75.290000
1116.451621	76.460000
1118.562949	66.580000
1120.673772	68.110000
1122.780279	68.330000
1124.890095	68.300000
1126.995598	67.890000
1129.102503	61.470000
1131.203193	67.070000
1133.309095	68.180000
1135.410688	62.670000
1137.513684	66.790000
1139.616179	71.640000
1141.712467	63.630000
1143.813962	67.140000
1145.911155	65.810000
1148.007850	66.400000
1150.104046	69.860000
1152.199744	67.650000
1154.294945	70.220000
1156.387749	68.180000
1158.481955	65.440000
1160.569970	72.520000
1162.663184	67.290000
1164.750209	60.510000
1166.840533	61.440000
1168.926569	65.130000
1171.015904	65.000000
1173.099057	65.320000
1175.183612	63.120000
1177.269569	67.130000
1179.351244	63.810000
1181.434320	66.020000
1183.515011	63.700000
1185.595211	64.740000
1187.674919	65.060000
1189.754136	61.170000
1191.830971	67.170000
1193.905424	64.310000
1195.983170	61.980000
1198.056646	67.200000
1200.131522	62.520000
1202.202131	62.420000
1204.274141	65.050000
1206.343775	65.080000
1208.414810	60.250000
1210.485358	63.910000
1212.551644	65.260000
1214.619331	63.080000
1216.684646	63.430000
1218.751361	62.480000
1220.813820	60.550000
1222.879564	59.230000
1224.941054	60.990000
1227.003945	64.280000
1229.064468	61.970000
1231.124507	58.790000
1233.184063	59.800000
1235.241255	59.370000
1237.297965	58.370000
1239.352311	63.910000
1241.409939	62.470000
1243.465203	63.810000
1245.516228	53.950000
1247.568652	53.740000
1249.620596	58.430000
1251.670182	60.000000
1253.719289	59.290000
1255.767917	66.200000
1257.816067	57.780000
1259.863739	59.310000
1261.907180	56.900000
1263.953897	60.740000
1265.998260	56.270000
1268.042147	55.440000
1270.083682	58.550000
1272.122868	60.510000
1274.165327	60.420000
1276.203563	61.120000
1278.243198	58.900000
1280.282358	55.700000
1282.317299	57.120000
1284.353639	61.730000
1286.387635	62.580000
1288.423028	61.320000
1290.454209	56.480000
1292.486787	61.290000
1294.518894	63.840000
1296.548660	59.770000
1298.579823	61.070000
1300.606780	56.990000
1302.635134	62.380000
1304.659283	59.220000
1306.686698	63.540000
1308.709910	62.880000
1310.734520	53.400000
1312.756796	56.860000
1314.780468	63.710000
1316.801808	58.180000
1318.822681	64.540000
1320.843086	64.510000
1322.859298	57.290000
1324.876907	61.440000
1326.892188	60.600000
1328.910728	61.570000
1330.925079	61.340000
1332.937103	62.340000
1334.952386	62.010000
1336.963483	55.610000
1338.975977	53.360000
1340.984288	56.590000
1342.995854	58.320000
1345.001382	56.910000
1347.010165	55.730000
1349.014770	59.790000
1351.022629	55.650000
1353.030026	58.800000
1355.031392	60.740000
1357.034154	63.260000
1359.036457	53.450000
1361.038300	56.040000
1363.039683	59.360000
1365.038753	59.360000
1367.037364	58.410000
1369.035516	59.160000
1371.033211	52.730000
1373.026743	58.720000
1375.021670	58.940000
1377.016141	57.980000
1379.010155	61.160000
1381.001862	58.910000
1382.993113	52.700000
1384.982059	52.260000
1386.972401	59.730000
1388.962287	57.470000
1390.949869	57.140000
1392.936998	58.610000
1394.921825	59.040000
1396.908047	57.790000
1398.891968	53.750000
1400.875437	55.370000
1402.858454	60.670000
1404.839173	57.960000
1406.821286	60.260000
1408.801103	58.830000
1410.780468	57.850000
1412.755695	57.160000
1414.734160	58.350000
1416.710332	56.810000
1418.686054	59.260000
1420.661328	59.210000
1422.634310	59.860000
1424.606844	58.470000
1426.578930	60.660000
1428.550569	57.740000
1430.518079	59.880000
1432.490663	61.070000
1434.455441	54.680000
1436.425292	58.740000
1438.391019	55.950000
1440.358138	58.890000
1442.322974	63.400000
1444.283690	62.830000
1446.249474	59.680000
1448.209303	62.630000
1450.170526	62.130000
1452.133140	55.820000
1454.091640	61.010000
1456.049698	61.920000
1458.007314	62.380000
1459.964487	59.620000
1461.919385	62.760000
1463.875676	54.700000
1465.829692	53.290000
1467.783267	58.090000
1469.734570	52.730000
1471.687265	53.700000
1473.637689	62.130000
1475.587674	57.430000
1477.537220	59.380000
1479.484497	62.100000
1481.429506	59.200000
1483.375908	61.690000
1485.321872	57.020000
1487.267399	56.880000
1489.210660	56.450000
1491.153486	55.190000
1493.094047	53.360000
1495.036001	56.620000
1496.975692	53.600000
1498.914948	55.230000
1500.853770	55.440000
1502.790332	54.050000
1504.728285	58.500000
1506.663979	53.140000
1508.599240	51.990000
1510.532244	56.290000
1512.464817	54.770000
1514.396956	55.710000
1516.328664	56.000000
1518.258119	54.140000
1520.188964	54.740000
1522.119377	58.050000
1524.045718	54.090000
1525.973449	60.010000
1527.898931	55.560000
1529.823983	55.220000
1531.748606	60.360000
1533.672799	56.650000
1535.594746	57.440000
1537.518083	51.430000
1539.439173	59.330000
1541.358019	57.410000
1543.278255	53.440000
1545.196248	55.930000
1547.113813	55.190000
1549.029138	59.080000
1550.945852	53.940000
1552.858511	59.090000
1554.774373	57.850000
1556.687997	58.040000
1558.599382	58.270000
1560.512157	58.490000
1562.420882	54.910000
1564.330996	51.330000
1566.240687	56.130000
1568.149955	51.890000
1570.056989	54.210000
1571.961790	53.630000
1573.867979	58.610000
1575.771938	57.230000
1577.675475	58.900000
1579.578592	52.450000
1581.479479	55.620000
1583.381755	56.490000
1585.281803	55.110000
1587.183238	59.740000
1589.080640	60.580000
1590.977623	53.760000
1592.874188	55.270000
1594.772140	54.760000
1596.664258	55.650000
1598.559570	57.080000
1600.454464	52.680000
1602.347136	60.160000
1604.239391	58.670000
1606.129427	54.620000
1608.019047	54.620000
1609.908252	56.140000
1611.797041	59.520000
1613.683614	53.300000
1615.571574	54.460000
1617.455517	62.540000
1619.340847	50.870000
1621.225764	53.940000
1623.108467	52.790000
1624.992557	55.850000
1626.872635	55.960000
1628.754101	57.140000
1630.633356	51.090000
1632.513997	59.450000
1634.388834	56.370000
1636.268652	63.640000
1638.144466	54.630000
1640.019869	53.970000
1641.896658	58.280000
1643.767651	60.230000
1645.641825	57.070000
1647.512000	54.420000
1649.385356	55.100000
1651.256509	52.110000
1653.125461	54.020000
1654.995797	56.560000
1656.862141	58.680000
1658.729870	51.940000
1660.595400	55.590000
1662.462316	55.460000
1664.325242	56.570000
1666.189555	55.900000
1668.051671	51.160000
1669.913382	55.190000
1671.776479	55.040000
1673.637380	54.410000
1675.496089	58.990000
1677.354394	55.750000
1679.214083	51.140000
1681.068006	55.600000
1682.925102	58.060000
1684.781794	58.020000
1686.634511	57.020000
1688.490399	54.180000
1690.342313	54.570000
1692.193826	54.640000
1694.044938	49.180000
1695.895649	62.240000
1697.745960	53.710000
1699.594087	54.800000
1701.443598	59.310000
1703.287359	57.040000
1705.136071	56.390000
1706.979036	56.170000
1708.825168	61.380000
1710.667337	56.800000
1712.512672	53.420000
1714.352266	52.730000
1716.193244	54.920000
1718.035605	56.330000
1719.874010	54.110000
1721.713798	59.150000
1723.551410	52.090000
1725.388628	50.860000
1727.223672	55.620000
1729.060099	55.960000
1730.894353	54.970000
1732.728214	52.300000
1734.561680	54.980000
1736.391200	54.810000
1738.223880	55.230000
1740.052615	52.580000
1741.884507	57.890000
1743.712457	55.190000
1745.540015	55.110000
1747.367182	58.080000
1749.193957	55.640000
1751.020340	59.050000
1752.842787	47.110000
1754.668389	51.530000
1756.490056	53.580000
1758.313104	47.710000
1760.133992	54.200000
1761.954491	50.990000
1763.776370	54.600000
1765.592550	50.710000
1767.411883	57.930000
1769.227287	56.270000
1771.045843	53.790000
1772.860473	49.120000
1774.674716	48.780000
1776.488573	50.280000
1778.302043	49.330000
1780.113360	56.920000
1781.926057	52.520000
1783.738369	56.780000
1785.546762	48.850000
1787.356537	52.970000
1789.162397	54.890000
1790.971402	55.880000
1792.776494	47.550000
1794.582967	55.710000
1796.389056	50.330000
1798.191234	55.580000
1799.996557	56.230000
1801.797971	55.710000
1803.600765	51.570000
1805.399653	57.490000
1807.199922	50.280000
1808.999809	52.250000
1810.797554	55.740000
1812.594919	59.630000
1814.391903	47.530000
1816.188508	45.270000
1817.982973	52.570000
1819.778817	48.080000
1821.569006	50.420000
1823.364092	49.230000
1825.153525	49.650000
1826.946096	50.730000
1828.736531	53.090000
1830.524832	53.530000
1832.316267	48.700000
1834.102058	50.200000
1835.889228	49.690000
1837.674266	51.670000
1839.462438	53.820000
1841.246724	52.540000
1843.028880	50.390000
1844.812416	56.960000
1846.593823	48.470000
1848.376609	49.620000
1850.155514	50.350000
1851.935798	50.830000
1853.713957	59.360000
1855.493494	52.470000
1857.270905	48.820000
1859.046194	53.690000
1860.822860	48.850000
1862.597404	54.740000
1864.373325	54.090000
1866.143627	53.050000
1867.917056	52.400000
1869.688365	49.220000
1871.459303	49.210000
1873.231619	52.970000
1874.998321	55.520000
1876.768148	53.050000
1878.534112	54.560000
1880.303200	49.910000
1882.068426	45.180000
1883.833284	51.460000
1885.599519	51.590000
1887.361895	55.930000
1889.123903	47.370000
1890.885545	50.240000
1892.646819	48.260000
1894.407727	53.380000
1896.168268	50.370000
1897.926699	57.590000
1899.684764	50.740000
1901.440722	51.460000
1903.198056	48.920000
1904.955025	52.140000
1906.709887	56.260000
1908.462645	47.930000
1910.215038	53.020000
1911.968808	51.290000
1913.720474	51.240000
1915.470038	52.840000
1917.220977	55.070000
1918.971553	53.790000
1920.718291	52.510000
1922.466404	54.660000
1924.212419	49.240000
1925.959808	54.350000
1927.705100	53.470000
1929.448294	51.710000
1931.192863	51.250000
1932.935336	48.950000
1934.677450	44.850000
1936.419203	55.170000
1938.160596	53.400000
1939.899896	46.430000
1941.638837	47.270000
1943.377419	51.880000
1945.113910	56.680000
1946.850043	56.920000
1948.587550	57.160000
1950.321235	56.750000
1952.056295	50.910000
1953.789266	54.700000
1955.521881	48.840000
1957.254140	54.230000
1958.986042	52.870000
1960.715858	56.310000
1962.443589	56.610000
1964.172695	52.220000
1965.901445	52.330000
1967.628113	52.690000
1969.354426	52.780000
1971.082112	54.580000
1972.804262	46.600000
1974.529513	57.800000
1976.250957	47.750000
1977.975501	56.980000
1979.697966	52.220000
1981.416628	51.460000
1983.138388	51.350000
1984.856346	51.500000
1986.575677	46.340000
1988.291209	54.590000
1990.011561	53.340000
1991.728115	54.360000
1993.440872	50.270000
1995.156725	48.640000
1996.870506	51.490000
1998.583937	48.890000
2000.295297	59.400000
2002.008029	58.530000
2003.716971	51.860000
2005.429005	57.400000
2007.135530	55.200000
2008.845148	57.910000
2010.552698	52.890000
2012.259901	53.040000
2013.965038	53.090000
2015.669829	52.120000
2017.375991	53.300000
2019.078371	54.070000
2020.782122	57.650000
2022.483811	52.380000
2024.185154	54.920000
2025.886153	52.780000
2027.585090	51.360000
2029.285399	59.620000
2030.981932	52.080000
2032.679837	49.980000
2034.375684	47.950000
2036.074616	55.500000
2037.768062	51.600000
2039.462879	50.460000
2041.157354	50.670000
2042.848060	49.940000
2044.541850	54.750000
2046.231873	48.890000
2047.923267	55.810000
2049.612608	51.680000
2051.303319	50.840000
2052.990267	58.330000
2054.676876	48.220000
2056.364854	48.680000
2058.049073	47.710000
2059.734663	51.060000
2061.419912	50.710000
2063.103114	48.570000
2064.787686	54.140000
2066.466794	49.780000
2068.150689	53.680000
2069.829122	52.240000
2071.510633	47.090000
2073.188392	53.340000
2074.865815	53.240000
2076.544607	48.430000
2078.221357	49.210000
2079.896064	48.620000
2081.572142	51.670000
2083.246178	48.340000
2084.919880	51.910000
2086.593246	48.830000
2088.264573	52.890000
2089.935566	46.900000
2091.606225	47.280000
2093.276550	48.360000
2094.946541	54.840000
2096.614496	49.920000
2098.282117	55.330000
2099.947705	49.060000
2101.614661	52.440000
2103.279584	55.010000
2104.944175	52.490000
2106.606734	54.120000
2108.270661	54.410000
2109.932557	50.580000
2111.594123	51.460000
2113.255357	48.480000
2114.914563	48.090000
2116.573438	46.100000
2118.231984	48.880000
2119.890199	56.710000
2121.544692	48.730000
2123.202249	54.040000
2124.859476	51.130000
2126.512983	51.790000
2128.167857	49.510000
2129.819012	52.890000
2131.473230	57.200000
2133.123730	55.640000
2134.775598	54.390000
2136.422057	44.460000
2138.073271	56.460000
2139.720771	53.240000
2141.369638	49.290000
2143.016486	48.260000
2144.663009	51.360000
2146.309206	52.330000
2147.951695	52.280000
2149.597241	48.570000
2151.239082	46.490000
2152.883979	49.700000
2154.525170	53.760000
2156.166038	49.540000
2157.806583	47.970000
2159.445115	54.160000
2161.085013	48.940000
2162.721211	50.160000
2164.358775	52.910000
2165.996017	53.380000
2167.631249	52.170000
2169.266159	49.750000
2170.900748	49.820000
2172.535016	48.700000
2174.165590	48.580000
2175.799216	47.810000
2177.429150	52.170000
2179.060449	46.020000
2180.689743	49.480000
2182.318718	46.600000
2183.947373	48.400000
2185.575709	43.030000
2187.202043	48.860000
2188.828057	49.980000
2190.452071	50.730000
2192.077450	47.330000
2193.700828	45.810000
2195.325571	50.020000
2196.946633	51.080000
2198.567378	45.730000
2200.189487	52.150000
2201.809599	54.440000
2203.427715	48.490000
2205.045515	48.020000
2206.663000	51.560000
2208.280169	50.350000
2209.897023	44.430000
2211.513561	48.490000
2213.128107	46.590000
2214.740660	47.760000
2216.354577	45.950000
2217.966503	51.910000
2219.579792	47.720000
2221.191091	50.130000
2222.800400	48.220000
2224.411073	46.240000
2226.019757	52.740000
2227.628128	48.990000
2229.234513	49.290000
2230.842260	48.390000
2232.448022	50.090000
2234.053472	48.960000
2235.656937	47.390000
2237.261765	49.320000
2238.864609	48.020000
2240.465470	50.970000
2242.067694	48.940000
2243.667936	48.600000
2245.269540	51.710000
2246.867491	52.250000
2248.466805	48.140000
2250.064139	50.050000
2251.661165	49.740000
2253.259553	46.860000
2254.854292	48.100000
2256.447054	50.940000
2258.041179	53.810000
2259.636665	47.000000
2261.228506	46.250000
2262.820041	45.930000
2264.412938	44.250000
2266.000525	46.070000
2267.592808	44.000000
2269.179785	54.630000
2270.769789	49.580000
2272.354489	50.770000
2273.943883	52.160000
2275.527974	52.560000
2277.113427	46.520000
2278.696911	43.880000
2280.283420	49.580000
2281.866296	43.230000
2283.448869	45.440000
2285.031138	49.700000
2286.609777	48.450000
2288.191441	50.480000
2289.769476	47.350000
2291.350534	44.500000
2292.927965	44.990000
2294.503433	45.480000
2296.081923	56.050000
2297.656789	49.880000
2299.231354	44.870000
2300.805618	47.680000
2302.379583	46.850000
2303.953246	48.440000
2305.526610	45.930000
2307.096355	44.530000
2308.665801	45.250000
2310.238265	47.960000
2311.805455	38.730000
2313.375663	47.960000
2314.942256	47.660000
2316.510209	49.090000
2318.076206	45.140000
2319.641906	50.960000
2321.207308	47.400000
2322.770757	44.140000
2324.335565	47.910000
2325.896765	56.090000
2327.460979	55.150000
2329.019931	60.190000
2330.581897	51.970000
2332.141913	51.170000
2333.701633	47.010000
2335.259405	45.290000
2336.816881	45.190000
2338.374063	49.030000
2339.929297	42.570000
2341.484238	46.760000
2343.038884	47.870000
2344.593237	42.330000
2346.147296	46.060000
2347.701062	50.430000
2349.252883	47.000000
2350.802762	44.580000
2352.355648	47.280000
2353.903291	41.860000
2355.453943	44.410000
2357.001003	48.340000
2358.549421	49.410000
2360.097548	42.170000
2361.642086	48.970000
2363.187982	45.920000
2364.731940	49.000000
2366.277254	44.000000
2367.818985	49.480000
2369.362072	47.000000
2370.903223	43.920000
2372.444085	41.080000
2373.984658	52.340000
2375.524942	42.290000
2377.064937	43.980000
2378.601354	41.220000
2380.140772	43.380000
2381.676612	43.640000
2383.213810	45.690000
2384.747432	43.780000
2386.284054	49.390000
2387.818746	46.560000
2389.351508	53.710000
2390.883983	42.980000
2392.414530	49.650000
2393.948075	47.000000
2395.476409	42.790000
2397.006099	43.790000
2398.535504	46.690000
2400.064624	53.490000
2401.593458	44.920000
2403.117088	45.720000
2404.645353	41.760000
2406.168416	47.420000
2407.696112	46.820000
2409.216969	47.310000
2410.742458	46.160000
2412.264388	50.820000
2413.787672	44.170000
2415.309036	45.080000
2416.828480	39.970000
2418.349279	48.560000
2419.868159	48.690000
2421.386758	44.830000
2422.903439	47.230000
2424.421474	52.470000
2425.939228	47.130000
2427.453430	45.290000
2428.967353	45.830000
2430.480995	39.200000
2431.995992	51.210000
2433.507440	51.700000
2435.020242	40.610000
2436.531132	50.270000
2438.041743	47.470000
2439.550442	43.080000
2441.062127	43.000000
2442.570269	47.370000
2444.078133	41.080000
2445.585718	43.740000
2447.089764	46.780000
2448.596794	44.400000
2450.101916	48.730000
2451.606761	46.650000
2453.109699	39.910000
2454.612361	46.800000
2456.114746	47.110000
2457.615226	44.180000
2459.117059	43.040000
2460.616987	43.840000
2462.116640	44.240000
2463.616018	42.550000
2465.113493	37.560000
2466.609066	47.110000
2468.107619	39.730000
2469.602644	42.420000
2471.099021	42.970000
2472.591872	46.210000
2474.086076	45.410000
2475.580006	47.860000
2477.070412	45.760000
2478.563796	39.320000
2480.055282	45.690000
2481.544871	46.040000
2483.034188	41.110000
2484.521609	46.390000
2486.012006	46.770000
2487.498885	43.270000
2488.987115	49.580000
2490.471828	44.650000
2491.956272	46.120000
2493.442066	45.270000
2494.925969	47.500000
2496.411222	39.530000
2497.891342	39.480000
2499.374435	44.550000
2500.855637	41.120000
2502.336570	41.900000
2503.815614	42.020000
2505.294389	41.180000
2506.772896	39.990000
2508.251135	45.430000
2509.729105	42.690000
2511.203570	43.470000
2512.681005	40.330000
2514.154936	39.000000
2515.630217	45.870000
2517.105231	40.060000
2518.576744	42.810000
2520.049608	45.000000
2521.520589	41.870000
2522.992920	48.460000
2524.460137	37.510000
2525.930321	42.390000
2527.398624	42.490000
2528.866662	42.790000
2530.334435	41.950000
2531.801943	45.450000
2533.269186	46.070000
2534.732937	41.460000
2536.198038	43.610000
2537.661262	42.560000
2539.125835	49.550000
2540.586920	44.650000
2542.049354	43.210000
2543.511525	39.080000
2544.970210	45.480000
2546.433466	46.270000
2547.891626	39.460000
2549.351136	42.550000
2550.805551	45.310000
2552.264537	43.390000
2553.721651	41.710000
2555.176893	44.550000
2556.631875	44.150000
2558.084988	44.680000
2559.539448	42.330000
2560.992040	38.980000
2562.444372	39.680000
2563.894837	46.720000
2565.348257	44.420000
2566.796595	41.090000
2568.247888	44.300000
2569.697316	42.050000
2571.143271	37.350000
2572.592181	40.580000
2574.037621	42.870000
2575.484408	44.290000
2576.929332	39.470000
2578.373999	46.200000
2579.820013	37.780000
2581.262561	44.830000
2582.706456	38.240000
2584.146885	37.630000
2585.588663	42.900000
2587.028581	46.200000
2588.469846	44.720000
2589.907649	39.230000
2591.348402	45.000000
2592.784093	43.870000
2594.222732	44.400000
2595.659515	41.830000
2597.094442	33.180000
2598.532316	41.750000
2599.965133	44.840000
2601.399297	41.670000
2602.831607	42.020000
2604.265263	47.700000
2605.697066	42.780000
2607.128615	43.760000
2608.559912	38.350000
2609.989356	39.950000
2611.418548	42.870000
2612.845890	40.660000
2614.274577	42.280000
2615.703013	40.290000
2617.128001	43.730000
2618.554336	42.160000
2619.978822	41.710000
2621.404654	43.310000
2622.827042	40.580000
2624.250776	47.210000
2625.672663	44.930000
2627.094300	42.650000
2628.514093	39.470000
2629.935231	45.970000
2631.356119	40.030000
2632.773568	39.630000
2634.193958	43.070000
2635.610910	43.540000
2637.027613	42.570000
2638.444068	41.400000
2639.860275	42.510000
2641.276234	44.870000
2642.690352	41.530000
2644.104222	38.650000
2645.516253	39.950000
2646.929629	35.680000
2648.339575	43.090000
2649.752457	40.640000
2651.161910	37.660000
2652.571117	40.160000
2653.978488	39.280000
2655.388793	40.380000
2656.797263	35.620000
2658.203897	38.690000
2659.610286	38.840000
2661.014841	40.380000
2662.420740	38.360000
2663.824806	42.420000
2665.228627	44.780000
2666.632204	40.190000
2668.033950	41.620000
2669.437039	38.790000
2670.836710	43.190000
2672.237725	37.880000
2673.635324	41.030000
2675.035852	37.260000
2676.432966	43.740000
2677.831423	37.890000
2679.228053	41.740000
2680.624440	41.830000
2682.020585	40.580000
2683.414904	44.470000
2684.810566	40.860000
2686.202819	45.860000
2687.596414	44.360000
2688.988185	39.250000
2690.381299	37.820000
2691.772589	39.380000
2693.162056	38.390000
2694.551283	46.880000
2695.940271	39.360000
2697.330600	38.890000
2698.715946	41.560000
2700.104215	43.670000
2701.490664	43.780000
2702.876874	43.360000
2704.262845	43.540000
2705.645418	39.990000
2707.029333	34.760000
2708.413010	38.820000
2709.796448	41.660000
2711.176491	40.470000
2712.557876	42.970000
2713.937446	42.770000
2715.318356	36.210000
2716.697452	40.040000
2718.074734	37.070000
2719.453357	33.570000
2720.830166	39.520000
2722.206740	38.140000
2723.583078	41.060000
2724.957604	30.080000
2726.333471	41.580000
2727.705952	39.740000
2729.081348	29.380000
2730.451784	38.390000
2731.823561	39.590000
2733.195103	39.340000
2734.564837	39.310000
2735.935911	39.270000
2737.305178	38.960000
2738.674211	37.780000
2740.041438	40.570000
2741.408431	39.690000
2742.775192	40.990000
2744.141720	38.910000
2745.506444	34.660000
2746.870935	43.070000
2748.235195	34.660000
2749.599222	41.960000
2750.963018	41.540000
2752.323440	39.650000
2753.686772	36.190000
2755.045162	42.660000
2756.406462	44.120000
2757.764392	39.700000
2759.125230	33.740000
2760.484268	40.330000
2761.839939	35.530000
2763.198517	40.640000
2764.553728	37.980000
2765.908710	39.460000
2767.261895	37.280000
2768.617987	38.930000
2769.970715	37.540000
2771.323215	41.410000
2772.675486	39.690000
2774.029095	41.080000
2775.379344	35.130000
2776.727798	38.380000
2778.079157	40.570000
2779.427158	39.700000
2780.776496	35.850000
2782.124042	34.550000
2783.471362	37.690000
2784.818455	35.600000
2786.163756	31.830000
2787.508832	37.050000
2788.853682	36.620000
2790.198306	31.090000
2791.539578	39.590000
2792.882187	30.820000
2794.224572	34.070000
2795.566731	41.890000
2796.905541	36.940000
2798.247251	32.610000
2799.585612	31.580000
2800.925311	36.170000
2802.263225	41.920000
2803.599353	35.280000
2804.935259	37.540000
2806.272502	36.130000
2807.607961	39.390000
2808.943197	32.890000
2810.276650	41.670000
2811.611440	31.600000
2812.942890	32.810000
2814.277235	33.270000
2815.606682	30.380000
2816.937465	33.080000
2818.268028	36.720000
2819.596811	33.920000
2820.926930	37.340000
2822.255271	34.920000
2823.583391	32.860000
2824.909733	35.540000
2826.237412	37.740000
2827.561757	31.000000
2828.887439	40.450000
2830.211345	36.690000
2831.535031	31.270000
2832.860053	37.200000
2834.181746	35.210000
2835.503220	37.910000
2836.824475	40.990000
2838.145511	37.130000
2839.464774	34.040000
2840.785373	41.010000
2842.104200	37.980000
2843.422810	31.620000
2844.739648	41.640000
2846.056269	38.490000
2847.372673	36.130000
2848.687307	42.520000
2850.003277	39.900000
2851.315926	30.920000
2852.629910	36.900000
2853.943678	30.020000
2855.257229	38.100000
2856.569014	34.240000
2857.879032	35.630000
2859.190385	32.050000
2860.498423	33.790000
2861.807795	33.790000
2863.116952	35.300000
2864.425895	39.440000
2865.733073	34.930000
2867.038489	33.320000
2868.345238	35.390000
2869.650226	34.640000
2870.954999	35.050000
2872.258012	36.280000
2873.563905	32.290000
2874.864944	34.690000
2876.167317	36.370000
2877.467930	38.700000
2878.769877	36.690000
2880.071610	35.850000
2881.370040	35.520000
2882.669803	34.500000
2883.967809	36.360000
2885.265603	36.340000
2886.561641	36.270000
2887.859012	38.470000
2889.154627	33.450000
2890.450031	33.980000
2891.745224	36.850000
2893.037120	28.650000
2894.331892	33.980000
2895.623367	34.780000
2896.916175	34.290000
2898.208773	34.870000
2899.498077	34.650000
2900.788713	32.350000
2902.077598	38.830000
2903.367815	37.780000
2904.654741	36.510000
2905.942999	39.630000
2907.229508	34.400000
2908.515808	35.580000
2909.801900	30.420000
2911.086245	27.610000
2912.373460	37.150000
2913.655849	33.680000
2914.939570	33.810000
2916.221545	27.670000
2917.503312	36.350000
2918.783334	38.170000
2920.066227	34.440000
2921.347374	34.820000
2922.625239	33.440000
2923.905973	27.310000
2925.183426	30.400000
2926.460673	36.090000
2927.736178	31.970000
2929.014551	31.200000
2930.288110	29.260000
2931.564536	35.270000
2932.839221	33.860000
2934.112165	36.060000
2935.386441	36.080000
2936.658977	33.450000
2937.931308	27.650000
2939.200367	37.010000
2940.472291	32.190000
2941.742477	34.120000
2943.012459	32.460000
2944.282238	35.540000
2945.550281	32.870000
2946.816587	35.900000
2948.082691	31.330000
2949.350126	35.250000
2950.615825	34.030000
2951.881323	33.350000
2953.146618	31.680000
2954.408648	35.390000
2955.672008	31.620000
2956.935167	33.140000
2958.196594	34.210000
2959.459350	30.920000
2960.720374	32.300000
2961.979668	35.080000
2963.238761	29.710000
2964.497655	30.990000
2965.756348	29.350000
2967.014841	31.290000
2968.271604	33.880000
2969.528169	33.630000
2970.783005	31.270000
2972.039171	30.210000
2973.292082	36.630000
2974.546321	39.080000
2975.800362	34.170000
2977.052677	32.040000
2978.304794	34.070000
2979.555186	37.480000
2980.808433	32.290000
2982.056903	30.920000
2983.308228	33.530000
2984.556303	34.400000
2985.804181	32.440000
2987.051863	29.820000
2988.299347	31.060000
2989.545110	30.930000
2990.790677	31.630000
2992.037571	28.830000
2993.281221	34.670000
2994.526199	30.780000
2995.767933	36.430000
2997.012519	28.260000
2998.255386	32.120000
2999.495012	33.570000
3000.737488	30.160000
3001.976724	29.910000
3003.217288	30.660000
3004.456135	28.530000
3005.694788	34.450000
3006.931725	32.550000
3008.169990	34.810000
3009.406539	31.390000
3010.642895	34.110000
3011.879057	33.170000
3013.113505	30.660000
3014.347760	25.310000
3015.581823	27.620000
3016.814172	32.290000
3018.044810	33.310000
3019.278294	30.750000
3020.510067	31.900000
3021.740129	36.010000
3022.969998	33.960000
3024.198158	30.190000
3025.427645	33.160000
3026.655422	31.460000
3027.883008	35.380000
3029.111920	33.590000
3030.336090	28.550000
3031.563104	29.570000
3032.786893	31.960000
3034.012009	31.250000
3035.235418	35.240000
3036.458637	27.600000
3037.680151	33.380000
3038.904506	30.420000
3040.124126	28.390000
3041.345072	26.360000
3042.565829	32.290000
3043.784882	28.430000
3045.005260	32.740000
3046.222422	33.870000
3047.440910	29.650000
3048.657695	30.980000
3049.874293	32.210000
3051.090702	32.970000
3052.303898	31.670000
3053.519933	31.000000
3054.732755	30.370000
3055.948413	32.710000
3057.159350	24.930000
3058.371611	31.210000
3059.583685	33.150000
3060.795573	33.100000
3062.005764	35.550000
3063.215768	23.640000
3064.425586	28.290000
3065.633708	30.700000
3066.841645	23.350000
3068.047886	34.600000
3069.255452	30.630000
3070.461323	27.935000
3071.667009	25.240000
3072.872511	30.160000
3074.076319	35.540000
3075.281451	35.360000
3076.484890	27.120000
3077.686638	31.100000
3078.888201	26.770000
3080.089581	30.870000
3081.290777	32.420000
3082.490283	32.420000
3083.689606	32.670000
3084.890252	29.780000
3086.089208	29.320000
3087.284970	33.970000
3088.483560	28.700000
3089.678958	28.950000
3090.875678	27.650000
3092.069206	31.330000
3093.265562	25.450000
3094.460231	25.950000
3095.651710	32.470000
3096.847521	34.850000
3098.038637	31.960000
3099.231077	30.070000
3100.420329	34.520000
3101.612406	26.820000
3102.802800	25.940000
3103.990008	27.440000
3105.178538	29.090000
3106.368391	28.030000
3107.555060	30.040000
3108.741548	30.390000
3109.927858	28.960000
3111.115489	30.620000
3112.299938	31.740000
3113.482708	25.940000
3114.668300	32.660000
3115.852213	30.630000
3117.034447	27.960000
3118.216502	30.230000
3119.398379	30.680000
3120.580078	32.340000
3121.760100	29.080000
3122.938445	25.280000
3124.119610	26.190000
3125.297600	29.480000
3126.475413	23.690000
3127.653049	28.440000
3128.829010	32.050000
3130.004795	29.640000
3131.181901	25.570000
3132.357332	28.510000
3133.531090	34.520000
3134.703175	30.820000
3135.876582	31.490000
3137.049812	30.040000
3138.221371	29.930000
3139.394250	31.780000
3140.563962	30.400000
3141.734995	31.390000
3142.904358	31.100000
3144.072050	30.910000
3145.242558	29.370000
3146.408408	29.160000
3147.578566	24.650000
3148.744068	26.280000
3149.909395	28.070000
3151.074549	28.480000
3152.239530	26.950000
3153.405830	29.850000
3154.567478	26.670000
3155.730445	27.650000
3156.893240	31.210000
3158.055862	28.300000
3159.216818	27.340000
3160.377603	26.770000
3161.538215	29.640000
3162.697163	24.640000
3163.855940	32.110000
3165.014544	24.230000
3166.172977	26.700000
3167.331239	25.600000
3168.487838	22.720000
3169.642776	28.870000
3170.799033	22.640000
3171.953629	26.340000
3173.108055	25.120000
3174.260821	25.150000
3175.413416	28.410000
3176.565842	23.830000
3177.718098	25.470000
3178.870183	27.960000
3180.019122	28.950000
3181.170869	25.760000
3182.320957	27.480000
3183.469389	24.930000
3184.617651	24.010000
3185.765745	25.140000
3186.913670	28.440000
3188.059939	25.960000
3189.206040	31.040000
3190.350487	26.550000
3191.494766	24.400000
3192.638877	25.510000
3193.784305	28.890000
3194.926595	31.310000
3196.068718	24.820000
3197.210673	27.160000
3198.352461	20.990000
3199.494082	30.790000
3200.632568	27.530000
3201.772371	26.130000
3202.913491	26.820000
3204.051478	27.330000
3205.187815	30.040000
3206.323986	28.130000
3207.461474	25.120000
3208.597314	25.680000
3209.734471	30.030000
3210.867015	25.040000
3212.003841	27.370000
3213.136055	28.370000
3214.269586	30.160000
3215.402953	26.070000
3216.533192	29.600000
3217.666229	27.250000
3218.796140	23.380000
3219.927367	23.810000
3221.055470	28.490000
3222.186369	22.830000
3223.315624	31.640000
3224.443236	27.270000
3225.567725	20.070000
3226.696490	24.120000
3227.822133	24.550000
3228.947613	24.460000
3230.071452	25.070000
3231.198086	23.530000
3232.320122	28.850000
3233.443474	29.100000
3234.566664	26.200000
3235.689691	27.780000
3236.811080	26.170000
3237.932306	26.420000
3239.051894	25.180000
3240.171321	30.180000
3241.289111	21.850000
3242.409692	24.390000
3243.527160	28.610000
3244.644467	27.290000
3245.761614	25.100000
3246.877124	29.410000
3247.993950	27.990000
3249.107666	23.700000
3250.224171	32.040000
3251.339042	25.760000
3252.450803	23.060000
3253.562406	26.770000
3254.675324	26.830000
3255.788082	21.040000
3256.897734	26.170000
3258.008701	27.750000
3259.119509	26.170000
3260.228685	25.230000
3261.336230	25.710000
3262.445090	29.440000
3263.553792	28.460000
3264.659391	25.470000
3265.766304	30.170000
3266.871588	27.130000
3267.978186	28.650000
3269.081684	27.300000
3270.186496	26.730000
3271.291151	26.600000
3272.392708	24.320000
3273.494108	30.740000
3274.596822	28.310000
3275.699380	24.850000
3276.798841	20.520000
3277.901086	17.850000
3279.000235	25.250000
3280.097760	23.040000
3281.195129	24.620000
3282.295280	27.560000
3283.392339	23.250000
3284.489242	28.720000
3285.585990	16.620000
3286.678179	28.490000
3287.774618	23.070000
3288.869434	21.900000
3289.964096	26.770000
3291.057136	27.090000
3292.150021	22.380000
3293.241286	27.050000
3294.333864	27.640000
3295.424822	22.810000
3296.514160	29.160000
3297.603345	26.390000
3298.693842	21.910000
3299.781256	24.430000
3300.868516	24.080000
3301.957089	23.400000
3303.045509	24.140000
3304.129383	22.800000
3305.217498	24.610000
3306.302531	29.730000
3307.385949	26.510000
3308.470679	22.620000
3309.553793	27.400000
3310.638220	24.040000
3311.719568	22.890000
3312.802228	22.360000
3313.883274	25.540000
3314.964168	25.560000
3316.043450	20.560000
3317.122581	26.140000
3318.203024	23.570000
3319.280392	26.110000
3320.359072	26.210000
3321.436140	17.790000
3322.513059	25.240000
3323.588366	26.190000
3324.663524	23.710000
3325.739993	17.030000
3326.813392	25.310000
3327.886641	22.760000
3328.961202	26.590000
3330.034154	20.630000
3331.105497	25.930000
3332.178151	20.930000
3333.247739	27.110000
3334.318637	21.250000
3335.387928	27.210000
3336.458529	25.280000
3337.527525	28.180000
3338.594914	24.090000
3339.660698	25.760000
3340.730708	26.500000
3341.797655	20.510000
3342.861540	27.050000
3343.928192	27.790000
3344.993241	24.860000
3346.056686	25.530000
3347.119985	23.580000
3348.183137	24.920000
3349.246143	21.690000
3350.309003	23.480000
3351.370261	22.710000
3352.428462	22.720000
3353.490883	23.640000
3354.550249	26.310000
3355.609469	23.660000
3356.669998	23.580000
3357.726019	25.760000
3358.784803	24.760000
3359.839080	25.510000
3360.896121	21.210000
3361.951563	19.840000
3363.008315	22.120000
3364.063468	21.240000
3365.117024	20.660000
3366.168984	24.030000
3367.223705	23.650000
3368.275377	30.210000
3369.326906	26.380000
3370.379743	27.390000
3371.429533	21.620000
3372.480632	23.900000
3373.528684	24.020000
3374.579497	24.390000
3375.627264	22.350000
3376.674889	21.860000
3377.722372	23.580000
3378.768262	24.660000
3379.815460	19.140000
3380.859616	23.050000
3381.906530	21.760000
3382.951852	25.850000
3383.994133	20.550000
3385.036273	20.160000
3386.079722	23.270000
3387.123029	21.650000
3388.164746	22.860000
3389.206323	18.270000
3390.247758	29.990000
3391.287605	28.150000
3392.325863	25.530000
3393.365429	25.380000
3394.404855	22.310000
3395.442693	22.380000
3396.478944	24.170000
3397.515056	24.530000
3398.552475	19.930000
3399.586861	27.240000
3400.622554	16.950000
3401.658108	19.870000
3402.690631	24.840000
3403.725906	23.050000
3404.758152	27.360000
3405.790259	26.830000
3406.820782	24.260000
3407.852612	18.520000
3408.884304	17.260000
3409.912968	24.340000
3410.941495	25.500000
3411.971328	22.880000
3413.001024	20.060000
3414.027694	22.890000
3415.055670	28.300000
3416.080623	19.070000
3417.108325	24.600000
3418.133003	20.090000
3419.158989	20.690000
3420.183394	26.380000
3421.207663	25.630000
3422.230353	22.470000
3423.252907	22.520000
3424.276767	22.560000
3425.297607	25.800000
3426.318311	21.720000
3427.340322	19.770000
3428.359314	27.990000
3429.378170	22.150000
3430.398333	24.700000
3431.415479	20.770000
