-117.897011	9.590000
-115.227411	6.720000
-112.560746	2.420000
-109.894833	1.440000
-107.231852	1.450000
-104.567442	6.710000
-101.905962	3.780000
-99.243052	4.530000
-96.585250	0.460000
-93.926017	1.720000
-91.267533	2.470000
-88.611974	-1.940000
-85.954986	4.820000
-83.303095	1.950000
-80.649775	7.610000
-77.999375	6.710000
-75.347545	2.440000
-72.700806	0.450000
-70.052637	7.780000
-67.405212	4.310000
-64.760700	7.240000
-62.114760	4.220000
-59.473901	7.530000
-56.831613	5.680000
-54.192233	7.030000
-51.551425	4.300000
-48.911357	4.380000
-46.276361	10.540000
-43.639936	5.150000
-41.006415	2.290000
-38.371465	8.020000
-35.741580	5.050000
-33.108103	10.690000
-30.479688	11.010000
-27.852006	11.210000
-25.222897	15.690000
-22.598844	17.960000
-19.971202	22.660000
-17.348613	26.700000
-14.726755	40.930000
-12.105629	86.960000
-9.485232	186.360000
-6.867723	675.980000
-4.248786	2312.450000
-1.632735	6130.990000
0.982588	8194.310000
3.597184	6072.480000
6.208897	874.780000
8.822039	92.310000
11.430147	41.640000
14.041837	30.920000
16.648496	24.760000
19.256583	22.970000
21.863946	11.710000
24.466284	16.710000
27.072200	12.200000
29.673094	11.730000
32.275417	11.330000
34.872721	3.040000
37.473601	10.080000
40.069467	10.020000
42.666760	5.240000
45.263334	8.530000
47.854899	7.890000
50.447892	8.200000
53.038024	4.220000
55.629584	6.720000
58.218284	3.420000
60.808411	9.360000
63.393540	9.200000
65.980096	7.890000
68.565937	6.610000
71.148925	6.270000
73.733340	7.720000
76.310625	2.660000
78.891477	6.300000
81.469480	7.460000
84.046773	8.140000
86.625492	5.990000
89.199230	7.450000
91.774394	4.670000
94.346715	4.660000
96.918328	6.580000
99.487102	8.490000
102.057302	3.100000
104.624663	8.400000
107.193451	12.070000
109.759401	7.400000
112.322517	6.980000
114.889189	9.250000
117.446640	13.710000
120.009776	17.630000
122.567953	22.600000
125.129683	30.240000
127.686458	45.040000
130.244658	52.800000
132.797906	78.300000
135.350455	121.180000
137.906555	166.810000
140.457708	218.830000
143.008162	269.640000
145.557920	315.480000
148.104858	347.240000
150.651100	360.980000
153.198768	370.500000
155.745741	373.210000
158.287777	373.130000
160.829120	360.210000
163.369770	360.490000
165.911846	361.650000
168.451111	365.510000
170.987566	368.730000
173.523331	370.800000
176.060521	369.960000
178.597019	368.440000
181.130712	363.500000
183.661602	361.300000
186.191803	355.010000
188.723429	352.790000
191.252254	356.850000
193.778280	354.900000
196.303621	364.140000
198.830386	362.090000
201.354354	353.980000
203.877638	364.500000
206.400237	350.650000
208.920043	351.890000
211.439166	354.700000
213.957606	357.360000
216.477470	354.680000
218.990333	364.610000
221.506727	364.690000
224.022439	369.270000
226.533262	373.890000
229.045509	385.380000
231.554973	380.600000
234.063759	383.700000
236.571867	382.950000
239.081398	386.150000
241.586050	389.000000
244.090025	390.180000
246.595424	381.260000
249.095948	382.660000
251.599995	377.260000
254.097072	376.270000
256.597671	380.710000
259.095499	378.130000
261.592654	376.750000
264.089136	380.260000
266.580756	372.550000
269.075894	383.420000
271.568267	379.640000
274.059969	378.360000
276.548908	390.000000
279.039270	383.700000
281.526871	391.890000
284.011712	392.400000
286.500067	391.840000
288.981483	395.620000
291.466413	401.680000
293.946498	414.640000
296.430095	421.830000
298.908849	435.700000
301.389027	443.240000
303.866452	443.410000
306.343214	435.830000
308.819313	422.420000
311.292663	414.760000
313.765351	409.220000
316.237378	403.270000
318.708744	418.940000
321.177366	431.310000
323.645328	421.640000
326.114713	403.770000
328.579275	380.140000
331.047340	376.290000
333.510586	380.050000
335.973175	368.220000
338.435106	363.850000
340.896381	363.030000
343.354922	362.640000
345.814885	349.330000
348.272115	356.430000
350.728691	349.480000
353.184613	339.930000
355.637806	337.350000
358.092420	334.950000
360.542233	337.980000
362.995543	331.730000
365.444053	329.640000
367.891913	318.860000
370.341194	321.400000
372.785682	318.170000
375.231592	319.840000
377.676853	310.540000
380.119395	303.080000
382.561289	307.100000
385.002535	305.020000
387.441066	300.630000
389.881019	299.830000
392.318258	301.690000
394.752785	301.450000
397.190800	297.990000
399.624038	293.670000
402.058698	290.810000
404.488584	298.230000
406.921956	298.510000
409.350558	299.870000
411.778519	289.580000
414.207900	291.560000
416.632516	290.270000
419.058554	290.680000
421.483951	284.430000
423.908708	286.900000
426.328707	288.060000
428.750127	281.710000
431.168850	277.170000
433.588994	276.140000
436.006443	277.530000
438.425312	268.710000
440.841488	272.960000
443.252917	260.720000
445.667822	251.560000
448.080037	252.350000
450.491618	246.110000
452.902565	244.230000
455.310826	234.510000
457.718454	229.810000
460.125451	230.250000
462.531815	229.450000
464.935497	220.300000
467.338549	232.320000
469.740971	228.850000
472.142764	227.970000
474.541878	229.060000
476.942412	230.060000
479.342317	234.190000
481.737499	241.370000
484.136148	242.620000
486.530077	256.490000
488.923380	265.830000
491.316057	276.450000
493.708109	290.710000
496.101580	304.760000
498.490338	348.580000
500.876430	405.540000
503.263942	497.340000
505.650830	643.220000
508.035055	879.510000
510.420699	1251.190000
512.803680	1791.010000
515.184001	2398.930000
517.565741	2867.120000
519.944822	2931.540000
522.325322	2638.930000
524.703164	2188.620000
527.078351	1802.390000
529.452920	1496.200000
531.828908	1265.490000
534.202242	1082.100000
536.576994	963.330000
538.947061	860.450000
541.316512	779.090000
543.687381	709.200000
546.053570	650.650000
548.421177	607.760000
550.786138	567.280000
553.150486	540.740000
555.514222	511.510000
557.879375	499.250000
560.239855	483.180000
562.601754	469.300000
564.961013	442.820000
567.317633	432.190000
569.677698	424.400000
572.031073	397.620000
574.387892	387.410000
576.742075	382.350000
579.095651	374.560000
581.448618	362.600000
583.798954	355.820000
586.150706	337.100000
588.495782	336.760000
590.846322	320.650000
593.190189	319.880000
595.539516	314.480000
597.884196	314.390000
600.226250	303.180000
602.569722	303.390000
604.910571	302.960000
607.250818	296.300000
609.588444	308.700000
611.929505	322.070000
614.265929	341.040000
616.603769	347.540000
618.938991	341.020000
621.271598	325.730000
623.605621	315.810000
625.937031	298.450000
628.267842	294.160000
630.598055	281.550000
632.927670	287.020000
635.252663	288.140000
637.583097	282.970000
639.908909	280.050000
642.232115	280.880000
644.556736	273.470000
646.878753	267.750000
649.200175	268.970000
651.518994	264.790000
653.839229	261.300000
656.158871	253.980000
658.475912	255.370000
660.792361	262.100000
663.106213	255.520000
665.421479	262.570000
667.734149	258.330000
670.048234	260.940000
672.357719	257.540000
674.668620	263.120000
676.976928	254.740000
679.284648	256.780000
681.593783	246.350000
683.898325	238.940000
686.202280	229.090000
688.505650	231.350000
690.810434	231.420000
693.110632	220.010000
695.412244	215.790000
697.713272	210.990000
700.009717	208.060000
702.307578	209.290000
704.604855	208.180000
706.901549	205.040000
709.193667	208.330000
711.489196	209.470000
713.780152	202.170000
716.072522	205.530000
718.362316	206.700000
720.651531	200.770000
722.940165	204.800000
725.226228	201.880000
727.513704	208.470000
729.798610	206.970000
732.082937	206.860000
734.364696	199.590000
736.647869	200.400000
738.930465	200.090000
741.208506	198.690000
743.487960	192.570000
745.766839	201.050000
748.045142	197.180000
750.318896	197.340000
752.594064	197.010000
754.868658	200.980000
757.140693	198.110000
759.414140	191.370000
761.685030	198.900000
763.953364	194.760000
766.223111	195.790000
768.490304	197.980000
770.756926	196.190000
773.022979	198.900000
775.286479	204.850000
777.551393	199.770000
779.815737	202.060000
782.075552	196.210000
784.336780	196.690000
786.597440	202.060000
788.855553	196.040000
791.111122	203.510000
793.370082	196.920000
795.622543	206.450000
797.880371	208.820000
800.133679	204.380000
802.384448	199.190000
804.636629	205.350000
806.886272	205.280000
809.137326	203.190000
811.383869	196.090000
813.631825	200.440000
815.877245	197.730000
818.124077	200.630000
820.370348	197.020000
822.612115	194.520000
824.857264	190.880000
827.095941	193.650000
829.338001	195.250000
831.575562	192.070000
833.814534	190.710000
836.050980	191.870000
838.288837	201.780000
840.524170	192.210000
842.756978	195.150000
844.991198	198.260000
847.222896	198.160000
849.454039	198.710000
851.684627	195.730000
853.914661	187.900000
856.144140	193.770000
858.369138	192.070000
860.597511	189.390000
862.821405	190.270000
865.046709	185.210000
867.267538	190.070000
869.491739	189.710000
871.711467	184.300000
873.932606	187.180000
876.153194	187.720000
878.371272	193.620000
880.590761	192.600000
882.805783	189.850000
885.020257	187.050000
887.234184	184.660000
889.447563	181.870000
891.660395	178.050000
893.872681	179.670000
896.082464	183.980000
898.291702	180.710000
900.500395	181.400000
902.706589	185.190000
904.914192	182.390000
907.119298	189.690000
909.323860	190.380000
911.525926	195.910000
913.729402	193.570000
915.930384	194.370000
918.130825	204.070000
920.332674	208.580000
922.528131	213.140000
924.726948	230.320000
926.921327	245.050000
929.119062	270.450000
931.312362	296.340000
933.507071	336.120000
935.699294	358.830000
937.890979	395.530000
940.082126	412.990000
942.270790	424.580000
944.458917	432.920000
946.644564	425.250000
948.833563	423.740000
951.018139	418.580000
953.202180	427.630000
955.389571	424.720000
957.568658	429.500000
959.751096	435.770000
961.933000	433.450000
964.112430	437.740000
966.289387	441.150000
968.467751	444.060000
970.647523	454.740000
972.820946	453.040000
974.997715	456.300000
977.170078	452.780000
979.343847	448.950000
981.513213	440.860000
983.685924	422.950000
985.856168	404.400000
988.025884	372.960000
990.195071	339.920000
992.359861	311.880000
994.527992	295.310000
996.691729	277.090000
998.856872	269.290000
1001.019557	260.070000
1003.181715	251.950000
1005.341417	254.130000
1007.500595	242.830000
1009.661179	241.300000
1011.819308	229.830000
1013.976913	227.410000
1016.133995	221.240000
1018.290554	219.230000
1020.442733	213.160000
1022.596318	206.290000
1024.749382	206.370000
1026.899998	202.100000
1029.052019	195.070000
1031.199667	190.720000
1033.350647	192.740000
1035.497256	191.310000
1037.643347	184.280000
1039.788918	190.770000
1041.935895	183.920000
1044.076584	179.640000
1046.220601	185.300000
1048.362178	183.490000
1050.503239	191.970000
1052.645704	187.070000
1054.781890	191.390000
1056.921402	191.180000
1059.056558	191.710000
1061.195039	186.550000
1063.329166	181.350000
1065.462780	188.130000
1067.597799	188.840000
1069.728468	187.500000
1071.860542	185.010000
1073.990187	185.470000
1076.119320	187.330000
1078.247941	185.600000
1080.376051	184.930000
1082.501735	183.490000
1084.626909	183.370000
1086.753487	183.440000
1088.875728	179.120000
1090.999372	180.230000
1093.118683	178.080000
1095.243222	177.840000
1097.361516	170.680000
1099.481215	179.240000
1101.598495	176.550000
1103.715269	178.220000
1105.831536	171.670000
1107.945388	172.270000
1110.060643	171.480000
1112.171576	172.510000
1114.285820	170.260000
1116.395744	165.940000
1118.507072	169.850000
1120.617895	171.140000
1122.724403	167.080000
1124.834219	170.720000
1126.939721	158.950000
1129.046626	162.370000
1131.147316	166.680000
1133.253218	166.800000
1135.354811	167.420000
1137.457807	163.270000
1139.560302	163.130000
1141.656591	158.450000
1143.758086	156.140000
1145.855279	159.390000
1147.951973	156.600000
1150.048169	162.230000
1152.143868	165.580000
1154.239069	157.730000
1156.331873	166.070000
1158.426079	164.670000
1160.514094	162.540000
1162.607307	163.330000
1164.694332	157.750000
1166.784656	163.430000
1168.870693	163.510000
1170.960027	157.960000
1173.043180	157.720000
1175.127736	164.500000
1177.213692	169.130000
1179.295367	161.620000
1181.378444	164.020000
1183.459135	165.540000
1185.539334	166.880000
1187.619042	169.600000
1189.698259	167.220000
1191.775094	163.150000
1193.849548	168.760000
1195.927294	153.620000
1198.000769	160.780000
1200.075645	159.940000
1202.146254	160.650000
1204.218265	154.740000
1206.287899	163.200000
1208.358934	161.830000
1210.429481	156.650000
1212.495767	157.860000
1214.563454	160.290000
1216.628769	162.920000
1218.695484	155.240000
1220.757943	153.580000
1222.823687	153.640000
1224.885178	153.790000
1226.948068	157.250000
1229.008591	155.680000
1231.068630	159.030000
1233.128187	159.710000
1235.185378	158.070000
1237.242088	164.420000
1239.296435	158.610000
1241.354062	157.290000
1243.409327	166.220000
1245.460351	157.890000
1247.512775	158.640000
1249.564719	160.010000
1251.614305	157.090000
1253.663412	166.090000
1255.712041	163.640000
1257.760191	161.470000
1259.807863	165.810000
1261.851304	167.260000
1263.898020	167.970000
1265.942384	168.140000
1267.986270	173.330000
1270.027806	175.940000
1272.066992	168.460000
1274.109450	163.310000
1276.147686	179.290000
1278.187321	173.850000
1280.226481	173.320000
1282.261422	173.880000
1284.297763	168.270000
1286.331758	172.830000
1288.367152	175.470000
1290.398332	166.830000
1292.430911	166.640000
1294.463017	168.660000
1296.492783	168.610000
1298.523947	168.320000
1300.550903	167.720000
1302.579257	170.030000
1304.603407	177.110000
1306.630821	177.870000
1308.654033	174.170000
1310.678643	173.860000
1312.700919	172.560000
1314.724592	175.260000
1316.745932	169.090000
1318.766804	174.250000
1320.787210	165.780000
1322.803421	172.260000
1324.821031	175.240000
1326.836312	171.140000
1328.854851	176.290000
1330.869202	177.160000
1332.881227	174.240000
1334.896509	177.990000
1336.907606	178.560000
1338.920100	177.600000
1340.928411	183.010000
1342.939978	179.070000
1344.945505	177.490000
1346.954288	180.450000
1348.958893	177.180000
1350.966752	187.220000
1352.974149	187.510000
1354.975515	181.480000
1356.978278	185.060000
1358.980580	187.080000
1360.982423	185.240000
1362.983806	185.680000
1364.982876	186.910000
1366.981487	183.220000
1368.979640	178.100000
1370.977335	179.570000
1372.970866	174.760000
1374.965794	173.390000
1376.960265	173.210000
1378.954279	173.490000
1380.945986	172.130000
1382.937237	168.810000
1384.926183	173.790000
1386.916524	166.380000
1388.906410	161.520000
1390.893993	162.910000
1392.881121	157.720000
1394.865949	162.800000
1396.852170	167.070000
1398.836092	166.310000
1400.819561	169.250000
1402.802578	162.840000
1404.783296	162.670000
1406.765410	163.690000
1408.745226	167.100000
1410.724592	163.830000
1412.699818	168.050000
1414.678284	168.790000
1416.654455	163.850000
1418.630178	167.840000
1420.605451	168.310000
1422.578433	166.360000
1424.550967	167.790000
1426.523054	159.610000
1428.494692	163.770000
1430.462202	160.840000
1432.434787	164.560000
1434.399565	160.150000
1436.369416	162.550000
1438.335142	166.490000
1440.302261	171.610000
1442.267097	169.040000
1444.227814	173.540000
1446.193598	172.180000
1448.153427	171.250000
1450.114649	167.830000
1452.077264	175.930000
1454.035764	177.450000
1455.993822	178.870000
1457.951437	174.820000
1459.908611	174.590000
1461.863509	183.720000
1463.819799	177.930000
1465.773815	173.720000
1467.727391	171.380000
1469.678694	171.830000
1471.631389	174.520000
1473.581813	169.620000
1475.531798	168.960000
1477.481343	172.330000
1479.428620	170.120000
1481.373630	164.600000
1483.320031	170.070000
1485.265996	165.620000
1487.211522	167.640000
1489.154784	162.320000
1491.097609	173.380000
1493.038171	169.860000
1494.980124	167.560000
1496.919816	170.570000
1498.859072	173.310000
1500.797893	169.880000
1502.734455	172.690000
1504.672408	176.260000
1506.608103	180.200000
1508.543364	184.920000
1510.476368	184.950000
1512.408940	186.790000
1514.341080	190.930000
1516.272788	192.630000
1518.202242	187.860000
1520.133087	193.420000
1522.063501	182.530000
1523.989841	185.870000
1525.917573	195.350000
1527.843054	192.610000
1529.768106	199.210000
1531.692729	204.660000
1533.616923	202.070000
1535.538870	209.490000
1537.462206	210.010000
1539.383297	216.920000
1541.302143	215.540000
1543.222379	220.530000
1545.140371	228.150000
1547.057937	238.060000
1548.973261	251.470000
1550.889975	256.500000
1552.802634	270.820000
1554.718497	284.600000
1556.632120	304.760000
1558.543506	322.110000
1560.456280	350.800000
1562.365005	378.460000
1564.275120	420.970000
1566.184811	464.200000
1568.094078	527.180000
1570.001112	589.610000
1571.905913	667.990000
1573.812103	749.000000
1575.716061	825.070000
1577.619599	894.490000
1579.522715	961.780000
1581.423603	1019.000000
1583.325878	1024.440000
1585.225926	1014.130000
1587.127361	970.680000
1589.024763	884.870000
1590.921746	807.010000
1592.818311	715.440000
1594.716264	636.970000
1596.608382	570.260000
1598.503693	501.590000
1600.398587	449.240000
1602.291259	408.130000
1604.183515	364.370000
1606.073551	338.850000
1607.963171	315.010000
1609.852375	294.850000
1611.741165	278.430000
1613.627738	263.180000
1615.515697	254.450000
1617.399640	242.030000
1619.284971	231.350000
1621.169887	228.450000
1623.052591	216.440000
1624.936680	215.700000
1626.816759	203.420000
1628.698224	193.730000
1630.577479	188.320000
1632.458120	181.930000
1634.332957	175.510000
1636.212776	178.970000
1638.088589	171.920000
1639.963992	161.780000
1641.840782	162.980000
1643.711774	161.660000
1645.585948	157.250000
1647.456124	151.860000
1649.329480	158.070000
1651.200633	150.370000
1653.069584	152.250000
1654.939921	142.840000
1656.806264	140.270000
1658.673993	144.230000
1660.539524	144.260000
1662.406439	131.090000
1664.269366	133.920000
1666.133678	142.840000
1667.995794	135.800000
1669.857506	131.240000
1671.720602	131.770000
1673.581504	136.780000
1675.440212	131.490000
1677.298517	131.020000
1679.158207	122.880000
1681.012130	129.260000
1682.869225	129.820000
1684.725918	131.390000
1686.578635	123.260000
1688.434523	127.890000
1690.286436	124.080000
1692.137949	125.310000
1693.989061	121.460000
1695.839773	122.260000
1697.690084	126.250000
1699.538211	120.370000
1701.387721	115.670000
1703.231483	124.170000
1705.080194	120.700000
1706.923160	119.690000
1708.769291	127.240000
1710.611461	123.230000
1712.456795	121.580000
1714.296389	125.790000
1716.137367	116.940000
1717.979728	116.980000
1719.818133	111.130000
1721.657921	119.760000
1723.495534	120.930000
1725.332751	114.420000
1727.167795	113.710000
1729.004222	114.840000
1730.838477	104.640000
1732.672337	116.160000
1734.505804	114.500000
1736.335324	108.550000
1738.168003	110.970000
1739.996738	115.120000
1741.828631	112.780000
1743.656581	113.810000
1745.484139	108.440000
1747.311305	115.590000
1749.138080	116.700000
1750.964464	114.880000
1752.786911	113.180000
1754.612512	117.220000
1756.434179	112.500000
1758.257228	111.470000
1760.078116	112.090000
1761.898614	110.230000
1763.720494	111.720000
1765.536674	110.140000
1767.356006	113.220000
1769.171411	111.100000
1770.989966	110.370000
1772.804596	104.540000
1774.618840	108.490000
1776.432696	107.100000
1778.246166	109.620000
1780.057483	111.950000
1781.870181	111.320000
1783.682492	111.670000
1785.490886	114.530000
1787.300661	112.140000
1789.106520	110.120000
1790.915526	109.430000
1792.720617	106.660000
1794.527090	106.310000
1796.333179	107.790000
1798.135358	103.860000
1799.940680	111.420000
1801.742094	104.120000
1803.544888	106.800000
1805.343776	102.360000
1807.144045	106.800000
1808.943932	109.310000
1810.741678	108.460000
1812.539043	113.970000
1814.336027	106.020000
1816.132631	107.020000
1817.927096	108.770000
1819.722940	109.270000
1821.513130	109.710000
1823.308216	114.000000
1825.097649	106.490000
1826.890219	110.190000
1828.680654	109.080000
1830.468955	107.930000
1832.260391	111.670000
1834.046181	114.340000
1835.833351	111.410000
1837.618389	111.330000
1839.406561	107.920000
1841.190847	112.320000
1842.973004	111.770000
1844.756539	108.230000
1846.537946	114.410000
1848.320732	119.540000
1850.099638	120.230000
1851.879922	115.640000
1853.658080	118.780000
1855.437617	118.710000
1857.215029	114.110000
1858.990317	113.640000
1860.766984	117.120000
1862.541527	117.700000
1864.317449	115.190000
1866.087751	116.790000
1867.861179	123.570000
1869.632488	120.350000
1871.403427	118.570000
1873.175742	116.610000
1874.942445	113.770000
1876.712272	113.330000
1878.478236	112.770000
1880.247324	112.000000
1882.012550	111.430000
1883.777407	109.820000
1885.543642	114.300000
1887.306018	108.160000
1889.068027	108.170000
1890.829668	109.040000
1892.590943	110.970000
1894.351850	107.410000
1896.112391	106.720000
1897.870822	105.850000
1899.628888	103.920000
1901.384845	108.960000
1903.142180	109.300000
1904.899148	110.940000
1906.654011	106.580000
1908.406768	102.750000
1910.159162	104.490000
1911.912931	100.770000
1913.664597	100.850000
1915.414161	107.090000
1917.165101	99.250000
1918.915677	95.900000
1920.662414	110.870000
1922.410528	108.460000
1924.156542	96.150000
1925.903932	95.800000
1927.649223	107.520000
1929.392417	102.310000
1931.136987	100.780000
1932.879460	101.550000
1934.621573	99.470000
1936.363326	101.710000
1938.104720	102.200000
1939.844020	103.530000
1941.582961	103.640000
1943.321543	101.690000
1945.058033	99.370000
1946.794166	100.785000
1948.531673	102.200000
1950.265358	105.180000
1952.000418	103.270000
1953.733390	99.450000
1955.466005	102.250000
1957.198263	98.780000
1958.930165	103.590000
1960.659981	98.200000
1962.387713	103.380000
1964.116818	100.820000
1965.845569	98.750000
1967.572236	99.730000
1969.298549	98.170000
1971.026235	100.800000
1972.748385	96.110000
1974.473636	97.980000
1976.195081	101.160000
1977.919625	100.270000
1979.642090	103.140000
1981.360751	105.740000
1983.082511	100.270000
1984.800469	100.450000
1986.519800	106.500000
1988.235332	99.320000
1989.955685	103.140000
1991.672238	101.280000
1993.384996	99.780000
1995.100849	108.020000
1996.814629	103.430000
1998.528060	102.680000
2000.239420	102.230000
2001.952153	104.560000
2003.661094	103.940000
2005.373129	104.560000
2007.079654	101.620000
2008.789272	104.360000
2010.496822	102.130000
2012.204025	106.180000
2013.909162	102.410000
2015.613952	107.350000
2017.320114	107.370000
2019.022494	103.830000
2020.726246	104.810000
2022.427934	103.240000
2024.129278	102.910000
2025.830276	103.300000
2027.529214	103.200000
2029.229522	102.750000
2030.926056	100.830000
2032.623961	100.610000
2034.319807	99.800000
2036.018739	101.290000
2037.712185	101.600000
2039.407003	97.700000
2041.101477	100.210000
2042.792183	100.000000
2044.485973	97.870000
2046.175996	99.010000
2047.867390	102.920000
2049.556731	96.670000
2051.247442	99.200000
2052.934391	99.250000
2054.620999	100.360000
2056.308978	103.290000
2057.993197	103.170000
2059.678786	97.540000
2061.364036	102.510000
2063.047238	101.460000
2064.731809	98.290000
2066.410918	99.790000
2068.094812	100.380000
2069.773246	103.380000
2071.454756	100.020000
2073.132516	97.170000
2074.809938	102.140000
2076.488731	98.730000
2078.165480	93.550000
2079.840188	102.830000
2081.516265	96.800000
2083.190302	96.470000
2084.864003	101.510000
2086.537369	94.550000
2088.208697	99.880000
2089.879690	99.600000
2091.550349	100.120000
2093.220673	101.380000
2094.890664	93.010000
2096.558619	97.010000
2098.226241	96.430000
2099.891829	95.440000
2101.558785	99.800000
2103.223707	98.750000
2104.888298	96.250000
2106.550857	98.440000
2108.214784	97.220000
2109.876681	94.880000
2111.538246	97.650000
2113.199480	100.940000
2114.858686	91.590000
2116.517562	99.980000
2118.176107	97.420000
2119.834323	95.090000
2121.488815	93.430000
2123.146372	96.200000
2124.803600	99.140000
2126.457106	95.940000
2128.111980	97.560000
2129.763136	102.470000
2131.417353	95.180000
2133.067854	94.000000
2134.719721	99.100000
2136.366180	101.000000
2138.017394	91.460000
2139.664894	94.070000
2141.313761	96.940000
2142.960610	101.890000
2144.607132	96.240000
2146.253329	99.560000
2147.895818	91.360000
2149.541365	98.050000
2151.183205	100.240000
2152.828102	96.360000
2154.469294	91.410000
2156.110162	101.090000
2157.750706	94.720000
2159.389239	101.150000
2161.029137	96.660000
2162.665335	100.000000
2164.302899	103.970000
2165.940140	97.940000
2167.575372	99.630000
2169.210283	103.330000
2170.844872	97.000000
2172.479139	102.410000
2174.109714	100.590000
2175.743339	97.100000
2177.373273	99.530000
2179.004572	91.060000
2180.633867	97.880000
2182.262841	97.130000
2183.891497	95.020000
2185.519833	99.480000
2187.146166	97.230000
2188.772181	102.010000
2190.396195	103.350000
2192.021573	102.760000
2193.644952	94.610000
2195.269694	101.950000
2196.890756	97.080000
2198.511501	102.110000
2200.133611	100.970000
2201.753723	97.910000
2203.371838	98.800000
2204.989638	103.710000
2206.607123	104.690000
2208.224292	103.110000
2209.841146	97.550000
2211.457685	101.110000
2213.072230	99.110000
2214.684783	101.420000
2216.298700	98.570000
2217.910626	97.510000
2219.523915	100.630000
2221.135214	97.490000
2222.744523	92.450000
2224.355196	98.540000
2225.963880	101.540000
2227.572252	100.100000
2229.178636	96.050000
2230.786384	97.150000
2232.392145	103.650000
2233.997595	87.570000
2235.601060	98.570000
2237.205889	94.580000
2238.808733	93.700000
2240.409594	99.430000
2242.011818	94.510000
2243.612059	96.760000
2245.213663	99.610000
2246.811615	98.130000
2248.410929	101.870000
2250.008263	95.220000
2251.605288	98.090000
2253.203676	100.630000
2254.798415	92.400000
2256.391177	98.790000
2257.985302	98.130000
2259.580788	97.280000
2261.172630	101.120000
2262.764165	99.520000
2264.357061	97.160000
2265.944648	93.340000
2267.536932	100.600000
2269.123908	98.050000
2270.713913	98.270000
2272.298613	94.960000
2273.888007	96.560000
2275.472098	96.870000
2277.057551	95.660000
2278.641034	94.870000
2280.227544	98.270000
2281.810420	91.950000
2283.392992	96.160000
2284.975261	93.660000
2286.553901	91.450000
2288.135564	87.370000
2289.713599	87.210000
2291.294657	92.370000
2292.872089	91.720000
2294.447556	91.070000
2296.026046	87.460000
2297.600912	95.880000
2299.175477	93.650000
2300.749742	88.970000
2302.323706	88.490000
2303.897370	89.560000
2305.470733	92.840000
2307.040478	93.490000
2308.609924	89.780000
2310.182389	92.470000
2311.749578	95.630000
2313.319786	94.280000
2314.886379	95.730000
2316.454332	92.080000
2318.020330	91.880000
2319.586029	97.540000
2321.151432	95.430000
2322.714881	95.360000
2324.279688	93.580000
2325.840888	97.970000
2327.405102	102.250000
2328.964055	100.550000
2330.526021	104.740000
2332.086037	96.080000
2333.645757	88.650000
2335.203528	93.500000
2336.761005	89.800000
2338.318186	97.440000
2339.873421	94.460000
2341.428361	91.090000
2342.983008	89.310000
2344.537361	94.940000
2346.091420	91.910000
2347.645185	98.930000
2349.197007	93.010000
2350.746885	99.860000
2352.299771	96.930000
2353.847415	97.360000
2355.398066	91.920000
2356.945127	98.870000
2358.493545	94.610000
2360.041671	96.750000
2361.586210	97.840000
2363.132106	98.820000
2364.676063	102.460000
2366.221378	91.000000
2367.763108	90.810000
2369.306195	93.870000
2370.847347	95.590000
2372.388209	91.840000
2373.928782	97.870000
2375.469066	89.300000
2377.009061	91.620000
2378.545477	90.010000
2380.084895	94.850000
2381.620736	98.050000
2383.157933	92.160000
2384.691555	95.380000
2386.228178	95.890000
2387.762869	93.860000
2389.295631	96.230000
2390.828107	98.810000
2392.358654	95.840000
2393.892199	92.940000
2395.420533	93.480000
2396.950223	101.640000
2398.479628	99.880000
2400.008747	96.930000
2401.537582	95.560000
2403.061211	96.520000
2404.589477	99.820000
2406.112539	92.520000
2407.640235	97.430000
2409.161092	98.500000
2410.686582	98.350000
2412.208511	102.850000
2413.731796	99.940000
2415.253160	97.780000
2416.772604	100.160000
2418.293403	109.340000
2419.812283	102.150000
2421.330881	104.550000
2422.847562	99.560000
2424.365597	106.410000
2425.883351	103.750000
2427.397554	104.220000
2428.911476	105.340000
2430.425118	112.450000
2431.940115	113.210000
2433.451563	111.900000
2434.964366	113.890000
2436.475256	111.350000
2437.985866	111.620000
2439.494565	123.730000
2441.006251	124.300000
2442.514392	125.650000
2444.022256	123.840000
2445.529842	126.510000
2447.033887	124.650000
2448.540918	125.220000
2450.046040	133.940000
2451.550885	126.990000
2453.053823	133.820000
2454.556484	134.980000
2456.058869	128.810000
2457.559349	136.230000
2459.061182	134.230000
2460.561111	126.130000
2462.060764	129.660000
2463.560141	130.450000
2465.057616	123.240000
2466.553190	117.070000
2468.051743	117.570000
2469.546767	117.590000
2471.043145	117.950000
2472.535996	110.190000
2474.030199	115.840000
2475.524129	109.320000
2477.014536	109.780000
2478.507919	112.620000
2479.999405	109.930000
2481.488994	111.450000
2482.978311	107.240000
2484.465733	107.490000
2485.956130	114.570000
2487.443008	108.190000
2488.931238	110.570000
2490.415952	106.520000
2491.900395	105.960000
2493.386190	105.330000
2494.870092	106.780000
2496.355346	103.770000
2497.835466	100.480000
2499.318558	101.640000
2500.799760	104.590000
2502.280693	99.940000
2503.759737	97.910000
2505.238512	104.030000
2506.717019	93.280000
2508.195258	94.900000
2509.673228	97.560000
2511.147694	100.770000
2512.625128	93.280000
2514.099059	96.520000
2515.574341	103.150000
2517.049355	93.350000
2518.520868	90.650000
2519.993732	92.900000
2521.464712	89.230000
2522.937043	95.820000
2524.404261	96.460000
2525.874444	89.510000
2527.342747	95.290000
2528.810785	95.600000
2530.278558	93.180000
2531.746066	97.590000
2533.213309	94.710000
2534.677060	95.650000
2536.142161	98.120000
2537.605385	95.610000
2539.069959	92.230000
2540.531043	95.340000
2541.993477	90.540000
2543.455648	102.560000
2544.914333	99.510000
2546.377590	100.150000
2547.835750	100.150000
2549.295259	96.260000
2550.749675	96.600000
2552.208660	101.740000
2553.665774	101.550000
2555.121017	99.820000
2556.575999	102.550000
2558.029111	97.790000
2559.483572	99.300000
2560.936164	100.750000
2562.388496	103.180000
2563.838960	104.370000
2565.292380	102.220000
2566.740718	98.760000
2568.192012	105.540000
2569.641439	100.730000
2571.087395	100.730000
2572.536305	99.470000
2573.981744	104.560000
2575.428532	107.120000
2576.873456	104.980000
2578.318123	101.420000
2579.764137	112.540000
2581.206684	107.000000
2582.650579	107.060000
2584.091009	105.280000
2585.532787	107.460000
2586.972704	107.550000
2588.413969	104.440000
2589.851773	106.850000
2591.292526	107.330000
2592.728216	108.990000
2594.166856	105.360000
2595.603639	105.080000
2597.038565	108.660000
2598.476440	107.230000
2599.909256	106.520000
2601.343420	102.720000
2602.775730	103.560000
2604.209386	107.280000
2605.641189	105.580000
2607.072739	110.980000
2608.504035	113.600000
2609.933479	117.370000
2611.362672	119.650000
2612.790013	112.850000
2614.218701	119.290000
2615.647136	120.910000
2617.072124	116.790000
2618.498459	124.020000
2619.922945	126.530000
2621.348777	127.580000
2622.771165	125.110000
2624.194899	133.620000
2625.616786	138.360000
2627.038424	142.920000
2628.458216	145.920000
2629.879354	149.120000
2631.300242	149.270000
2632.717692	154.190000
2634.138081	162.300000
2635.555033	164.310000
2636.971737	170.130000
2638.388192	173.550000
2639.804399	180.610000
2641.220357	192.340000
2642.634475	198.600000
2644.048346	199.120000
2645.460377	211.390000
2646.873753	221.330000
2648.283699	221.970000
2649.696580	241.100000
2651.106034	251.310000
2652.515241	272.220000
2653.922612	286.260000
2655.332917	305.320000
2656.741386	326.530000
2658.148020	342.700000
2659.554409	360.950000
2660.958964	383.490000
2662.364863	410.720000
2663.768929	420.540000
2665.172751	444.590000
2666.576328	462.330000
2667.978073	495.750000
2669.381162	532.040000
2670.780834	553.450000
2672.181848	571.820000
2673.579447	599.720000
2674.979976	619.700000
2676.377090	640.600000
2677.775547	662.180000
2679.172176	674.280000
2680.568563	686.580000
2681.964709	687.110000
2683.359028	697.160000
2684.754690	704.650000
2686.146942	702.760000
2687.540538	694.640000
2688.932309	699.050000
2690.325422	683.920000
2691.716712	666.930000
2693.106179	664.230000
2694.495406	636.700000
2695.884394	635.470000
2697.274724	613.000000
2698.660069	591.840000
2700.048338	582.040000
2701.434787	558.850000
2702.820997	546.120000
2704.206969	522.070000
2705.589541	496.280000
2706.973456	476.730000
2708.357133	448.090000
2709.740572	429.890000
2711.120615	398.070000
2712.502000	376.100000
2713.881569	363.090000
2715.262480	341.100000
2716.641576	332.240000
2718.018857	306.310000
2719.397480	290.830000
2720.774290	271.690000
2722.150864	264.340000
2723.527202	245.550000
2724.901728	230.810000
2726.277595	219.850000
2727.650075	207.480000
2729.025472	200.750000
2730.395907	198.040000
2731.767684	178.420000
2733.139226	182.990000
2734.508960	175.360000
2735.880035	165.840000
2737.249302	159.260000
2738.618335	158.410000
2739.985561	153.320000
2741.352555	147.890000
2742.719316	144.000000
2744.085844	141.270000
2745.450567	135.900000
2746.815059	136.750000
2748.179318	127.310000
2749.543345	128.260000
2750.907141	125.720000
2752.267563	125.800000
2753.630896	120.010000
2754.989286	120.370000
2756.350586	113.040000
2757.708515	112.600000
2759.069354	113.850000
2760.428392	107.940000
2761.784062	110.950000
2763.142640	109.290000
2764.497852	105.550000
2765.852834	106.990000
2767.206019	102.920000
2768.562111	101.400000
2769.914839	109.510000
2771.267338	101.100000
2772.619609	101.000000
2773.973219	109.080000
2775.323467	98.740000
2776.671922	98.760000
2778.023281	102.810000
2779.371281	96.610000
2780.720620	100.920000
2782.068166	93.220000
2783.415485	104.420000
2784.762578	103.060000
2786.107880	98.510000
2787.452956	97.120000
2788.797806	99.930000
2790.142429	101.010000
2791.483701	93.840000
2792.826311	93.470000
2794.168695	92.660000
2795.510855	97.450000
2796.849665	100.420000
2798.191374	100.120000
2799.529736	98.370000
2800.869435	98.030000
2802.207348	101.030000
2803.543477	93.660000
2804.879382	92.350000
2806.216625	96.770000
2807.552084	95.240000
2808.887320	99.580000
2810.220773	98.850000
2811.555564	102.640000
2812.887013	91.960000
2814.221358	93.670000
2815.550805	99.500000
2816.881589	95.530000
2818.212151	90.780000
2819.540934	90.630000
2820.871053	94.070000
2822.199394	97.470000
2823.527514	90.580000
2824.853857	86.680000
2826.181535	87.760000
2827.505881	95.190000
2828.831562	89.970000
2830.155468	87.640000
2831.479155	84.480000
2832.804177	88.060000
2834.125869	84.530000
2835.447343	84.250000
2836.768598	82.330000
2838.089634	85.980000
2839.408898	79.370000
2840.729497	85.970000
2842.048324	89.590000
2843.366933	75.330000
2844.683772	83.070000
2846.000393	80.640000
2847.316796	82.360000
2848.631431	77.500000
2849.947400	82.450000
2851.260049	87.500000
2852.574034	76.840000
2853.887801	82.660000
2855.201353	87.380000
2856.513137	80.120000
2857.823156	83.460000
2859.134508	80.790000
2860.442546	78.680000
2861.751919	81.560000
2863.061076	80.940000
2864.370018	79.180000
2865.677197	85.180000
2866.982612	85.860000
2868.289362	83.170000
2869.594349	82.510000
2870.899123	77.240000
2872.202135	83.050000
2873.508029	86.250000
2874.809067	78.180000
2876.111440	75.200000
2877.412053	80.800000
2878.714000	78.680000
2880.015734	79.030000
2881.314163	77.070000
2882.613927	75.940000
2883.911932	75.670000
2885.209726	79.450000
2886.505764	76.010000
2887.803135	76.800000
2889.098750	69.610000
2890.394154	76.550000
2891.689348	76.540000
2892.981243	72.570000
2894.276015	78.930000
2895.567490	72.010000
2896.860298	69.280000
2898.152896	75.340000
2899.442200	76.250000
2900.732836	78.590000
2902.021721	73.610000
2903.311939	79.350000
2904.598865	72.980000
2905.887123	76.600000
2907.173631	75.330000
2908.459932	75.840000
2909.746024	76.580000
2911.030368	76.030000
2912.317584	77.050000
2913.599972	70.370000
2914.883693	81.140000
2916.165668	77.760000
2917.447436	77.670000
2918.727458	81.550000
2920.010350	74.250000
2921.291497	75.530000
2922.569362	75.470000
2923.850096	74.960000
2925.127549	76.040000
2926.404797	75.040000
2927.680302	76.870000
2928.958675	73.000000
2930.232233	74.980000
2931.508659	75.390000
2932.783344	74.380000
2934.056289	72.780000
2935.330564	72.150000
2936.603100	73.310000
2937.875432	72.030000
2939.144490	70.670000
2940.416414	74.900000
2941.686600	67.780000
2942.956583	70.880000
2944.226362	69.360000
2945.494404	71.230000
2946.760711	70.520000
2948.026815	73.820000
2949.294249	67.350000
2950.559949	71.470000
2951.825446	62.580000
2953.090741	67.940000
2954.352771	66.740000
2955.616132	69.920000
2956.879290	71.750000
2958.140717	73.750000
2959.403473	71.850000
2960.664498	69.010000
2961.923791	66.370000
2963.182885	66.770000
2964.441778	70.780000
2965.700471	64.500000
2966.958964	71.590000
2968.215728	69.820000
2969.472292	71.520000
2970.727129	68.860000
2971.983295	67.050000
2973.236205	69.780000
2974.490445	72.850000
2975.744486	69.050000
2976.996801	73.310000
2978.248918	68.960000
2979.499310	70.210000
2980.752557	66.880000
2982.001027	67.580000
2983.252351	71.150000
2984.500427	69.660000
2985.748305	66.980000
2986.995986	66.620000
2988.243471	68.890000
2989.489234	65.030000
2990.734800	62.410000
2991.981694	71.980000
2993.225344	65.840000
2994.470322	69.350000
2995.712057	67.570000
2996.956643	68.170000
2998.199509	71.080000
2999.439135	66.320000
3000.681612	65.930000
3001.920848	67.020000
3003.161412	68.210000
3004.400259	69.640000
3005.638912	68.780000
3006.875849	68.070000
3008.114113	68.020000
3009.350663	67.090000
3010.587018	62.430000
3011.823180	63.790000
3013.057629	68.850000
3014.291884	70.000000
3015.525946	66.440000
3016.758296	60.580000
3017.988934	66.760000
3019.222418	68.160000
3020.454190	65.860000
3021.684252	65.810000
3022.914122	64.440000
3024.142282	69.940000
3025.371768	68.180000
3026.599546	65.020000
3027.827132	67.310000
3029.056044	63.430000
3030.280214	62.660000
3031.507227	62.820000
3032.731016	60.930000
3033.956132	61.150000
3035.179541	61.150000
3036.402761	61.780000
3037.624275	65.250000
3038.848630	65.740000
3040.068250	65.610000
3041.289195	60.400000
3042.509952	59.740000
3043.729005	62.520000
3044.949384	70.570000
3046.166546	65.930000
3047.385033	65.270000
3048.601819	68.040000
3049.818416	59.610000
3051.034826	59.990000
3052.248022	60.080000
3053.464056	64.250000
3054.676878	58.300000
3055.892537	61.000000
3057.103473	63.570000
3058.315734	64.800000
3059.527809	61.710000
3060.739697	66.200000
3061.949887	63.380000
3063.159891	62.920000
3064.369710	62.410000
3065.577832	59.640000
3066.785768	63.540000
3067.992010	58.640000
3069.199575	64.470000
3070.405447	62.675000
3071.611133	60.880000
3072.816634	55.960000
3074.020442	60.040000
3075.225574	53.920000
3076.429014	60.070000
3077.630761	61.330000
3078.832325	60.350000
3080.033705	57.550000
3081.234901	58.100000
3082.434407	63.630000
3083.633729	55.150000
3084.834375	60.390000
3086.033332	57.440000
3087.229093	60.160000
3088.427684	55.370000
3089.623081	54.540000
3090.819801	57.280000
3092.013329	59.030000
3093.209686	60.290000
3094.404355	56.580000
3095.595834	57.660000
3096.791644	57.250000
3097.982761	55.050000
3099.175200	58.620000
3100.364452	52.810000
3101.556530	60.750000
3102.746923	52.280000
3103.934131	57.580000
3105.122662	52.280000
3106.312515	57.390000
3107.499183	54.800000
3108.685672	62.170000
3109.871981	59.710000
3111.059612	54.060000
3112.244062	55.340000
3113.426831	53.380000
3114.612424	54.830000
3115.796336	60.210000
3116.978570	59.630000
3118.160625	53.450000
3119.342503	61.440000
3120.524202	58.030000
3121.704223	51.200000
3122.882568	61.290000
3124.063734	59.540000
3125.241724	64.990000
3126.419537	57.130000
3127.597173	55.590000
3128.773134	56.170000
3129.948918	63.040000
3131.126024	54.400000
3132.301455	53.400000
3133.475213	52.750000
3134.647299	55.520000
3135.820705	50.630000
3136.993936	51.990000
3138.165494	56.280000
3139.338374	52.140000
3140.508086	54.220000
3141.679119	56.400000
3142.848481	53.520000
3144.016174	55.090000
3145.186682	59.740000
3146.352531	58.750000
3147.522690	61.780000
3148.688191	58.820000
3149.853519	53.740000
3151.018673	59.200000
3152.183653	56.790000
3153.349954	57.720000
3154.511601	58.290000
3155.674569	58.100000
3156.837363	59.660000
3157.999985	57.700000
3159.160942	64.220000
3160.321726	52.290000
3161.482338	55.120000
3162.641287	58.910000
3163.800063	62.950000
3164.958668	58.340000
3166.117101	60.700000
3167.275362	57.830000
3168.431961	58.610000
3169.586899	55.180000
3170.743156	58.230000
3171.897753	51.960000
3173.052178	54.260000
3174.204944	55.910000
3175.357540	57.620000
3176.509965	56.570000
3177.662221	55.900000
3178.814307	57.510000
3179.963246	57.000000
3181.114992	54.520000
3182.265080	59.970000
3183.413512	58.880000
3184.561775	56.070000
3185.709868	51.160000
3186.857793	58.430000
3188.004063	59.100000
3189.150164	59.130000
3190.294610	55.250000
3191.438889	55.320000
3192.583000	53.350000
3193.728429	58.800000
3194.870719	57.390000
3196.012841	55.810000
3197.154796	60.700000
3198.296585	53.230000
3199.438206	56.950000
3200.576691	56.630000
3201.716494	52.580000
3202.857615	56.480000
3203.995601	54.520000
3205.131938	54.660000
3206.268109	56.430000
3207.405598	54.230000
3208.541438	57.170000
3209.678594	52.740000
3210.811138	53.340000
3211.947964	55.360000
3213.080178	55.900000
3214.213710	60.980000
3215.347076	60.550000
3216.477315	55.370000
3217.610352	53.410000
3218.740263	54.740000
3219.871491	58.560000
3220.999593	58.610000
3222.130492	57.450000
3223.259748	57.710000
3224.387359	62.630000
3225.511849	61.720000
3226.640614	64.140000
3227.766257	60.580000
3228.891737	62.020000
3230.015576	64.270000
3231.142209	68.400000
3232.264245	66.780000
3233.387597	68.360000
3234.510787	68.220000
3235.633815	71.140000
3236.755203	70.780000
3237.876430	69.890000
3238.996018	68.230000
3240.115445	70.360000
3241.233234	71.260000
3242.353816	66.280000
3243.471283	69.920000
3244.588591	78.180000
3245.705737	69.790000
3246.821248	66.220000
3247.938074	73.380000
3249.051789	66.150000
3250.168295	68.820000
3251.283165	65.200000
3252.394927	73.820000
3253.506530	63.270000
3254.619447	64.200000
3255.732206	60.030000
3256.841858	59.370000
3257.952825	57.620000
3259.063632	58.290000
3260.172809	57.850000
3261.280354	58.430000
3262.389214	48.620000
3263.497915	56.060000
3264.603514	54.690000
3265.710428	53.800000
3266.815712	53.720000
3267.922310	56.330000
3269.025808	53.930000
3270.130620	52.180000
3271.235275	55.090000
3272.336831	54.670000
3273.438232	48.790000
3274.540946	49.470000
3275.643503	41.790000
3276.742965	49.760000
3277.845209	51.880000
3278.944359	45.590000
3280.041883	44.500000
3281.139252	47.670000
3282.239404	47.850000
3283.336462	40.630000
3284.433365	50.170000
3285.530114	45.540000
3286.622303	44.560000
3287.718741	46.240000
3288.813558	45.030000
3289.908219	45.410000
3291.001259	46.370000
3292.094145	42.090000
3293.185410	44.660000
3294.277988	43.610000
3295.368945	41.870000
3296.458283	48.510000
3297.547468	46.580000
3298.637966	43.850000
3299.725379	47.210000
3300.812640	41.800000
3301.901213	45.280000
3302.989633	43.810000
3304.073506	44.650000
3305.161621	45.180000
3306.246655	42.510000
3307.330072	43.580000
3308.414802	44.130000
3309.497917	48.660000
3310.582343	46.080000
3311.663691	44.840000
3312.746351	43.340000
3313.827397	46.720000
3314.908292	44.160000
3315.987574	40.430000
3317.066705	47.680000
3318.147147	42.430000
3319.224516	41.870000
3320.303196	42.440000
3321.380264	45.260000
3322.457182	38.930000
3323.532489	41.530000
3324.607647	43.330000
3325.684116	44.920000
3326.757515	44.610000
3327.830765	42.720000
3328.905326	44.150000
3329.978277	44.250000
3331.049621	46.180000
3332.122275	45.920000
3333.191862	42.580000
3334.262760	45.770000
3335.332051	44.280000
3336.402653	38.890000
3337.471648	41.090000
3338.539037	36.390000
3339.604821	42.900000
3340.674831	42.290000
3341.741778	45.780000
3342.805663	40.110000
3343.872316	44.630000
3344.937364	46.160000
3346.000810	46.850000
3347.064108	40.840000
3348.127261	46.020000
3349.190267	44.720000
3350.253126	43.010000
3351.314384	42.880000
3352.372585	44.160000
3353.435007	42.330000
3354.494372	47.830000
3355.553592	45.680000
3356.614122	42.340000
3357.670142	45.060000
3358.728927	38.230000
3359.783204	44.680000
3360.840244	42.730000
3361.895687	45.360000
3362.952438	41.440000
3364.007592	41.790000
3365.061148	46.140000
3366.113107	47.060000
3367.167828	42.470000
3368.219500	42.950000
3369.271029	37.210000
3370.323867	45.120000
3371.373657	46.470000
3372.424755	39.520000
3373.472808	40.480000
3374.523621	44.770000
3375.571388	38.810000
3376.619013	41.750000
3377.666495	42.920000
3378.712385	46.090000
3379.759583	42.380000
3380.803739	44.760000
3381.850653	38.720000
3382.895975	45.470000
3383.938257	50.100000
3384.980397	45.300000
3386.023845	43.930000
3387.067153	45.630000
3388.108870	43.650000
3389.150446	38.970000
3390.191882	39.630000
3391.231728	44.860000
3392.269987	42.240000
3393.309553	45.780000
3394.348978	43.830000
3395.386817	38.420000
3396.423068	39.730000
3397.459179	46.550000
3398.496598	43.840000
3399.530984	42.960000
3400.566677	36.860000
3401.602231	33.130000
3402.634754	43.320000
3403.670030	37.850000
3404.702275	40.260000
3405.734382	40.420000
3406.764905	41.230000
3407.796736	42.270000
3408.828427	44.510000
3409.857092	40.620000
3410.885618	41.740000
3411.915452	40.090000
3412.945147	40.890000
3413.971817	32.200000
3414.999794	39.940000
3416.024746	38.500000
3417.052448	41.340000
3418.077127	38.330000
3419.103112	37.360000
3420.127517	41.190000
3421.151786	40.030000
3422.174476	38.480000
3423.197030	36.660000
3424.220890	37.340000
3425.241730	36.090000
3426.262435	34.660000
3427.284445	42.540000
3428.303437	38.490000
3429.322294	39.690000
3430.342456	41.900000
3431.359602	34.240000
