-117.897011	4.740000
-115.227411	0.950000
-112.560746	-0.850000
-109.894833	6.150000
-107.231852	0.350000
-104.567442	7.180000
-101.905962	-1.850000
-99.243052	4.900000
-96.585250	-4.770000
-93.926017	5.070000
-91.267533	3.650000
-88.611974	-4.530000
-85.954986	3.190000
-83.303095	2.480000
-80.649775	2.230000
-77.999375	1.610000
-75.347545	-0.600000
-72.700806	3.820000
-70.052637	3.850000
-67.405212	3.050000
-64.760700	5.070000
-62.114760	-0.710000
-59.473901	1.420000
-56.831613	5.310000
-54.192233	2.400000
-51.551425	6.390000
-48.911357	1.930000
-46.276361	0.070000
-43.639936	4.050000
-41.006415	4.210000
-38.371465	8.740000
-35.741580	3.680000
-33.108103	5.640000
-30.479688	7.060000
-27.852006	7.710000
-25.222897	8.710000
-22.598844	13.290000
-19.971202	20.000000
-17.348613	22.210000
-14.726755	39.670000
-12.105629	58.850000
-9.485232	146.310000
-6.867723	520.700000
-4.248786	1890.860000
-1.632735	4705.280000
0.982588	6299.500000
3.597184	4554.280000
6.208897	665.290000
8.822039	67.130000
11.430147	32.270000
14.041837	21.210000
16.648496	21.740000
19.256583	13.780000
21.863946	13.910000
24.466284	9.200000
27.072200	13.800000
29.673094	4.140000
32.275417	5.150000
34.872721	3.660000
37.473601	4.070000
40.069467	6.890000
42.666760	2.160000
45.263334	3.800000
47.854899	5.840000
50.447892	0.340000
53.038024	5.770000
55.629584	3.860000
58.218284	10.700000
60.808411	0.430000
63.393540	3.770000
65.980096	4.100000
68.565937	0.710000
71.148925	1.470000
73.733340	0.470000
76.310625	0.300000
78.891477	8.640000
81.469480	4.250000
84.046773	2.100000
86.625492	1.460000
89.199230	1.690000
91.774394	6.330000
94.346715	7.710000
96.918328	0.990000
99.487102	4.860000
102.057302	2.120000
104.624663	8.470000
107.193451	3.230000
109.759401	5.430000
112.322517	5.870000
114.889189	8.620000
117.446640	9.010000
120.009776	13.010000
122.567953	19.390000
125.129683	26.980000
127.686458	33.410000
130.244658	55.170000
132.797906	80.820000
135.350455	118.290000
137.906555	168.010000
140.457708	221.100000
143.008162	272.510000
145.557920	321.520000
148.104858	350.260000
150.651100	374.050000
153.198768	383.410000
155.745741	392.250000
158.287777	377.000000
160.829120	380.160000
163.369770	375.880000
165.911846	372.030000
168.451111	368.890000
170.987566	374.510000
173.523331	373.450000
176.060521	375.020000
178.597019	374.820000
181.130712	372.990000
183.661602	364.550000
186.191803	364.060000
188.723429	359.170000
191.252254	361.220000
193.778280	356.030000
196.303621	361.780000
198.830386	364.210000
201.354354	365.690000
203.877638	363.930000
206.400237	358.060000
208.920043	356.220000
211.439166	366.190000
213.957606	361.900000
216.477470	369.370000
218.990333	365.900000
221.506727	374.590000
224.022439	381.940000
226.533262	387.650000
229.045509	390.330000
231.554973	391.390000
234.063759	400.100000
236.571867	398.040000
239.081398	396.760000
241.586050	403.060000
244.090025	404.230000
246.595424	398.610000
249.095948	390.800000
251.599995	390.110000
254.097072	387.760000
256.597671	389.100000
259.095499	384.780000
261.592654	386.470000
264.089136	386.280000
266.580756	383.080000
269.075894	383.130000
271.568267	389.770000
274.059969	388.140000
276.548908	388.410000
279.039270	398.420000
281.526871	394.830000
284.011712	410.090000
286.500067	407.850000
288.981483	410.980000
291.466413	409.350000
293.946498	424.240000
296.430095	432.520000
298.908849	444.880000
301.389027	456.890000
303.866452	449.730000
306.343214	440.260000
308.819313	430.660000
311.292663	420.020000
313.765351	414.100000
316.237378	420.450000
318.708744	430.390000
321.177366	441.260000
323.645328	425.070000
326.114713	415.270000
328.579275	395.750000
331.047340	387.460000
333.510586	379.140000
335.973175	378.590000
338.435106	374.890000
340.896381	370.310000
343.354922	368.000000
345.814885	363.940000
348.272115	360.360000
350.728691	363.320000
353.184613	347.000000
355.637806	350.690000
358.092420	347.160000
360.542233	348.180000
362.995543	336.260000
365.444053	334.530000
367.891913	337.410000
370.341194	332.650000
372.785682	334.260000
375.231592	317.660000
377.676853	321.250000
380.119395	318.560000
382.561289	318.240000
385.002535	310.810000
387.441066	309.900000
389.881019	310.200000
392.318258	305.520000
394.752785	304.750000
397.190800	306.100000
399.624038	302.390000
402.058698	309.260000
404.488584	309.820000
406.921956	308.290000
409.350558	300.830000
411.778519	302.790000
414.207900	307.660000
416.632516	300.980000
419.058554	299.090000
421.483951	294.860000
423.908708	300.350000
426.328707	294.540000
428.750127	290.210000
431.168850	288.370000
433.588994	289.000000
436.006443	285.070000
438.425312	277.380000
440.841488	267.450000
443.252917	263.740000
445.667822	258.180000
448.080037	264.530000
450.491618	251.550000
452.902565	250.170000
455.310826	245.620000
457.718454	238.620000
460.125451	234.910000
462.531815	236.170000
464.935497	228.560000
467.338549	237.430000
469.740971	236.960000
472.142764	234.200000
474.541878	233.450000
476.942412	243.970000
479.342317	240.180000
481.737499	236.150000
484.136148	250.510000
486.530077	257.780000
488.923380	269.170000
491.316057	278.870000
493.708109	294.860000
496.101580	319.210000
498.490338	353.510000
500.876430	419.040000
503.263942	505.320000
505.650830	662.950000
508.035055	903.340000
510.420699	1279.210000
512.803680	1826.070000
515.184001	2452.490000
517.565741	2948.870000
519.944822	2990.120000
522.325322	2688.220000
524.703164	2243.520000
527.078351	1850.950000
529.452920	1530.690000
531.828908	1300.770000
534.202242	1118.280000
536.576994	980.970000
538.947061	885.940000
541.316512	792.190000
543.687381	726.240000
546.053570	665.790000
548.421177	634.140000
550.786138	594.230000
553.150486	563.920000
555.514222	532.480000
557.879375	507.280000
560.239855	497.190000
562.601754	481.950000
564.961013	454.050000
567.317633	438.950000
569.677698	432.070000
572.031073	420.610000
574.387892	407.800000
576.742075	400.090000
579.095651	380.800000
581.448618	381.670000
583.798954	365.640000
586.150706	355.890000
588.495782	346.850000
590.846322	337.350000
593.190189	332.000000
595.539516	324.010000
597.884196	319.480000
600.226250	320.030000
602.569722	316.100000
604.910571	309.390000
607.250818	318.010000
609.588444	324.070000
611.929505	329.400000
614.265929	351.930000
616.603769	356.640000
618.938991	352.480000
621.271598	341.950000
623.605621	329.540000
625.937031	314.260000
628.267842	309.080000
630.598055	295.660000
632.927670	299.270000
635.252663	283.760000
637.583097	295.390000
639.908909	282.710000
642.232115	290.570000
644.556736	286.940000
646.878753	271.860000
649.200175	268.180000
651.518994	271.370000
653.839229	264.060000
656.158871	269.770000
658.475912	271.330000
660.792361	269.190000
663.106213	269.760000
665.421479	274.920000
667.734149	264.200000
670.048234	272.760000
672.357719	265.970000
674.668620	267.620000
676.976928	265.290000
679.284648	255.290000
681.593783	254.370000
683.898325	254.430000
686.202280	245.990000
688.505650	240.630000
690.810434	228.910000
693.110632	230.370000
695.412244	233.060000
697.713272	215.990000
700.009717	215.960000
702.307578	216.750000
704.604855	219.350000
706.901549	217.710000
709.193667	217.810000
711.489196	210.070000
713.780152	212.140000
716.072522	211.270000
718.362316	210.180000
720.651531	216.340000
722.940165	220.180000
725.226228	217.720000
727.513704	216.200000
729.798610	217.020000
732.082937	214.380000
734.364696	213.140000
736.647869	207.430000
738.930465	210.760000
741.208506	198.190000
743.487960	204.520000
745.766839	202.880000
748.045142	204.800000
750.318896	201.920000
752.594064	202.510000
754.868658	205.910000
757.140693	196.770000
759.414140	197.530000
761.685030	203.900000
763.953364	202.360000
766.223111	197.200000
768.490304	204.640000
770.756926	205.500000
773.022979	209.960000
775.286479	207.740000
777.551393	210.310000
779.815737	215.020000
782.075552	202.870000
784.336780	206.740000
786.597440	205.620000
788.855553	206.900000
791.111122	209.280000
793.370082	217.910000
795.622543	213.270000
797.880371	211.950000
800.133679	209.710000
802.384448	212.690000
804.636629	210.320000
806.886272	209.910000
809.137326	203.250000
811.383869	206.270000
813.631825	204.800000
815.877245	214.410000
818.124077	204.670000
820.370348	202.360000
822.612115	199.070000
824.857264	202.380000
827.095941	203.620000
829.338001	203.040000
831.575562	197.340000
833.814534	208.470000
836.050980	200.730000
838.288837	198.490000
840.524170	202.230000
842.756978	202.010000
844.991198	202.740000
847.222896	204.350000
849.454039	202.790000
851.684627	205.740000
853.914661	202.740000
856.144140	199.380000
858.369138	198.190000
860.597511	196.030000
862.821405	194.640000
865.046709	196.120000
867.267538	197.510000
869.491739	200.740000
871.711467	193.850000
873.932606	204.930000
876.153194	201.330000
878.371272	196.570000
880.590761	201.630000
882.805783	202.070000
885.020257	196.380000
887.234184	195.450000
889.447563	191.430000
891.660395	190.180000
893.872681	189.800000
896.082464	193.640000
898.291702	191.210000
900.500395	194.120000
902.706589	193.800000
904.914192	195.470000
907.119298	196.940000
909.323860	199.670000
911.525926	199.370000
913.729402	210.150000
915.930384	202.070000
918.130825	213.120000
920.332674	221.920000
922.528131	227.880000
924.726948	239.040000
926.921327	254.660000
929.119062	287.090000
931.312362	314.060000
933.507071	336.900000
935.699294	379.540000
937.890979	407.550000
940.082126	427.680000
942.270790	436.320000
944.458917	445.450000
946.644564	439.700000
948.833563	443.320000
951.018139	440.550000
953.202180	436.740000
955.389571	432.490000
957.568658	443.250000
959.751096	445.330000
961.933000	448.770000
964.112430	459.110000
966.289387	451.310000
968.467751	456.280000
970.647523	469.770000
972.820946	466.110000
974.997715	473.620000
977.170078	468.820000
979.343847	459.640000
981.513213	456.550000
983.685924	439.850000
985.856168	418.700000
988.025884	385.760000
990.195071	349.630000
992.359861	326.500000
994.527992	306.530000
996.691729	288.540000
998.856872	280.150000
1001.019557	273.420000
1003.181715	265.320000
1005.341417	260.760000
1007.500595	253.620000
1009.661179	242.000000
1011.819308	243.610000
1013.976913	239.760000
1016.133995	228.000000
1018.290554	225.600000
1020.442733	215.450000
1022.596318	219.600000
1024.749382	212.060000
1026.899998	208.250000
1029.052019	204.360000
1031.199667	202.670000
1033.350647	199.610000
1035.497256	196.890000
1037.643347	196.190000
1039.788918	192.460000
1041.935895	198.700000
1044.076584	200.570000
1046.220601	185.520000
1048.362178	189.130000
1050.503239	196.150000
1052.645704	196.770000
1054.781890	193.390000
1056.921402	197.120000
1059.056558	195.320000
1061.195039	199.480000
1063.329166	195.070000
1065.462780	195.230000
1067.597799	189.900000
1069.728468	194.380000
1071.860542	197.090000
1073.990187	192.540000
1076.119320	193.990000
1078.247941	192.650000
1080.376051	196.830000
1082.501735	193.870000
1084.626909	196.050000
1086.753487	192.490000
1088.875728	187.660000
1090.999372	189.900000
1093.118683	185.830000
1095.243222	185.490000
1097.361516	185.770000
1099.481215	190.290000
1101.598495	184.570000
1103.715269	187.710000
1105.831536	184.960000
1107.945388	183.670000
1110.060643	177.900000
1112.171576	182.730000
1114.285820	186.710000
1116.395744	178.790000
1118.507072	178.910000
1120.617895	181.560000
1122.724403	180.060000
1124.834219	177.140000
1126.939721	178.800000
1129.046626	176.520000
1131.147316	173.990000
1133.253218	180.360000
1135.354811	174.160000
1137.457807	178.590000
1139.560302	169.110000
1141.656591	173.010000
1143.758086	170.200000
1145.855279	168.360000
1147.951973	164.490000
1150.048169	174.560000
1152.143868	174.620000
1154.239069	173.860000
1156.331873	176.580000
1158.426079	171.630000
1160.514094	180.210000
1162.607307	177.670000
1164.694332	184.630000
1166.784656	177.850000
1168.870693	178.820000
1170.960027	181.450000
1173.043180	178.290000
1175.127736	178.020000
1177.213692	180.460000
1179.295367	180.360000
1181.378444	176.170000
1183.459135	181.820000
1185.539334	183.700000
1187.619042	182.390000
1189.698259	176.840000
1191.775094	182.370000
1193.849548	181.910000
1195.927294	179.660000
1198.000769	173.770000
1200.075645	185.010000
1202.146254	184.390000
1204.218265	180.750000
1206.287899	174.140000
1208.358934	173.750000
1210.429481	172.590000
1212.495767	178.140000
1214.563454	173.320000
1216.628769	171.840000
1218.695484	169.810000
1220.757943	176.980000
1222.823687	177.440000
1224.885178	167.570000
1226.948068	170.860000
1229.008591	174.640000
1231.068630	170.470000
1233.128187	178.800000
1235.185378	175.050000
1237.242088	180.910000
1239.296435	177.310000
1241.354062	178.660000
1243.409327	179.070000
1245.460351	178.060000
1247.512775	175.580000
1249.564719	181.920000
1251.614305	182.800000
1253.663412	179.100000
1255.712041	182.150000
1257.760191	185.100000
1259.807863	186.720000
1261.851304	183.810000
1263.898020	181.940000
1265.942384	193.540000
1267.986270	188.250000
1270.027806	182.700000
1272.066992	186.550000
1274.109450	188.580000
1276.147686	190.730000
1278.187321	195.820000
1280.226481	199.380000
1282.261422	194.620000
1284.297763	196.720000
1286.331758	196.010000
1288.367152	190.270000
1290.398332	195.470000
1292.430911	190.750000
1294.463017	196.530000
1296.492783	191.790000
1298.523947	190.100000
1300.550903	193.080000
1302.579257	194.120000
1304.603407	188.850000
1306.630821	191.520000
1308.654033	191.590000
1310.678643	200.820000
1312.700919	201.190000
1314.724592	193.420000
1316.745932	194.900000
1318.766804	191.270000
1320.787210	189.020000
1322.803421	193.350000
1324.821031	195.350000
1326.836312	192.270000
1328.854851	193.270000
1330.869202	189.190000
1332.881227	196.400000
1334.896509	194.130000
1336.907606	203.710000
1338.920100	194.420000
1340.928411	199.470000
1342.939978	199.370000
1344.945505	200.840000
1346.954288	198.630000
1348.958893	203.820000
1350.966752	206.640000
1352.974149	212.320000
1354.975515	210.510000
1356.978278	214.920000
1358.980580	220.890000
1360.982423	210.290000
1362.983806	210.100000
1364.982876	207.070000
1366.981487	204.910000
1368.979640	200.550000
1370.977335	203.050000
1372.970866	199.670000
1374.965794	196.880000
1376.960265	198.800000
1378.954279	200.740000
1380.945986	195.810000
1382.937237	194.440000
1384.926183	190.570000
1386.916524	191.080000
1388.906410	187.350000
1390.893993	187.700000
1392.881121	184.800000
1394.865949	188.840000
1396.852170	183.200000
1398.836092	192.510000
1400.819561	183.270000
1402.802578	180.390000
1404.783296	183.550000
1406.765410	185.660000
1408.745226	188.510000
1410.724592	190.260000
1412.699818	184.540000
1414.678284	186.000000
1416.654455	184.130000
1418.630178	186.230000
1420.605451	183.280000
1422.578433	186.430000
1424.550967	182.980000
1426.523054	184.900000
1428.494692	182.000000
1430.462202	182.110000
1432.434787	179.700000
1434.399565	184.650000
1436.369416	185.970000
1438.335142	188.650000
1440.302261	186.890000
1442.267097	181.430000
1444.227814	184.880000
1446.193598	192.370000
1448.153427	203.250000
1450.114649	193.250000
1452.077264	195.350000
1454.035764	198.230000
1455.993822	194.950000
1457.951437	201.590000
1459.908611	195.880000
1461.863509	190.910000
1463.819799	196.410000
1465.773815	188.300000
1467.727391	183.860000
1469.678694	198.340000
1471.631389	188.580000
1473.581813	190.530000
1475.531798	185.070000
1477.481343	191.110000
1479.428620	187.810000
1481.373630	187.410000
1483.320031	185.390000
1485.265996	183.120000
1487.211522	177.360000
1489.154784	186.640000
1491.097609	187.230000
1493.038171	186.670000
1494.980124	184.590000
1496.919816	194.480000
1498.859072	187.270000
1500.797893	196.080000
1502.734455	192.340000
1504.672408	193.600000
1506.608103	204.350000
1508.543364	201.920000
1510.476368	206.420000
1512.408940	214.270000
1514.341080	207.630000
1516.272788	202.550000
1518.202242	211.140000
1520.133087	205.130000
1522.063501	206.630000
1523.989841	213.380000
1525.917573	212.790000
1527.843054	214.630000
1529.768106	213.140000
1531.692729	215.730000
1533.616923	212.840000
1535.538870	218.790000
1537.462206	222.020000
1539.383297	229.830000
1541.302143	230.070000
1543.222379	227.670000
1545.140371	236.430000
1547.057937	236.630000
1548.973261	237.260000
1550.889975	245.100000
1552.802634	258.830000
1554.718497	267.600000
1556.632120	268.860000
1558.543506	272.630000
1560.456280	278.000000
1562.365005	283.500000
1564.275120	300.210000
1566.184811	323.040000
1568.094078	336.930000
1570.001112	367.160000
1571.905913	405.350000
1573.812103	442.220000
1575.716061	484.220000
1577.619599	535.830000
1579.522715	589.120000
1581.423603	654.050000
1583.325878	688.510000
1585.225926	729.110000
1587.127361	763.050000
1589.024763	759.700000
1590.921746	733.020000
1592.818311	691.150000
1594.716264	647.890000
1596.608382	569.540000
1598.503693	506.890000
1600.398587	458.980000
1602.291259	392.550000
1604.183515	354.540000
1606.073551	324.130000
1607.963171	309.560000
1609.852375	282.680000
1611.741165	279.270000
1613.627738	265.640000
1615.515697	258.330000
1617.399640	247.270000
1619.284971	237.380000
1621.169887	232.470000
1623.052591	226.590000
1624.936680	221.570000
1626.816759	214.370000
1628.698224	206.310000
1630.577479	205.330000
1632.458120	194.920000
1634.332957	188.000000
1636.212776	182.100000
1638.088589	180.820000
1639.963992	183.450000
1641.840782	171.910000
1643.711774	171.080000
1645.585948	168.530000
1647.456124	165.400000
1649.329480	171.090000
1651.200633	166.030000
1653.069584	158.200000
1654.939921	158.830000
1656.806264	150.010000
1658.673993	150.510000
1660.539524	148.600000
1662.406439	147.490000
1664.269366	145.680000
1666.133678	148.580000
1667.995794	138.940000
1669.857506	136.470000
1671.720602	143.560000
1673.581504	136.820000
1675.440212	137.290000
1677.298517	134.240000
1679.158207	133.800000
1681.012130	137.300000
1682.869225	131.810000
1684.725918	137.150000
1686.578635	133.180000
1688.434523	131.960000
1690.286436	132.910000
1692.137949	133.790000
1693.989061	132.660000
1695.839773	129.350000
1697.690084	125.380000
1699.538211	125.580000
1701.387721	130.810000
1703.231483	123.250000
1705.080194	126.170000
1706.923160	124.930000
1708.769291	129.450000
1710.611461	125.680000
1712.456795	122.920000
1714.296389	117.910000
1716.137367	125.100000
1717.979728	123.190000
1719.818133	125.520000
1721.657921	124.640000
1723.495534	118.470000
1725.332751	120.920000
1727.167795	116.440000
1729.004222	114.580000
1730.838477	121.720000
1732.672337	112.180000
1734.505804	122.720000
1736.335324	114.470000
1738.168003	122.030000
1739.996738	114.830000
1741.828631	114.140000
1743.656581	114.400000
1745.484139	117.190000
1747.311305	116.070000
1749.138080	118.020000
1750.964464	117.060000
1752.786911	117.010000
1754.612512	115.630000
1756.434179	116.380000
1758.257228	118.220000
1760.078116	116.370000
1761.898614	114.990000
1763.720494	112.640000
1765.536674	116.350000
1767.356006	117.160000
1769.171411	111.260000
1770.989966	118.640000
1772.804596	111.950000
1774.618840	116.580000
1776.432696	106.880000
1778.246166	113.710000
1780.057483	112.760000
1781.870181	115.910000
1783.682492	115.940000
1785.490886	123.360000
1787.300661	110.080000
1789.106520	115.420000
1790.915526	115.580000
1792.720617	117.540000
1794.527090	114.520000
1796.333179	116.960000
1798.135358	107.120000
1799.940680	111.660000
1801.742094	110.740000
1803.544888	113.520000
1805.343776	106.470000
1807.144045	110.990000
1808.943932	111.190000
1810.741678	110.890000
1812.539043	111.940000
1814.336027	110.140000
1816.132631	107.630000
1817.927096	110.040000
1819.722940	118.610000
1821.513130	118.030000
1823.308216	113.500000
1825.097649	116.300000
1826.890219	112.280000
1828.680654	114.840000
1830.468955	115.090000
1832.260391	118.560000
1834.046181	119.390000
1835.833351	114.900000
1837.618389	114.910000
1839.406561	118.880000
1841.190847	113.850000
1842.973004	121.260000
1844.756539	109.500000
1846.537946	122.350000
1848.320732	124.280000
1850.099638	124.600000
1851.879922	121.300000
1853.658080	122.590000
1855.437617	124.850000
1857.215029	121.760000
1858.990317	123.920000
1860.766984	123.720000
1862.541527	119.250000
1864.317449	122.610000
1866.087751	116.340000
1867.861179	118.540000
1869.632488	125.540000
1871.403427	120.520000
1873.175742	115.320000
1874.942445	116.470000
1876.712272	120.460000
1878.478236	120.470000
1880.247324	112.120000
1882.012550	119.090000
1883.777407	116.770000
1885.543642	112.660000
1887.306018	118.630000
1889.068027	112.380000
1890.829668	105.020000
1892.590943	111.590000
1894.351850	113.940000
1896.112391	116.340000
1897.870822	115.400000
1899.628888	105.870000
1901.384845	108.520000
1903.142180	113.750000
1904.899148	113.190000
1906.654011	108.530000
1908.406768	108.620000
1910.159162	114.440000
1911.912931	102.930000
1913.664597	110.150000
1915.414161	105.710000
1917.165101	107.790000
1918.915677	109.620000
1920.662414	108.150000
1922.410528	105.810000
1924.156542	106.360000
1925.903932	104.850000
1927.649223	109.970000
1929.392417	104.530000
1931.136987	108.880000
1932.879460	104.670000
1934.621573	109.800000
1936.363326	105.300000
1938.104720	112.850000
1939.844020	109.810000
1941.582961	107.810000
1943.321543	108.670000
1945.058033	104.930000
1946.794166	108.690000
1948.531673	112.450000
1950.265358	106.810000
1952.000418	110.570000
1953.733390	96.220000
1955.466005	109.160000
1957.198263	101.000000
1958.930165	101.600000
1960.659981	100.010000
1962.387713	100.620000
1964.116818	105.670000
1965.845569	105.140000
1967.572236	104.820000
1969.298549	105.290000
1971.026235	96.670000
1972.748385	99.950000
1974.473636	102.870000
1976.195081	103.480000
1977.919625	102.620000
1979.642090	105.350000
1981.360751	106.930000
1983.082511	107.960000
1984.800469	108.380000
1986.519800	107.820000
1988.235332	101.950000
1989.955685	108.830000
1991.672238	107.720000
1993.384996	103.070000
1995.100849	108.540000
1996.814629	111.160000
1998.528060	107.260000
2000.239420	108.660000
2001.952153	106.200000
2003.661094	113.250000
2005.373129	108.970000
2007.079654	107.180000
2008.789272	103.240000
2010.496822	107.530000
2012.204025	111.370000
2013.909162	102.710000
2015.613952	108.920000
2017.320114	109.220000
2019.022494	103.700000
2020.726246	116.840000
2022.427934	106.020000
2024.129278	106.830000
2025.830276	107.180000
2027.529214	106.090000
2029.229522	100.990000
2030.926056	105.920000
2032.623961	101.440000
2034.319807	103.360000
2036.018739	98.880000
2037.712185	97.500000
2039.407003	121.930000
2041.101477	164.270000
2042.792183	171.940000
2044.485973	103.260000
2046.175996	103.980000
2047.867390	99.880000
2049.556731	104.580000
2051.247442	97.810000
2052.934391	92.420000
2054.620999	99.030000
2056.308978	99.640000
2057.993197	99.440000
2059.678786	104.030000
2061.364036	105.070000
2063.047238	103.030000
2064.731809	104.230000
2066.410918	103.070000
2068.094812	101.100000
2069.773246	105.360000
2071.454756	108.890000
2073.132516	102.630000
2074.809938	106.200000
2076.488731	100.080000
2078.165480	103.070000
2079.840188	105.390000
2081.516265	100.570000
2083.190302	102.620000
2084.864003	104.800000
2086.537369	103.450000
2088.208697	102.930000
2089.879690	96.990000
2091.550349	101.590000
2093.220673	100.500000
2094.890664	103.560000
2096.558619	99.690000
2098.226241	104.150000
2099.891829	101.820000
2101.558785	104.920000
2103.223707	98.110000
2104.888298	97.970000
2106.550857	101.680000
2108.214784	100.680000
2109.876681	99.240000
2111.538246	96.560000
2113.199480	101.220000
2114.858686	101.260000
2116.517562	94.160000
2118.176107	101.510000
2119.834323	104.680000
2121.488815	100.470000
2123.146372	103.710000
2124.803600	103.470000
2126.457106	99.940000
2128.111980	98.240000
2129.763136	102.420000
2131.417353	98.410000
2133.067854	99.650000
2134.719721	96.090000
2136.366180	96.130000
2138.017394	103.470000
2139.664894	98.270000
2141.313761	101.230000
2142.960610	98.250000
2144.607132	100.070000
2146.253329	96.260000
2147.895818	97.860000
2149.541365	100.170000
2151.183205	101.560000
2152.828102	99.530000
2154.469294	97.170000
2156.110162	104.490000
2157.750706	107.030000
2159.389239	99.550000
2161.029137	107.970000
2162.665335	101.020000
2164.302899	103.910000
2165.940140	104.920000
2167.575372	105.930000
2169.210283	101.780000
2170.844872	111.030000
2172.479139	107.910000
2174.109714	103.200000
2175.743339	100.510000
2177.373273	95.320000
2179.004572	100.110000
2180.633867	104.800000
2182.262841	100.180000
2183.891497	108.910000
2185.519833	99.790000
2187.146166	105.020000
2188.772181	98.340000
2190.396195	102.000000
2192.021573	102.940000
2193.644952	105.220000
2195.269694	101.570000
2196.890756	99.780000
2198.511501	98.040000
2200.133611	106.680000
2201.753723	105.640000
2203.371838	105.730000
2204.989638	101.700000
2206.607123	108.830000
2208.224292	106.350000
2209.841146	98.800000
2211.457685	99.050000
2213.072230	106.090000
2214.684783	101.740000
2216.298700	106.910000
2217.910626	96.690000
2219.523915	105.560000
2221.135214	104.680000
2222.744523	107.300000
2224.355196	103.700000
2225.963880	102.290000
2227.572252	105.030000
2229.178636	103.480000
2230.786384	96.040000
2232.392145	98.420000
2233.997595	97.410000
2235.601060	100.510000
2237.205889	99.330000
2238.808733	98.270000
2240.409594	107.990000
2242.011818	100.490000
2243.612059	98.850000
2245.213663	98.020000
2246.811615	102.550000
2248.410929	100.100000
2250.008263	102.810000
2251.605288	102.460000
2253.203676	98.390000
2254.798415	95.100000
2256.391177	99.000000
2257.985302	103.750000
2259.580788	104.350000
2261.172630	103.910000
2262.764165	100.100000
2264.357061	108.160000
2265.944648	102.120000
2267.536932	109.330000
2269.123908	101.180000
2270.713913	105.450000
2272.298613	100.480000
2273.888007	106.980000
2275.472098	99.850000
2277.057551	105.580000
2278.641034	94.170000
2280.227544	102.930000
2281.810420	96.070000
2283.392992	100.790000
2284.975261	93.120000
2286.553901	99.970000
2288.135564	94.160000
2289.713599	95.410000
2291.294657	90.830000
2292.872089	91.835000
2294.447556	92.840000
2296.026046	94.370000
2297.600912	93.660000
2299.175477	93.410000
2300.749742	94.440000
2302.323706	98.970000
2303.897370	96.210000
2305.470733	94.270000
2307.040478	97.620000
2308.609924	89.980000
2310.182389	90.130000
2311.749578	95.120000
2313.319786	93.680000
2314.886379	94.960000
2316.454332	97.700000
2318.020330	92.060000
2319.586029	100.140000
2321.151432	94.180000
2322.714881	92.680000
2324.279688	96.450000
2325.840888	96.710000
2327.405102	105.520000
2328.964055	107.140000
2330.526021	101.040000
2332.086037	101.490000
2333.645757	92.930000
2335.203528	90.920000
2336.761005	89.610000
2338.318186	99.290000
2339.873421	93.490000
2341.428361	90.420000
2342.983008	94.630000
2344.537361	96.050000
2346.091420	96.460000
2347.645185	97.230000
2349.197007	98.570000
2350.746885	97.350000
2352.299771	97.660000
2353.847415	99.310000
2355.398066	100.600000
2356.945127	99.370000
2358.493545	101.010000
2360.041671	94.060000
2361.586210	101.900000
2363.132106	97.180000
2364.676063	102.490000
2366.221378	96.860000
2367.763108	103.970000
2369.306195	96.990000
2370.847347	102.300000
2372.388209	97.070000
2373.928782	89.890000
2375.469066	96.240000
2377.009061	101.720000
2378.545477	92.830000
2380.084895	99.500000
2381.620736	102.390000
2383.157933	98.820000
2384.691555	93.840000
2386.228178	97.070000
2387.762869	97.370000
2389.295631	94.410000
2390.828107	93.900000
2392.358654	92.940000
2393.892199	98.910000
2395.420533	100.370000
2396.950223	96.000000
2398.479628	102.850000
2400.008747	96.590000
2401.537582	100.430000
2403.061211	94.930000
2404.589477	99.060000
2406.112539	102.290000
2407.640235	102.160000
2409.161092	95.070000
2410.686582	103.770000
2412.208511	105.370000
2413.731796	105.700000
2415.253160	99.280000
2416.772604	105.130000
2418.293403	108.710000
2419.812283	103.460000
2421.330881	107.680000
2422.847562	102.810000
2424.365597	105.400000
2425.883351	107.930000
2427.397554	110.950000
2428.911476	105.090000
2430.425118	110.890000
2431.940115	113.460000
2433.451563	106.910000
2434.964366	112.330000
2436.475256	106.970000
2437.985866	119.990000
2439.494565	116.090000
2441.006251	119.450000
2442.514392	117.460000
2444.022256	123.640000
2445.529842	122.720000
2447.033887	129.530000
2448.540918	134.500000
2450.046040	132.360000
2451.550885	127.440000
2453.053823	133.280000
2454.556484	133.480000
2456.058869	132.840000
2457.559349	134.210000
2459.061182	130.310000
2460.561111	133.190000
2462.060764	134.270000
2463.560141	129.030000
2465.057616	124.710000
2466.553190	120.710000
2468.051743	121.600000
2469.546767	117.980000
2471.043145	118.300000
2472.535996	107.850000
2474.030199	118.140000
2475.524129	114.920000
2477.014536	112.970000
2478.507919	112.860000
2479.999405	112.390000
2481.488994	104.890000
2482.978311	106.900000
2484.465733	109.940000
2485.956130	110.820000
2487.443008	114.930000
2488.931238	111.600000
2490.415952	109.100000
2491.900395	108.010000
2493.386190	100.960000
2494.870092	108.100000
2496.355346	104.230000
2497.835466	103.980000
2499.318558	100.130000
2500.799760	100.470000
2502.280693	97.160000
2503.759737	100.270000
2505.238512	99.300000
2506.717019	97.920000
2508.195258	97.970000
2509.673228	95.400000
2511.147694	94.710000
2512.625128	98.890000
2514.099059	99.350000
2515.574341	99.600000
2517.049355	100.600000
2518.520868	98.030000
2519.993732	100.100000
2521.464712	93.080000
2522.937043	97.370000
2524.404261	94.220000
2525.874444	90.530000
2527.342747	95.640000
2528.810785	94.770000
2530.278558	92.560000
2531.746066	95.200000
2533.213309	100.520000
2534.677060	96.150000
2536.142161	96.340000
2537.605385	93.320000
2539.069959	99.360000
2540.531043	96.590000
2541.993477	102.580000
2543.455648	98.000000
2544.914333	101.460000
2546.377590	102.620000
2547.835750	101.750000
2549.295259	95.300000
2550.749675	101.480000
2552.208660	104.790000
2553.665774	104.600000
2555.121017	109.890000
2556.575999	108.280000
2558.029111	102.500000
2559.483572	101.490000
2560.936164	100.660000
2562.388496	107.070000
2563.838960	107.050000
2565.292380	106.650000
2566.740718	101.720000
2568.192012	115.260000
2569.641439	106.610000
2571.087395	108.870000
2572.536305	107.300000
2573.981744	107.020000
2575.428532	107.830000
2576.873456	110.990000
2578.318123	110.170000
2579.764137	109.950000
2581.206684	113.550000
2582.650579	109.840000
2584.091009	109.530000
2585.532787	104.180000
2586.972704	106.020000
2588.413969	109.330000
2589.851773	102.190000
2591.292526	106.780000
2592.728216	112.690000
2594.166856	112.710000
2595.603639	108.830000
2597.038565	109.790000
2598.476440	102.960000
2599.909256	103.130000
2601.343420	108.170000
2602.775730	106.610000
2604.209386	107.770000
2605.641189	109.990000
2607.072739	106.530000
2608.504035	112.570000
2609.933479	113.580000
2611.362672	111.880000
2612.790013	113.430000
2614.218701	115.730000
2615.647136	112.530000
2617.072124	115.450000
2618.498459	126.430000
2619.922945	119.000000
2621.348777	122.980000
2622.771165	127.220000
2624.194899	125.870000
2625.616786	127.160000
2627.038424	133.880000
2628.458216	131.540000
2629.879354	140.480000
2631.300242	141.540000
2632.717692	145.350000
2634.138081	142.970000
2635.555033	154.370000
2636.971737	153.600000
2638.388192	152.730000
2639.804399	163.540000
2641.220357	167.920000
2642.634475	168.730000
2644.048346	177.050000
2645.460377	183.930000
2646.873753	183.500000
2648.283699	193.460000
2649.696580	205.750000
2651.106034	209.270000
2652.515241	223.400000
2653.922612	234.390000
2655.332917	247.380000
2656.741386	254.900000
2658.148020	278.530000
2659.554409	286.190000
2660.958964	312.230000
2662.364863	323.740000
2663.768929	341.340000
2665.172751	371.590000
2666.576328	390.660000
2667.978073	415.690000
2669.381162	445.590000
2670.780834	470.270000
2672.181848	487.310000
2673.579447	529.360000
2674.979976	539.980000
2676.377090	575.390000
2677.775547	600.120000
2679.172176	613.910000
2680.568563	627.650000
2681.964709	648.470000
2683.359028	654.930000
2684.754690	666.780000
2686.146942	666.300000
2687.540538	669.240000
2688.932309	670.590000
2690.325422	657.510000
2691.716712	658.900000
2693.106179	648.950000
2694.495406	626.480000
2695.884394	616.260000
2697.274724	606.250000
2698.660069	588.670000
2700.048338	575.870000
2701.434787	560.830000
2702.820997	532.870000
2704.206969	510.690000
2705.589541	486.000000
2706.973456	463.880000
2708.357133	437.010000
2709.740572	416.150000
2711.120615	388.850000
2712.502000	364.670000
2713.881569	347.110000
2715.262480	316.270000
2716.641576	316.340000
2718.018857	293.770000
2719.397480	272.160000
2720.774290	260.830000
2722.150864	243.570000
2723.527202	227.280000
2724.901728	220.640000
2726.277595	211.020000
2727.650075	194.090000
2729.025472	191.450000
2730.395907	185.480000
2731.767684	179.800000
2733.139226	174.570000
2734.508960	163.220000
2735.880035	160.820000
2737.249302	157.550000
2738.618335	150.290000
2739.985561	148.190000
2741.352555	142.280000
2742.719316	141.500000
2744.085844	135.110000
2745.450567	137.980000
2746.815059	129.280000
2748.179318	125.980000
2749.543345	126.400000
2750.907141	125.830000
2752.267563	120.790000
2753.630896	120.920000
2754.989286	114.380000
2756.350586	108.210000
2757.708515	114.620000
2759.069354	114.470000
2760.428392	104.890000
2761.784062	107.090000
2763.142640	102.890000
2764.497852	104.240000
2765.852834	106.530000
2767.206019	106.420000
2768.562111	103.760000
2769.914839	106.630000
2771.267338	106.740000
2772.619609	110.010000
2773.973219	103.190000
2775.323467	102.980000
2776.671922	101.910000
2778.023281	106.390000
2779.371281	103.330000
2780.720620	105.070000
2782.068166	103.840000
2783.415485	100.320000
2784.762578	93.960000
2786.107880	97.460000
2787.452956	100.770000
2788.797806	99.170000
2790.142429	98.450000
2791.483701	98.030000
2792.826311	96.110000
2794.168695	100.330000
2795.510855	98.770000
2796.849665	101.110000
2798.191374	98.750000
2799.529736	101.000000
2800.869435	102.930000
2802.207348	96.230000
2803.543477	99.910000
2804.879382	100.840000
2806.216625	98.690000
2807.552084	106.980000
2808.887320	95.380000
2810.220773	102.080000
2811.555564	100.860000
2812.887013	105.030000
2814.221358	95.440000
2815.550805	102.580000
2816.881589	99.540000
2818.212151	102.430000
2819.540934	92.520000
2820.871053	88.020000
2822.199394	91.130000
2823.527514	92.860000
2824.853857	95.190000
2826.181535	93.840000
2827.505881	94.270000
2828.831562	88.610000
2830.155468	91.810000
2831.479155	91.740000
2832.804177	88.160000
2834.125869	88.170000
2835.447343	80.310000
2836.768598	96.270000
2838.089634	91.470000
2839.408898	86.350000
2840.729497	85.750000
2842.048324	93.610000
2843.366933	87.890000
2844.683772	86.420000
2846.000393	84.140000
2847.316796	90.050000
2848.631431	85.450000
2849.947400	87.720000
2851.260049	87.290000
2852.574034	84.240000
2853.887801	83.020000
2855.201353	86.410000
2856.513137	81.060000
2857.823156	87.180000
2859.134508	82.740000
2860.442546	86.190000
2861.751919	79.800000
2863.061076	86.860000
2864.370018	81.720000
2865.677197	82.630000
2866.982612	84.090000
2868.289362	83.240000
2869.594349	86.470000
2870.899123	82.400000
2872.202135	84.070000
2873.508029	85.550000
2874.809067	86.940000
2876.111440	74.560000
2877.412053	86.740000
2878.714000	83.740000
2880.015734	78.770000
2881.314163	76.370000
2882.613927	84.990000
2883.911932	79.820000
2885.209726	77.230000
2886.505764	79.240000
2887.803135	82.400000
2889.098750	77.730000
2890.394154	78.230000
2891.689348	79.700000
2892.981243	77.140000
2894.276015	75.970000
2895.567490	79.460000
2896.860298	80.620000
2898.152896	79.670000
2899.442200	75.330000
2900.732836	75.560000
2902.021721	78.640000
2903.311939	78.870000
2904.598865	85.610000
2905.887123	72.760000
2907.173631	78.220000
2908.459932	78.040000
2909.746024	81.670000
2911.030368	79.900000
2912.317584	76.650000
2913.599972	81.430000
2914.883693	80.230000
2916.165668	79.850000
2917.447436	83.940000
2918.727458	77.520000
2920.010350	83.860000
2921.291497	75.160000
2922.569362	82.780000
2923.850096	75.630000
2925.127549	80.040000
2926.404797	77.030000
2927.680302	82.450000
2928.958675	78.290000
2930.232233	72.290000
2931.508659	75.410000
2932.783344	75.390000
2934.056289	73.730000
2935.330564	78.870000
2936.603100	73.900000
2937.875432	75.790000
2939.144490	72.650000
2940.416414	79.790000
2941.686600	74.830000
2942.956583	75.250000
2944.226362	72.910000
2945.494404	75.970000
2946.760711	73.400000
2948.026815	73.590000
2949.294249	70.550000
2950.559949	79.800000
2951.825446	72.840000
2953.090741	72.200000
2954.352771	70.880000
2955.616132	78.660000
2956.879290	69.740000
2958.140717	76.740000
2959.403473	70.510000
2960.664498	69.920000
2961.923791	72.070000
2963.182885	71.700000
2964.441778	72.600000
2965.700471	77.240000
2966.958964	68.530000
2968.215728	73.470000
2969.472292	77.110000
2970.727129	70.420000
2971.983295	70.870000
2973.236205	72.100000
2974.490445	69.860000
2975.744486	75.240000
2976.996801	72.190000
2978.248918	71.760000
2979.499310	65.900000
2980.752557	75.230000
2982.001027	69.590000
2983.252351	76.220000
2984.500427	68.610000
2985.748305	72.340000
2986.995986	69.100000
2988.243471	70.600000
2989.489234	69.700000
2990.734800	71.690000
2991.981694	74.450000
2993.225344	67.610000
2994.470322	71.040000
2995.712057	79.090000
2996.956643	73.180000
2998.199509	71.770000
2999.439135	65.290000
3000.681612	70.530000
3001.920848	64.990000
3003.161412	72.310000
3004.400259	74.900000
3005.638912	73.600000
3006.875849	67.030000
3008.114113	71.860000
3009.350663	72.880000
3010.587018	69.020000
3011.823180	71.210000
3013.057629	68.490000
3014.291884	67.210000
3015.525946	70.150000
3016.758296	65.710000
3017.988934	73.810000
3019.222418	62.980000
3020.454190	64.530000
3021.684252	65.960000
3022.914122	63.460000
3024.142282	69.300000
3025.371768	68.290000
3026.599546	66.130000
3027.827132	71.790000
3029.056044	65.970000
3030.280214	71.660000
3031.507227	69.300000
3032.731016	70.110000
3033.956132	68.290000
3035.179541	61.620000
3036.402761	64.810000
3037.624275	60.890000
3038.848630	68.340000
3040.068250	64.970000
3041.289195	60.360000
3042.509952	67.760000
3043.729005	63.390000
3044.949384	63.000000
3046.166546	70.200000
3047.385033	71.820000
3048.601819	70.000000
3049.818416	71.820000
3051.034826	62.320000
3052.248022	63.670000
3053.464056	63.740000
3054.676878	68.370000
3055.892537	63.110000
3057.103473	67.510000
3058.315734	61.620000
3059.527809	66.020000
3060.739697	67.700000
3061.949887	62.980000
3063.159891	65.010000
3064.369710	64.640000
3065.577832	64.630000
3066.785768	65.680000
3067.992010	63.300000
3069.199575	58.480000
3070.405447	60.240000
3071.611133	62.000000
3072.816634	56.350000
3074.020442	65.390000
3075.225574	59.150000
3076.429014	56.280000
3077.630761	64.470000
3078.832325	56.370000
3080.033705	60.670000
3081.234901	58.610000
3082.434407	58.970000
3083.633729	60.070000
3084.834375	55.940000
3086.033332	59.670000
3087.229093	55.880000
3088.427684	58.040000
3089.623081	59.940000
3090.819801	59.460000
3092.013329	57.000000
3093.209686	54.670000
3094.404355	57.490000
3095.595834	59.650000
3096.791644	60.100000
3097.982761	54.980000
3099.175200	51.800000
3100.364452	59.980000
3101.556530	55.500000
3102.746923	62.090000
3103.934131	57.610000
3105.122662	62.300000
3106.312515	54.540000
3107.499183	55.860000
3108.685672	61.950000
3109.871981	55.260000
3111.059612	55.720000
3112.244062	57.000000
3113.426831	58.460000
3114.612424	58.880000
3115.796336	56.180000
3116.978570	54.260000
3118.160625	57.670000
3119.342503	55.690000
3120.524202	58.980000
3121.704223	55.730000
3122.882568	59.760000
3124.063734	56.870000
3125.241724	58.280000
3126.419537	60.860000
3127.597173	59.650000
3128.773134	58.970000
3129.948918	53.440000
3131.126024	53.220000
3132.301455	55.260000
3133.475213	58.730000
3134.647299	50.820000
3135.820705	57.580000
3136.993936	58.450000
3138.165494	53.930000
3139.338374	55.850000
3140.508086	55.900000
3141.679119	61.690000
3142.848481	55.000000
3144.016174	56.660000
3145.186682	52.270000
3146.352531	54.610000
3147.522690	55.820000
3148.688191	51.640000
3149.853519	59.750000
3151.018673	61.720000
3152.183653	54.120000
3153.349954	56.150000
3154.511601	60.210000
3155.674569	57.030000
3156.837363	61.370000
3157.999985	61.060000
3159.160942	62.310000
3160.321726	54.650000
3161.482338	56.000000
3162.641287	54.510000
3163.800063	62.090000
3164.958668	56.860000
3166.117101	62.550000
3167.275362	57.550000
3168.431961	58.810000
3169.586899	61.190000
3170.743156	57.500000
3171.897753	58.280000
3173.052178	61.180000
3174.204944	55.220000
3175.357540	53.200000
3176.509965	52.390000
3177.662221	58.720000
3178.814307	60.210000
3179.963246	55.370000
3181.114992	56.160000
3182.265080	56.520000
3183.413512	57.060000
3184.561775	59.660000
3185.709868	56.610000
3186.857793	56.980000
3188.004063	56.210000
3189.150164	52.200000
3190.294610	55.970000
3191.438889	58.660000
3192.583000	53.710000
3193.728429	50.770000
3194.870719	51.690000
3196.012841	55.110000
3197.154796	53.580000
3198.296585	54.410000
3199.438206	55.430000
3200.576691	56.140000
3201.716494	55.800000
3202.857615	52.980000
3203.995601	50.680000
3205.131938	55.440000
3206.268109	48.610000
3207.405598	55.510000
3208.541438	53.700000
3209.678594	55.000000
3210.811138	55.140000
3211.947964	59.460000
3213.080178	49.360000
3214.213710	56.310000
3215.347076	51.020000
3216.477315	59.830000
3217.610352	47.940000
3218.740263	50.500000
3219.871491	53.660000
3220.999593	53.120000
3222.130492	51.940000
3223.259748	60.440000
3224.387359	52.070000
3225.511849	59.440000
3226.640614	58.700000
3227.766257	59.890000
3228.891737	56.110000
3230.015576	63.760000
3231.142209	64.120000
3232.264245	66.030000
3233.387597	64.890000
3234.510787	65.170000
3235.633815	70.260000
3236.755203	60.900000
3237.876430	67.750000
3238.996018	65.790000
3240.115445	69.450000
3241.233234	69.550000
3242.353816	61.240000
3243.471283	72.000000
3244.588591	70.380000
3245.705737	72.900000
3246.821248	66.530000
3247.938074	64.980000
3249.051789	68.200000
3250.168295	65.460000
3251.283165	66.570000
3252.394927	64.260000
3253.506530	60.860000
3254.619447	66.320000
3255.732206	59.960000
3256.841858	64.180000
3257.952825	61.660000
3259.063632	55.350000
3260.172809	59.800000
3261.280354	58.250000
3262.389214	52.790000
3263.497915	53.970000
3264.603514	56.760000
3265.710428	56.720000
3266.815712	47.340000
3267.922310	50.850000
3269.025808	50.260000
3270.130620	52.960000
3271.235275	54.740000
3272.336831	51.440000
3273.438232	50.170000
3274.540946	48.170000
3275.643503	47.360000
3276.742965	48.700000
3277.845209	51.610000
3278.944359	52.590000
3280.041883	43.530000
3281.139252	48.640000
3282.239404	46.550000
3283.336462	45.410000
3284.433365	46.630000
3285.530114	43.510000
3286.622303	41.490000
3287.718741	49.550000
3288.813558	45.800000
3289.908219	49.630000
3291.001259	42.660000
3292.094145	42.730000
3293.185410	44.650000
3294.277988	45.560000
3295.368945	44.100000
3296.458283	47.480000
3297.547468	38.260000
3298.637966	43.830000
3299.725379	41.130000
3300.812640	42.650000
3301.901213	38.390000
3302.989633	50.530000
3304.073506	44.220000
3305.161621	42.590000
3306.246655	43.810000
3307.330072	43.860000
3308.414802	44.980000
3309.497917	45.960000
3310.582343	44.770000
3311.663691	45.640000
3312.746351	45.020000
3313.827397	42.740000
3314.908292	36.120000
3315.987574	45.490000
3317.066705	46.810000
3318.147147	44.320000
3319.224516	39.660000
3320.303196	41.190000
3321.380264	42.870000
3322.457182	44.430000
3323.532489	40.540000
3324.607647	41.410000
3325.684116	39.930000
3326.757515	44.240000
3327.830765	39.540000
3328.905326	46.380000
3329.978277	44.230000
3331.049621	44.080000
3332.122275	49.480000
3333.191862	42.190000
3334.262760	34.740000
3335.332051	47.020000
3336.402653	43.210000
3337.471648	39.470000
3338.539037	43.050000
3339.604821	42.610000
3340.674831	43.280000
3341.741778	41.800000
3342.805663	42.260000
3343.872316	42.540000
3344.937364	44.120000
3346.000810	47.850000
3347.064108	41.940000
3348.127261	47.580000
3349.190267	42.650000
3350.253126	54.900000
3351.314384	41.600000
3352.372585	45.070000
3353.435007	36.080000
3354.494372	45.220000
3355.553592	43.690000
3356.614122	42.040000
3357.670142	43.690000
3358.728927	40.360000
3359.783204	42.510000
3360.840244	46.110000
3361.895687	40.300000
3362.952438	44.040000
3364.007592	45.120000
3365.061148	42.110000
3366.113107	43.020000
3367.167828	40.540000
3368.219500	46.890000
3369.271029	42.890000
3370.323867	41.950000
3371.373657	35.100000
3372.424755	42.410000
3373.472808	45.560000
3374.523621	39.830000
3375.571388	43.960000
3376.619013	44.470000
3377.666495	43.300000
3378.712385	39.490000
3379.759583	36.840000
3380.803739	42.860000
3381.850653	37.230000
3382.895975	44.600000
3383.938257	42.840000
3384.980397	40.930000
3386.023845	38.130000
3387.067153	44.400000
3388.108870	51.210000
3389.150446	39.410000
3390.191882	47.680000
3391.231728	41.130000
3392.269987	43.990000
3393.309553	44.780000
3394.348978	39.390000
3395.386817	38.030000
3396.423068	51.490000
3397.459179	40.300000
3398.496598	39.550000
3399.530984	43.960000
3400.566677	35.910000
3401.602231	44.480000
3402.634754	46.590000
3403.670030	42.970000
3404.702275	40.060000
3405.734382	44.370000
3406.764905	42.220000
3407.796736	43.890000
3408.828427	42.630000
3409.857092	39.090000
3410.885618	40.640000
3411.915452	38.010000
3412.945147	43.560000
3413.971817	37.070000
3414.999794	45.700000
3416.024746	38.190000
3417.052448	36.300000
3418.077127	35.910000
3419.103112	36.330000
3420.127517	37.400000
3421.151786	43.300000
3422.174476	43.740000
3423.197030	41.970000
3424.220890	33.760000
3425.241730	43.070000
3426.262435	33.850000
3427.284445	38.480000
3428.303437	38.910000
3429.322294	38.930000
3430.342456	38.120000
3431.359602	42.900000
