-117.897011	1.760000
-115.227411	3.130000
-112.560746	1.360000
-109.894833	2.350000
-107.231852	3.820000
-104.567442	2.090000
-101.905962	1.680000
-99.243052	2.840000
-96.585250	5.020000
-93.926017	9.970000
-91.267533	9.680000
-88.611974	-1.880000
-85.954986	2.840000
-83.303095	12.190000
-80.649775	2.940000
-77.999375	6.080000
-75.347545	4.550000
-72.700806	2.390000
-70.052637	4.080000
-67.405212	2.360000
-64.760700	0.730000
-62.114760	3.790000
-59.473901	9.730000
-56.831613	11.710000
-54.192233	2.580000
-51.551425	7.900000
-48.911357	4.150000
-46.276361	10.820000
-43.639936	1.970000
-41.006415	10.950000
-38.371465	8.910000
-35.741580	7.460000
-33.108103	6.480000
-30.479688	7.870000
-27.852006	14.370000
-25.222897	16.800000
-22.598844	21.760000
-19.971202	23.370000
-17.348613	34.600000
-14.726755	47.620000
-12.105629	76.360000
-9.485232	180.800000
-6.867723	622.780000
-4.248786	2138.200000
-1.632735	6103.190000
0.982588	8001.550000
3.597184	6746.910000
6.208897	957.900000
8.822039	99.060000
11.430147	50.110000
14.041837	36.170000
16.648496	24.250000
19.256583	22.330000
21.863946	26.260000
24.466284	16.250000
27.072200	19.830000
29.673094	14.110000
32.275417	13.490000
34.872721	9.670000
37.473601	8.090000
40.069467	6.640000
42.666760	7.190000
45.263334	6.790000
47.854899	12.290000
50.447892	7.100000
53.038024	7.190000
55.629584	3.110000
58.218284	7.860000
60.808411	3.410000
63.393540	3.660000
65.980096	2.650000
68.565937	7.690000
71.148925	4.970000
73.733340	7.940000
76.310625	1.140000
78.891477	8.520000
81.469480	5.560000
84.046773	7.010000
86.625492	6.690000
89.199230	7.210000
91.774394	1.460000
94.346715	7.330000
96.918328	1.170000
99.487102	4.530000
102.057302	7.220000
104.624663	4.160000
107.193451	1.950000
109.759401	6.770000
112.322517	6.500000
114.889189	11.730000
117.446640	13.120000
120.009776	15.680000
122.567953	18.890000
125.129683	32.410000
127.686458	39.870000
130.244658	56.040000
132.797906	86.610000
135.350455	119.260000
137.906555	168.760000
140.457708	228.600000
143.008162	274.210000
145.557920	321.380000
148.104858	350.670000
150.651100	370.310000
153.198768	383.820000
155.745741	386.680000
158.287777	376.830000
160.829120	378.600000
163.369770	373.020000
165.911846	373.940000
168.451111	373.940000
170.987566	377.870000
173.523331	381.990000
176.060521	377.650000
178.597019	376.340000
181.130712	376.200000
183.661602	370.490000
186.191803	362.740000
188.723429	368.320000
191.252254	363.540000
193.778280	363.000000
196.303621	369.700000
198.830386	364.530000
201.354354	371.410000
203.877638	367.550000
206.400237	369.790000
208.920043	367.240000
211.439166	372.820000
213.957606	369.380000
216.477470	371.230000
218.990333	370.800000
221.506727	376.680000
224.022439	384.440000
226.533262	391.900000
229.045509	392.710000
231.554973	394.540000
234.063759	396.910000
236.571867	400.700000
239.081398	396.460000
241.586050	400.310000
244.090025	399.600000
246.595424	399.800000
249.095948	397.840000
251.599995	399.950000
254.097072	389.710000
256.597671	397.600000
259.095499	391.570000
261.592654	384.270000
264.089136	386.170000
266.580756	390.220000
269.075894	389.250000
271.568267	386.220000
274.059969	394.780000
276.548908	398.270000
279.039270	398.670000
281.526871	396.910000
284.011712	408.870000
286.500067	406.170000
288.981483	411.170000
291.466413	425.980000
293.946498	427.240000
296.430095	433.930000
298.908849	442.600000
301.389027	456.210000
303.866452	459.550000
306.343214	448.920000
308.819313	432.830000
311.292663	424.690000
313.765351	415.580000
316.237378	421.290000
318.708744	429.090000
321.177366	441.340000
323.645328	427.460000
326.114713	420.080000
328.579275	400.540000
331.047340	395.450000
333.510586	384.870000
335.973175	383.220000
338.435106	377.300000
340.896381	378.650000
343.354922	371.240000
345.814885	363.780000
348.272115	364.170000
350.728691	362.350000
353.184613	349.080000
355.637806	354.500000
358.092420	345.880000
360.542233	352.230000
362.995543	339.360000
365.444053	336.330000
367.891913	329.880000
370.341194	336.350000
372.785682	329.820000
375.231592	323.190000
377.676853	321.690000
380.119395	322.220000
382.561289	311.220000
385.002535	310.580000
387.441066	314.030000
389.881019	318.210000
392.318258	315.050000
394.752785	304.870000
397.190800	310.160000
399.624038	311.850000
402.058698	309.880000
404.488584	314.620000
406.921956	309.240000
409.350558	320.680000
411.778519	306.170000
414.207900	310.580000
416.632516	300.860000
419.058554	299.400000
421.483951	304.430000
423.908708	301.860000
426.328707	297.370000
428.750127	298.720000
431.168850	291.900000
433.588994	297.990000
436.006443	287.450000
438.425312	283.220000
440.841488	277.530000
443.252917	273.920000
445.667822	259.150000
448.080037	258.110000
450.491618	254.750000
452.902565	253.630000
455.310826	249.430000
457.718454	247.250000
460.125451	238.130000
462.531815	245.630000
464.935497	245.230000
467.338549	247.910000
469.740971	238.820000
472.142764	248.660000
474.541878	243.070000
476.942412	249.310000
479.342317	248.090000
481.737499	249.660000
484.136148	255.280000
486.530077	273.870000
488.923380	267.930000
491.316057	282.210000
493.708109	294.820000
496.101580	316.260000
498.490338	360.570000
500.876430	428.510000
503.263942	509.690000
505.650830	667.170000
508.035055	911.040000
510.420699	1289.790000
512.803680	1824.220000
515.184001	2449.750000
517.565741	2932.420000
519.944822	2982.370000
522.325322	2682.910000
524.703164	2234.980000
527.078351	1844.300000
529.452920	1522.860000
531.828908	1289.510000
534.202242	1120.940000
536.576994	987.210000
538.947061	885.830000
541.316512	800.590000
543.687381	733.160000
546.053570	665.470000
548.421177	629.700000
550.786138	586.520000
553.150486	561.900000
555.514222	534.770000
557.879375	514.190000
560.239855	495.910000
562.601754	490.090000
564.961013	458.430000
567.317633	450.080000
569.677698	436.530000
572.031073	420.140000
574.387892	412.340000
576.742075	399.570000
579.095651	389.350000
581.448618	381.560000
583.798954	369.470000
586.150706	357.790000
588.495782	342.350000
590.846322	336.630000
593.190189	326.330000
595.539516	331.660000
597.884196	318.360000
600.226250	318.060000
602.569722	324.020000
604.910571	317.480000
607.250818	318.730000
609.588444	328.520000
611.929505	340.770000
614.265929	356.610000
616.603769	352.360000
618.938991	362.020000
621.271598	341.960000
623.605621	336.560000
625.937031	319.320000
628.267842	308.930000
630.598055	305.350000
632.927670	295.310000
635.252663	291.920000
637.583097	295.790000
639.908909	291.550000
642.232115	293.330000
644.556736	288.700000
646.878753	280.620000
649.200175	282.490000
651.518994	281.080000
653.839229	275.180000
656.158871	274.270000
658.475912	270.530000
660.792361	280.370000
663.106213	274.890000
665.421479	277.130000
667.734149	275.020000
670.048234	268.520000
672.357719	273.010000
674.668620	268.950000
676.976928	269.680000
679.284648	270.920000
681.593783	254.630000
683.898325	256.200000
686.202280	254.730000
688.505650	239.190000
690.810434	239.900000
693.110632	233.380000
695.412244	233.930000
697.713272	225.360000
700.009717	220.260000
702.307578	220.930000
704.604855	218.260000
706.901549	218.590000
709.193667	219.850000
711.489196	221.740000
713.780152	218.340000
716.072522	219.630000
718.362316	216.210000
720.651531	223.800000
722.940165	221.620000
725.226228	222.140000
727.513704	214.160000
729.798610	223.860000
732.082937	218.680000
734.364696	221.290000
736.647869	207.730000
738.930465	211.170000
741.208506	208.080000
743.487960	212.880000
745.766839	204.300000
748.045142	216.650000
750.318896	214.560000
752.594064	205.890000
754.868658	205.680000
757.140693	205.480000
759.414140	208.300000
761.685030	209.950000
763.953364	207.510000
766.223111	207.730000
768.490304	210.630000
770.756926	211.570000
773.022979	207.790000
775.286479	209.740000
777.551393	211.840000
779.815737	214.890000
782.075552	217.000000
784.336780	215.020000
786.597440	215.370000
788.855553	222.120000
791.111122	218.190000
793.370082	217.880000
795.622543	215.110000
797.880371	222.880000
800.133679	223.760000
802.384448	213.260000
804.636629	216.570000
806.886272	220.230000
809.137326	213.290000
811.383869	216.980000
813.631825	213.110000
815.877245	219.760000
818.124077	213.320000
820.370348	215.450000
822.612115	208.040000
824.857264	212.780000
827.095941	207.810000
829.338001	206.710000
831.575562	207.040000
833.814534	212.130000
836.050980	201.380000
838.288837	207.130000
840.524170	206.850000
842.756978	216.060000
844.991198	214.190000
847.222896	211.260000
849.454039	209.160000
851.684627	207.000000
853.914661	204.690000
856.144140	209.980000
858.369138	209.790000
860.597511	206.740000
862.821405	202.800000
865.046709	207.060000
867.267538	205.340000
869.491739	205.950000
871.711467	207.540000
873.932606	208.790000
876.153194	208.060000
878.371272	212.020000
880.590761	212.300000
882.805783	204.530000
885.020257	200.290000
887.234184	199.440000
889.447563	195.200000
891.660395	200.050000
893.872681	197.380000
896.082464	198.000000
898.291702	198.640000
900.500395	197.300000
902.706589	194.930000
904.914192	204.470000
907.119298	203.010000
909.323860	206.920000
911.525926	207.420000
913.729402	207.940000
915.930384	220.260000
918.130825	223.380000
920.332674	224.780000
922.528131	236.280000
924.726948	245.690000
926.921327	270.950000
929.119062	286.430000
931.312362	321.240000
933.507071	353.350000
935.699294	382.590000
937.890979	423.530000
940.082126	446.050000
942.270790	446.080000
944.458917	451.230000
946.644564	445.910000
948.833563	450.670000
951.018139	442.710000
953.202180	450.180000
955.389571	446.050000
957.568658	450.540000
959.751096	454.570000
961.933000	456.440000
964.112430	467.260000
966.289387	474.790000
968.467751	469.640000
970.647523	478.150000
972.820946	475.150000
974.997715	482.620000
977.170078	473.070000
979.343847	471.680000
981.513213	466.560000
983.685924	444.710000
985.856168	423.950000
988.025884	390.850000
990.195071	356.010000
992.359861	329.770000
994.527992	310.440000
996.691729	297.780000
998.856872	288.700000
1001.019557	281.080000
1003.181715	278.600000
1005.341417	271.920000
1007.500595	254.130000
1009.661179	264.480000
1011.819308	251.020000
1013.976913	243.070000
1016.133995	237.980000
1018.290554	234.260000
1020.442733	228.520000
1022.596318	227.730000
1024.749382	219.160000
1026.899998	219.700000
1029.052019	217.720000
1031.199667	215.470000
1033.350647	208.730000
1035.497256	203.860000
1037.643347	208.620000
1039.788918	209.030000
1041.935895	205.150000
1044.076584	204.460000
1046.220601	206.030000
1048.362178	206.270000
1050.503239	206.460000
1052.645704	204.730000
1054.781890	205.990000
1056.921402	207.350000
1059.056558	206.360000
1061.195039	209.850000
1063.329166	205.940000
1065.462780	203.970000
1067.597799	204.210000
1069.728468	204.980000
1071.860542	199.560000
1073.990187	204.730000
1076.119320	203.450000
1078.247941	206.840000
1080.376051	199.350000
1082.501735	198.030000
1084.626909	205.910000
1086.753487	195.470000
1088.875728	197.570000
1090.999372	199.290000
1093.118683	200.420000
1095.243222	198.850000
1097.361516	196.360000
1099.481215	197.510000
1101.598495	197.520000
1103.715269	191.100000
1105.831536	193.970000
1107.945388	191.630000
1110.060643	195.330000
1112.171576	198.880000
1114.285820	186.800000
1116.395744	187.870000
1118.507072	187.670000
1120.617895	192.610000
1122.724403	183.970000
1124.834219	184.070000
1126.939721	182.800000
1129.046626	182.330000
1131.147316	185.450000
1133.253218	182.550000
1135.354811	185.420000
1137.457807	189.450000
1139.560302	187.250000
1141.656591	182.790000
1143.758086	182.590000
1145.855279	185.740000
1147.951973	175.990000
1150.048169	180.370000
1152.143868	185.820000
1154.239069	192.380000
1156.331873	185.970000
1158.426079	191.180000
1160.514094	187.970000
1162.607307	195.210000
1164.694332	189.550000
1166.784656	184.120000
1168.870693	188.960000
1170.960027	190.210000
1173.043180	188.670000
1175.127736	189.330000
1177.213692	186.440000
1179.295367	190.180000
1181.378444	188.990000
1183.459135	193.290000
1185.539334	189.780000
1187.619042	195.200000
1189.698259	194.120000
1191.775094	192.060000
1193.849548	191.180000
1195.927294	189.690000
1198.000769	187.960000
1200.075645	187.980000
1202.146254	187.880000
1204.218265	184.570000
1206.287899	186.810000
1208.358934	185.950000
1210.429481	186.170000
1212.495767	187.820000
1214.563454	183.550000
1216.628769	187.610000
1218.695484	177.390000
1220.757943	182.500000
1222.823687	180.510000
1224.885178	179.460000
1226.948068	174.720000
1229.008591	186.600000
1231.068630	179.780000
1233.128187	183.520000
1235.185378	188.290000
1237.242088	193.790000
1239.296435	191.080000
1241.354062	190.780000
1243.409327	191.080000
1245.460351	187.850000
1247.512775	185.570000
1249.564719	184.860000
1251.614305	189.850000
1253.663412	187.440000
1255.712041	191.980000
1257.760191	195.400000
1259.807863	192.260000
1261.851304	198.990000
1263.898020	194.950000
1265.942384	201.560000
1267.986270	200.720000
1270.027806	202.960000
1272.066992	205.700000
1274.109450	205.140000
1276.147686	211.480000
1278.187321	206.970000
1280.226481	207.390000
1282.261422	213.620000
1284.297763	209.280000
1286.331758	206.800000
1288.367152	213.430000
1290.398332	211.400000
1292.430911	204.390000
1294.463017	201.970000
1296.492783	202.000000
1298.523947	203.460000
1300.550903	203.340000
1302.579257	201.160000
1304.603407	205.000000
1306.630821	206.800000
1308.654033	201.470000
1310.678643	207.430000
1312.700919	210.050000
1314.724592	208.600000
1316.745932	200.680000
1318.766804	207.710000
1320.787210	207.300000
1322.803421	207.240000
1324.821031	199.210000
1326.836312	210.290000
1328.854851	206.930000
1330.869202	203.280000
1332.881227	203.490000
1334.896509	206.890000
1336.907606	203.710000
1338.920100	199.530000
1340.928411	209.860000
1342.939978	202.160000
1344.945505	207.670000
1346.954288	215.590000
1348.958893	215.920000
1350.966752	216.730000
1352.974149	221.230000
1354.975515	223.280000
1356.978278	215.590000
1358.980580	223.260000
1360.982423	222.350000
1362.983806	221.190000
1364.982876	215.880000
1366.981487	214.230000
1368.979640	214.420000
1370.977335	216.680000
1372.970866	213.210000
1374.965794	212.400000
1376.960265	206.780000
1378.954279	211.370000
1380.945986	206.510000
1382.937237	202.230000
1384.926183	206.250000
1386.916524	196.580000
1388.906410	192.860000
1390.893993	197.580000
1392.881121	195.740000
1394.865949	200.990000
1396.852170	198.220000
1398.836092	196.310000
1400.819561	204.380000
1402.802578	199.140000
1404.783296	200.310000
1406.765410	201.910000
1408.745226	201.720000
1410.724592	201.750000
1412.699818	197.990000
1414.678284	195.470000
1416.654455	194.660000
1418.630178	192.050000
1420.605451	195.040000
1422.578433	194.710000
1424.550967	190.470000
1426.523054	196.840000
1428.494692	199.800000
1430.462202	193.660000
1432.434787	186.830000
1434.399565	193.020000
1436.369416	189.900000
1438.335142	198.940000
1440.302261	195.160000
1442.267097	202.060000
1444.227814	205.730000
1446.193598	204.670000
1448.153427	202.120000
1450.114649	208.620000
1452.077264	206.420000
1454.035764	209.510000
1455.993822	210.120000
1457.951437	208.660000
1459.908611	212.550000
1461.863509	213.330000
1463.819799	202.050000
1465.773815	213.260000
1467.727391	200.680000
1469.678694	201.590000
1471.631389	205.910000
1473.581813	204.060000
1475.531798	198.030000
1477.481343	203.010000
1479.428620	201.400000
1481.373630	203.140000
1483.320031	196.320000
1485.265996	190.930000
1487.211522	191.530000
1489.154784	194.900000
1491.097609	195.260000
1493.038171	198.200000
1494.980124	195.310000
1496.919816	201.300000
1498.859072	198.640000
1500.797893	204.750000
1502.734455	201.340000
1504.672408	209.200000
1506.608103	213.370000
1508.543364	214.300000
1510.476368	214.730000
1512.408940	220.810000
1514.341080	213.570000
1516.272788	218.270000
1518.202242	218.800000
1520.133087	220.730000
1522.063501	221.480000
1523.989841	222.380000
1525.917573	219.030000
1527.843054	226.480000
1529.768106	228.450000
1531.692729	229.910000
1533.616923	230.950000
1535.538870	234.620000
1537.462206	232.330000
1539.383297	238.730000
1541.302143	245.820000
1543.222379	238.190000
1545.140371	241.340000
1547.057937	250.810000
1548.973261	251.740000
1550.889975	269.610000
1552.802634	268.750000
1554.718497	282.710000
1556.632120	287.830000
1558.543506	288.290000
1560.456280	291.310000
1562.365005	309.130000
1564.275120	320.890000
1566.184811	340.690000
1568.094078	372.080000
1570.001112	400.630000
1571.905913	434.550000
1573.812103	470.230000
1575.716061	510.530000
1577.619599	555.440000
1579.522715	599.860000
1581.423603	656.430000
1583.325878	682.000000
1585.225926	703.310000
1587.127361	700.630000
1589.024763	690.160000
1590.921746	656.590000
1592.818311	627.520000
1594.716264	590.020000
1596.608382	547.080000
1598.503693	480.920000
1600.398587	436.830000
1602.291259	389.620000
1604.183515	364.970000
1606.073551	339.880000
1607.963171	314.570000
1609.852375	296.030000
1611.741165	282.030000
1613.627738	271.120000
1615.515697	266.840000
1617.399640	256.020000
1619.284971	247.920000
1621.169887	247.370000
1623.052591	242.710000
1624.936680	229.860000
1626.816759	230.540000
1628.698224	223.860000
1630.577479	211.830000
1632.458120	208.560000
1634.332957	204.660000
1636.212776	192.360000
1638.088589	194.160000
1639.963992	188.900000
1641.840782	193.080000
1643.711774	189.100000
1645.585948	185.380000
1647.456124	184.130000
1649.329480	181.440000
1651.200633	181.500000
1653.069584	175.060000
1654.939921	171.790000
1656.806264	171.940000
1658.673993	160.990000
1660.539524	167.510000
1662.406439	160.710000
1664.269366	157.080000
1666.133678	160.380000
1667.995794	159.320000
1669.857506	155.430000
1671.720602	154.140000
1673.581504	150.280000
1675.440212	151.230000
1677.298517	148.890000
1679.158207	156.090000
1681.012130	142.620000
1682.869225	151.730000
1684.725918	146.960000
1686.578635	152.750000
1688.434523	155.010000
1690.286436	146.630000
1692.137949	150.280000
1693.989061	141.520000
1695.839773	147.290000
1697.690084	140.710000
1699.538211	139.610000
1701.387721	136.970000
1703.231483	136.290000
1705.080194	145.340000
1706.923160	135.790000
1708.769291	139.760000
1710.611461	134.670000
1712.456795	141.590000
1714.296389	141.300000
1716.137367	145.590000
1717.979728	135.210000
1719.818133	140.280000
1721.657921	136.010000
1723.495534	132.010000
1725.332751	134.670000
1727.167795	134.580000
1729.004222	133.200000
1730.838477	136.100000
1732.672337	133.930000
1734.505804	132.380000
1736.335324	134.740000
1738.168003	134.600000
1739.996738	129.410000
1741.828631	131.630000
1743.656581	128.100000
1745.484139	131.120000
1747.311305	125.640000
1749.138080	133.720000
1750.964464	134.690000
1752.786911	131.070000
1754.612512	132.040000
1756.434179	134.570000
1758.257228	128.300000
1760.078116	130.470000
1761.898614	130.940000
1763.720494	130.190000
1765.536674	126.090000
1767.356006	127.360000
1769.171411	131.330000
1770.989966	124.360000
1772.804596	124.470000
1774.618840	127.870000
1776.432696	124.140000
1778.246166	134.020000
1780.057483	130.990000
1781.870181	129.580000
1783.682492	128.780000
1785.490886	130.580000
1787.300661	126.210000
1789.106520	130.330000
1790.915526	125.950000
1792.720617	131.960000
1794.527090	119.980000
1796.333179	118.410000
1798.135358	122.570000
1799.940680	127.420000
1801.742094	119.110000
1803.544888	129.080000
1805.343776	122.920000
1807.144045	123.510000
1808.943932	114.860000
1810.741678	127.620000
1812.539043	126.430000
1814.336027	126.790000
1816.132631	126.920000
1817.927096	131.280000
1819.722940	126.520000
1821.513130	129.510000
1823.308216	131.660000
1825.097649	136.080000
1826.890219	131.190000
1828.680654	134.340000
1830.468955	128.190000
1832.260391	138.660000
1834.046181	128.910000
1835.833351	143.990000
1837.618389	133.770000
1839.406561	129.410000
1841.190847	129.100000
1842.973004	131.580000
1844.756539	133.420000
1846.537946	138.510000
1848.320732	136.680000
1850.099638	137.370000
1851.879922	138.540000
1853.658080	138.900000
1855.437617	135.240000
1857.215029	136.520000
1858.990317	135.690000
1860.766984	137.000000
1862.541527	137.740000
1864.317449	135.410000
1866.087751	136.360000
1867.861179	137.410000
1869.632488	139.690000
1871.403427	141.140000
1873.175742	134.870000
1874.942445	140.770000
1876.712272	139.290000
1878.478236	139.550000
1880.247324	131.930000
1882.012550	133.080000
1883.777407	129.290000
1885.543642	135.960000
1887.306018	129.640000
1889.068027	132.680000
1890.829668	128.630000
1892.590943	129.030000
1894.351850	123.470000
1896.112391	128.070000
1897.870822	123.330000
1899.628888	125.990000
1901.384845	123.080000
1903.142180	127.130000
1904.899148	127.000000
1906.654011	124.980000
1908.406768	122.500000
1910.159162	121.910000
1911.912931	118.480000
1913.664597	124.930000
1915.414161	121.450000
1917.165101	124.010000
1918.915677	122.380000
1920.662414	129.240000
1922.410528	126.120000
1924.156542	125.260000
1925.903932	124.480000
1927.649223	123.680000
1929.392417	121.090000
1931.136987	126.660000
1932.879460	125.410000
1934.621573	126.970000
1936.363326	126.160000
1938.104720	123.470000
1939.844020	121.190000
1941.582961	124.030000
1943.321543	126.470000
1945.058033	127.970000
1946.794166	125.975000
1948.531673	123.980000
1950.265358	128.500000
1952.000418	125.280000
1953.733390	117.640000
1955.466005	121.460000
1957.198263	117.850000
1958.930165	116.680000
1960.659981	121.730000
1962.387713	123.170000
1964.116818	119.620000
1965.845569	119.350000
1967.572236	121.790000
1969.298549	117.870000
1971.026235	117.330000
1972.748385	115.370000
1974.473636	118.520000
1976.195081	126.010000
1977.919625	117.800000
1979.642090	118.900000
1981.360751	115.020000
1983.082511	123.690000
1984.800469	124.580000
1986.519800	127.500000
1988.235332	119.630000
1989.955685	123.560000
1991.672238	122.520000
1993.384996	113.150000
1995.100849	125.670000
1996.814629	121.570000
1998.528060	125.510000
2000.239420	127.590000
2001.952153	129.320000
2003.661094	132.370000
2005.373129	123.580000
2007.079654	121.880000
2008.789272	126.800000
2010.496822	127.710000
2012.204025	123.690000
2013.909162	129.710000
2015.613952	120.750000
2017.320114	128.390000
2019.022494	128.150000
2020.726246	126.360000
2022.427934	127.640000
2024.129278	124.650000
2025.830276	123.140000
2027.529214	130.410000
2029.229522	123.020000
2030.926056	122.170000
2032.623961	121.030000
2034.319807	121.720000
2036.018739	123.780000
2037.712185	125.330000
2039.407003	111.790000
2041.101477	116.190000
2042.792183	113.970000
2044.485973	117.390000
2046.175996	118.930000
2047.867390	119.840000
2049.556731	111.290000
2051.247442	115.940000
2052.934391	116.140000
2054.620999	116.830000
2056.308978	119.260000
2057.993197	121.240000
2059.678786	120.350000
2061.364036	128.470000
2063.047238	117.540000
2064.731809	124.140000
2066.410918	120.590000
2068.094812	125.300000
2069.773246	117.460000
2071.454756	124.670000
2073.132516	120.170000
2074.809938	121.450000
2076.488731	119.950000
2078.165480	115.100000
2079.840188	121.320000
2081.516265	128.750000
2083.190302	117.060000
2084.864003	121.380000
2086.537369	118.000000
2088.208697	124.380000
2089.879690	121.020000
2091.550349	122.310000
2093.220673	121.680000
2094.890664	124.510000
2096.558619	123.360000
2098.226241	127.400000
2099.891829	122.040000
2101.558785	120.360000
2103.223707	119.700000
2104.888298	122.210000
2106.550857	114.140000
2108.214784	119.190000
2109.876681	106.690000
2111.538246	117.800000
2113.199480	113.900000
2114.858686	117.520000
2116.517562	114.130000
2118.176107	118.970000
2119.834323	119.980000
2121.488815	119.010000
2123.146372	116.310000
2124.803600	122.810000
2126.457106	114.300000
2128.111980	123.880000
2129.763136	115.040000
2131.417353	119.020000
2133.067854	113.950000
2134.719721	113.630000
2136.366180	114.750000
2138.017394	117.850000
2139.664894	118.860000
2141.313761	114.740000
2142.960610	116.260000
2144.607132	120.420000
2146.253329	116.960000
2147.895818	115.510000
2149.541365	111.570000
2151.183205	115.280000
2152.828102	113.470000
2154.469294	119.520000
2156.110162	118.320000
2157.750706	118.150000
2159.389239	120.800000
2161.029137	120.220000
2162.665335	117.370000
2164.302899	119.800000
2165.940140	120.130000
2167.575372	121.330000
2169.210283	118.050000
2170.844872	121.020000
2172.479139	119.110000
2174.109714	123.730000
2175.743339	122.930000
2177.373273	124.180000
2179.004572	122.410000
2180.633867	118.950000
2182.262841	124.020000
2183.891497	125.680000
2185.519833	118.730000
2187.146166	124.530000
2188.772181	119.640000
2190.396195	117.380000
2192.021573	120.920000
2193.644952	122.130000
2195.269694	122.940000
2196.890756	122.410000
2198.511501	119.080000
2200.133611	127.810000
2201.753723	122.330000
2203.371838	122.890000
2204.989638	118.590000
2206.607123	123.260000
2208.224292	123.620000
2209.841146	123.010000
2211.457685	119.370000
2213.072230	125.060000
2214.684783	119.100000
2216.298700	128.210000
2217.910626	122.720000
2219.523915	122.920000
2221.135214	121.780000
2222.744523	121.420000
2224.355196	118.560000
2225.963880	117.900000
2227.572252	115.290000
2229.178636	120.140000
2230.786384	118.680000
2232.392145	118.980000
2233.997595	116.950000
2235.601060	114.660000
2237.205889	111.680000
2238.808733	117.940000
2240.409594	116.960000
2242.011818	117.480000
2243.612059	116.350000
2245.213663	121.450000
2246.811615	121.250000
2248.410929	120.090000
2250.008263	115.210000
2251.605288	120.330000
2253.203676	117.900000
2254.798415	117.770000
2256.391177	118.370000
2257.985302	123.150000
2259.580788	122.520000
2261.172630	120.950000
2262.764165	119.230000
2264.357061	121.170000
2265.944648	118.620000
2267.536932	122.400000
2269.123908	122.970000
2270.713913	124.290000
2272.298613	121.420000
2273.888007	120.940000
2275.472098	114.060000
2277.057551	120.990000
2278.641034	112.370000
2280.227544	121.800000
2281.810420	106.670000
2283.392992	117.130000
2284.975261	109.040000
2286.553901	113.510000
2288.135564	109.650000
2289.713599	117.470000
2291.294657	115.100000
2292.872089	111.495000
2294.447556	107.890000
2296.026046	111.370000
2297.600912	116.460000
2299.175477	111.180000
2300.749742	109.190000
2302.323706	115.540000
2303.897370	110.260000
2305.470733	117.900000
2307.040478	110.620000
2308.609924	109.980000
2310.182389	107.810000
2311.749578	112.380000
2313.319786	109.130000
2314.886379	110.970000
2316.454332	112.020000
2318.020330	110.210000
2319.586029	113.860000
2321.151432	113.270000
2322.714881	108.600000
2324.279688	118.560000
2325.840888	114.250000
2327.405102	122.920000
2328.964055	120.180000
2330.526021	127.560000
2332.086037	112.880000
2333.645757	110.940000
2335.203528	112.320000
2336.761005	108.330000
2338.318186	110.160000
2339.873421	109.440000
2341.428361	112.380000
2342.983008	110.250000
2344.537361	110.610000
2346.091420	112.210000
2347.645185	107.290000
2349.197007	112.670000
2350.746885	113.020000
2352.299771	115.770000
2353.847415	115.710000
2355.398066	114.200000
2356.945127	119.750000
2358.493545	112.430000
2360.041671	116.280000
2361.586210	120.470000
2363.132106	121.260000
2364.676063	116.760000
2366.221378	116.160000
2367.763108	115.130000
2369.306195	114.800000
2370.847347	114.260000
2372.388209	107.920000
2373.928782	112.870000
2375.469066	107.450000
2377.009061	113.640000
2378.545477	112.870000
2380.084895	116.900000
2381.620736	115.240000
2383.157933	114.350000
2384.691555	118.650000
2386.228178	114.870000
2387.762869	106.580000
2389.295631	117.470000
2390.828107	115.960000
2392.358654	113.210000
2393.892199	110.140000
2395.420533	116.410000
2396.950223	112.690000
2398.479628	112.490000
2400.008747	108.170000
2401.537582	113.100000
2403.061211	117.400000
2404.589477	122.490000
2406.112539	111.230000
2407.640235	115.680000
2409.161092	113.330000
2410.686582	118.970000
2412.208511	118.200000
2413.731796	117.500000
2415.253160	119.980000
2416.772604	114.170000
2418.293403	114.710000
2419.812283	120.520000
2421.330881	123.610000
2422.847562	124.030000
2424.365597	119.970000
2425.883351	128.520000
2427.397554	130.030000
2428.911476	127.060000
2430.425118	119.500000
2431.940115	131.960000
2433.451563	131.640000
2434.964366	134.800000
2436.475256	137.730000
2437.985866	132.370000
2439.494565	137.330000
2441.006251	136.610000
2442.514392	143.560000
2444.022256	152.870000
2445.529842	146.540000
2447.033887	155.820000
2448.540918	150.250000
2450.046040	151.520000
2451.550885	153.430000
2453.053823	153.130000
2454.556484	159.660000
2456.058869	149.130000
2457.559349	156.950000
2459.061182	157.200000
2460.561111	147.880000
2462.060764	156.060000
2463.560141	150.060000
2465.057616	140.900000
2466.553190	137.600000
2468.051743	140.730000
2469.546767	138.730000
2471.043145	129.520000
2472.535996	131.130000
2474.030199	127.710000
2475.524129	127.290000
2477.014536	125.270000
2478.507919	131.550000
2479.999405	129.630000
2481.488994	126.120000
2482.978311	133.970000
2484.465733	127.830000
2485.956130	125.610000
2487.443008	132.040000
2488.931238	130.130000
2490.415952	125.020000
2491.900395	131.090000
2493.386190	122.830000
2494.870092	113.640000
2496.355346	120.460000
2497.835466	113.810000
2499.318558	110.720000
2500.799760	121.980000
2502.280693	110.410000
2503.759737	111.550000
2505.238512	114.960000
2506.717019	110.510000
2508.195258	111.930000
2509.673228	111.890000
2511.147694	109.080000
2512.625128	118.650000
2514.099059	110.410000
2515.574341	115.350000
2517.049355	104.760000
2518.520868	111.420000
2519.993732	111.770000
2521.464712	112.730000
2522.937043	112.390000
2524.404261	115.040000
2525.874444	111.100000
2527.342747	107.570000
2528.810785	109.790000
2530.278558	108.710000
2531.746066	104.520000
2533.213309	105.790000
2534.677060	112.020000
2536.142161	113.940000
2537.605385	106.340000
2539.069959	113.310000
2540.531043	114.880000
2541.993477	108.540000
2543.455648	109.870000
2544.914333	115.110000
2546.377590	116.420000
2547.835750	115.640000
2549.295259	120.230000
2550.749675	124.840000
2552.208660	119.300000
2553.665774	123.360000
2555.121017	119.010000
2556.575999	120.220000
2558.029111	117.490000
2559.483572	119.390000
2560.936164	113.490000
2562.388496	120.020000
2563.838960	124.790000
2565.292380	122.190000
2566.740718	121.850000
2568.192012	118.930000
2569.641439	123.270000
2571.087395	125.480000
2572.536305	126.340000
2573.981744	125.090000
2575.428532	120.900000
2576.873456	123.280000
2578.318123	123.820000
2579.764137	125.300000
2581.206684	127.900000
2582.650579	126.550000
2584.091009	128.860000
2585.532787	126.940000
2586.972704	122.330000
2588.413969	123.570000
2589.851773	123.010000
2591.292526	129.750000
2592.728216	125.290000
2594.166856	129.900000
2595.603639	121.620000
2597.038565	127.310000
2598.476440	117.850000
2599.909256	126.930000
2601.343420	122.080000
2602.775730	131.820000
2604.209386	123.650000
2605.641189	123.350000
2607.072739	125.400000
2608.504035	122.070000
2609.933479	127.030000
2611.362672	127.750000
2612.790013	123.900000
2614.218701	127.480000
2615.647136	128.260000
2617.072124	130.190000
2618.498459	132.820000
2619.922945	139.740000
2621.348777	138.450000
2622.771165	140.850000
2624.194899	150.120000
2625.616786	146.600000
2627.038424	148.510000
2628.458216	154.270000
2629.879354	156.810000
2631.300242	163.500000
2632.717692	164.210000
2634.138081	175.820000
2635.555033	168.220000
2636.971737	179.240000
2638.388192	181.480000
2639.804399	191.870000
2641.220357	189.840000
2642.634475	189.040000
2644.048346	197.150000
2645.460377	203.400000
2646.873753	210.030000
2648.283699	225.680000
2649.696580	243.020000
2651.106034	243.450000
2652.515241	261.040000
2653.922612	268.060000
2655.332917	283.980000
2656.741386	307.720000
2658.148020	326.140000
2659.554409	343.160000
2660.958964	364.590000
2662.364863	392.100000
2663.768929	412.960000
2665.172751	435.080000
2666.576328	461.180000
2667.978073	498.740000
2669.381162	534.800000
2670.780834	570.000000
2672.181848	593.960000
2673.579447	632.110000
2674.979976	661.960000
2676.377090	696.250000
2677.775547	724.630000
2679.172176	739.160000
2680.568563	761.500000
2681.964709	785.630000
2683.359028	791.340000
2684.754690	800.270000
2686.146942	789.450000
2687.540538	791.050000
2688.932309	788.820000
2690.325422	764.850000
2691.716712	761.150000
2693.106179	746.470000
2694.495406	718.240000
2695.884394	698.300000
2697.274724	689.160000
2698.660069	668.710000
2700.048338	636.120000
2701.434787	618.530000
2702.820997	596.680000
2704.206969	565.860000
2705.589541	545.760000
2706.973456	516.420000
2708.357133	483.360000
2709.740572	462.410000
2711.120615	430.270000
2712.502000	406.470000
2713.881569	384.060000
2715.262480	360.020000
2716.641576	345.140000
2718.018857	316.900000
2719.397480	309.890000
2720.774290	291.450000
2722.150864	267.260000
2723.527202	260.640000
2724.901728	242.270000
2726.277595	230.580000
2727.650075	221.410000
2729.025472	212.160000
2730.395907	201.880000
2731.767684	197.600000
2733.139226	187.770000
2734.508960	182.150000
2735.880035	178.290000
2737.249302	173.030000
2738.618335	174.600000
2739.985561	166.100000
2741.352555	163.790000
2742.719316	156.320000
2744.085844	151.870000
2745.450567	151.940000
2746.815059	152.550000
2748.179318	146.910000
2749.543345	147.730000
2750.907141	144.420000
2752.267563	139.200000
2753.630896	138.700000
2754.989286	129.940000
2756.350586	125.590000
2757.708515	125.950000
2759.069354	121.540000
2760.428392	121.140000
2761.784062	125.640000
2763.142640	119.970000
2764.497852	123.340000
2765.852834	119.870000
2767.206019	120.570000
2768.562111	112.910000
2769.914839	114.420000
2771.267338	115.900000
2772.619609	119.510000
2773.973219	118.710000
2775.323467	116.880000
2776.671922	114.690000
2778.023281	122.670000
2779.371281	115.170000
2780.720620	112.920000
2782.068166	115.650000
2783.415485	112.040000
2784.762578	114.800000
2786.107880	115.080000
2787.452956	110.390000
2788.797806	110.910000
2790.142429	112.890000
2791.483701	114.700000
2792.826311	117.890000
2794.168695	119.630000
2795.510855	114.710000
2796.849665	116.830000
2798.191374	123.630000
2799.529736	116.460000
2800.869435	114.870000
2802.207348	121.470000
2803.543477	116.450000
2804.879382	114.310000
2806.216625	118.260000
2807.552084	121.670000
2808.887320	120.350000
2810.220773	119.600000
2811.555564	122.700000
2812.887013	120.300000
2814.221358	116.720000
2815.550805	119.060000
2816.881589	117.950000
2818.212151	111.000000
2819.540934	112.490000
2820.871053	117.860000
2822.199394	114.560000
2823.527514	110.170000
2824.853857	108.210000
2826.181535	116.550000
2827.505881	115.280000
2828.831562	109.880000
2830.155468	103.780000
2831.479155	104.970000
2832.804177	100.390000
2834.125869	101.370000
2835.447343	105.910000
2836.768598	100.570000
2838.089634	104.640000
2839.408898	103.630000
2840.729497	103.730000
2842.048324	109.180000
2843.366933	101.860000
2844.683772	102.130000
2846.000393	95.730000
2847.316796	103.590000
2848.631431	102.630000
2849.947400	98.600000
2851.260049	100.540000
2852.574034	99.410000
2853.887801	102.550000
2855.201353	94.660000
2856.513137	95.990000
2857.823156	101.200000
2859.134508	100.750000
2860.442546	102.160000
2861.751919	104.110000
2863.061076	108.400000
2864.370018	95.760000
2865.677197	102.410000
2866.982612	100.510000
2868.289362	95.170000
2869.594349	95.660000
2870.899123	103.170000
2872.202135	99.810000
2873.508029	98.730000
2874.809067	99.790000
2876.111440	94.560000
2877.412053	94.000000
2878.714000	93.780000
2880.015734	95.930000
2881.314163	95.850000
2882.613927	89.730000
2883.911932	100.790000
2885.209726	92.740000
2886.505764	94.220000
2887.803135	90.130000
2889.098750	92.300000
2890.394154	85.150000
2891.689348	92.800000
2892.981243	90.160000
2894.276015	95.210000
2895.567490	88.890000
2896.860298	96.620000
2898.152896	90.050000
2899.442200	88.570000
2900.732836	89.520000
2902.021721	93.200000
2903.311939	91.720000
2904.598865	94.900000
2905.887123	89.090000
2907.173631	93.080000
2908.459932	86.770000
2909.746024	98.900000
2911.030368	90.370000
2912.317584	93.850000
2913.599972	93.570000
2914.883693	93.700000
2916.165668	93.280000
2917.447436	92.350000
2918.727458	89.490000
2920.010350	86.820000
2921.291497	90.840000
2922.569362	90.430000
2923.850096	90.230000
2925.127549	93.670000
2926.404797	87.860000
2927.680302	90.850000
2928.958675	88.580000
2930.232233	91.700000
2931.508659	82.230000
2932.783344	91.130000
2934.056289	85.450000
2935.330564	83.910000
2936.603100	86.650000
2937.875432	88.900000
2939.144490	86.290000
2940.416414	89.430000
2941.686600	89.030000
2942.956583	90.840000
2944.226362	84.570000
2945.494404	87.850000
2946.760711	85.390000
2948.026815	90.170000
2949.294249	91.850000
2950.559949	81.210000
2951.825446	81.590000
2953.090741	86.440000
2954.352771	85.630000
2955.616132	83.110000
2956.879290	82.730000
2958.140717	82.990000
2959.403473	82.200000
2960.664498	85.460000
2961.923791	81.170000
2963.182885	82.890000
2964.441778	84.800000
2965.700471	80.800000
2966.958964	84.380000
2968.215728	88.750000
2969.472292	79.890000
2970.727129	86.940000
2971.983295	81.400000
2973.236205	86.290000
2974.490445	83.690000
2975.744486	81.370000
2976.996801	83.120000
2978.248918	87.870000
2979.499310	86.540000
2980.752557	86.980000
2982.001027	83.960000
2983.252351	85.150000
2984.500427	82.130000
2985.748305	86.650000
2986.995986	81.490000
2988.243471	76.420000
2989.489234	85.000000
2990.734800	77.160000
2991.981694	79.780000
2993.225344	85.500000
2994.470322	82.390000
2995.712057	80.600000
2996.956643	82.130000
2998.199509	82.130000
2999.439135	83.010000
3000.681612	81.990000
3001.920848	73.190000
3003.161412	83.560000
3004.400259	79.130000
3005.638912	86.390000
3006.875849	78.970000
3008.114113	77.410000
3009.350663	79.790000
3010.587018	80.600000
3011.823180	83.910000
3013.057629	74.260000
3014.291884	77.260000
3015.525946	80.700000
3016.758296	79.470000
3017.988934	84.520000
3019.222418	79.120000
3020.454190	75.750000
3021.684252	79.430000
3022.914122	78.470000
3024.142282	74.850000
3025.371768	77.210000
3026.599546	78.150000
3027.827132	78.710000
3029.056044	75.220000
3030.280214	80.400000
3031.507227	72.840000
3032.731016	81.190000
3033.956132	75.750000
3035.179541	80.870000
3036.402761	80.840000
3037.624275	73.160000
3038.848630	74.740000
3040.068250	81.060000
3041.289195	76.600000
3042.509952	69.180000
3043.729005	78.310000
3044.949384	79.190000
3046.166546	81.140000
3047.385033	76.870000
3048.601819	72.650000
3049.818416	75.400000
3051.034826	76.040000
3052.248022	79.490000
3053.464056	75.580000
3054.676878	79.230000
3055.892537	77.270000
3057.103473	81.440000
3058.315734	75.230000
3059.527809	83.220000
3060.739697	79.110000
3061.949887	78.080000
3063.159891	78.170000
3064.369710	74.220000
3065.577832	74.610000
3066.785768	75.050000
3067.992010	73.300000
3069.199575	75.430000
3070.405447	76.365000
3071.611133	77.300000
3072.816634	71.660000
3074.020442	72.750000
3075.225574	70.760000
3076.429014	78.790000
3077.630761	71.910000
3078.832325	70.370000
3080.033705	68.900000
3081.234901	66.520000
3082.434407	67.380000
3083.633729	67.770000
3084.834375	68.740000
3086.033332	68.820000
3087.229093	68.510000
3088.427684	69.700000
3089.623081	67.090000
3090.819801	66.140000
3092.013329	66.370000
3093.209686	66.370000
3094.404355	69.540000
3095.595834	72.150000
3096.791644	67.680000
3097.982761	70.510000
3099.175200	67.770000
3100.364452	65.550000
3101.556530	67.040000
3102.746923	72.740000
3103.934131	67.620000
3105.122662	66.040000
3106.312515	62.970000
3107.499183	68.700000
3108.685672	62.110000
3109.871981	63.240000
3111.059612	67.480000
3112.244062	70.950000
3113.426831	64.940000
3114.612424	67.250000
3115.796336	69.350000
3116.978570	69.700000
3118.160625	66.670000
3119.342503	65.190000
3120.524202	65.240000
3121.704223	70.310000
3122.882568	60.270000
3124.063734	74.900000
3125.241724	64.440000
3126.419537	67.720000
3127.597173	66.050000
3128.773134	59.100000
3129.948918	62.190000
3131.126024	60.990000
3132.301455	61.030000
3133.475213	65.170000
3134.647299	65.710000
3135.820705	63.400000
3136.993936	65.080000
3138.165494	64.150000
3139.338374	60.380000
3140.508086	67.220000
3141.679119	62.780000
3142.848481	66.750000
3144.016174	65.140000
3145.186682	68.270000
3146.352531	64.720000
3147.522690	65.250000
3148.688191	65.360000
3149.853519	65.870000
3151.018673	68.090000
3152.183653	67.820000
3153.349954	66.610000
3154.511601	70.530000
3155.674569	71.930000
3156.837363	70.510000
3157.999985	67.110000
3159.160942	64.370000
3160.321726	66.880000
3161.482338	62.400000
3162.641287	65.970000
3163.800063	75.310000
3164.958668	68.540000
3166.117101	69.690000
3167.275362	66.190000
3168.431961	69.160000
3169.586899	67.760000
3170.743156	70.820000
3171.897753	64.650000
3173.052178	65.280000
3174.204944	70.330000
3175.357540	62.400000
3176.509965	64.520000
3177.662221	66.210000
3178.814307	69.960000
3179.963246	67.570000
3181.114992	73.630000
3182.265080	66.750000
3183.413512	67.700000
3184.561775	63.250000
3185.709868	69.350000
3186.857793	66.120000
3188.004063	62.900000
3189.150164	61.960000
3190.294610	64.460000
3191.438889	62.470000
3192.583000	65.100000
3193.728429	62.350000
3194.870719	67.130000
3196.012841	63.960000
3197.154796	66.210000
3198.296585	69.010000
3199.438206	63.690000
3200.576691	66.400000
3201.716494	62.040000
3202.857615	60.030000
3203.995601	60.540000
3205.131938	57.580000
3206.268109	57.560000
3207.405598	64.300000
3208.541438	64.070000
3209.678594	59.710000
3210.811138	63.060000
3211.947964	66.030000
3213.080178	66.030000
3214.213710	62.540000
3215.347076	58.740000
3216.477315	64.680000
3217.610352	63.780000
3218.740263	58.500000
3219.871491	64.880000
3220.999593	67.650000
3222.130492	65.480000
3223.259748	65.650000
3224.387359	66.490000
3225.511849	69.220000
3226.640614	63.930000
3227.766257	66.090000
3228.891737	71.420000
3230.015576	76.490000
3231.142209	69.410000
3232.264245	78.310000
3233.387597	76.790000
3234.510787	81.860000
3235.633815	82.220000
3236.755203	83.850000
3237.876430	73.780000
3238.996018	83.870000
3240.115445	78.190000
3241.233234	86.140000
3242.353816	76.180000
3243.471283	81.190000
3244.588591	77.580000
3245.705737	76.580000
3246.821248	74.120000
3247.938074	82.160000
3249.051789	75.480000
3250.168295	80.490000
3251.283165	73.460000
3252.394927	69.090000
3253.506530	71.020000
3254.619447	72.770000
3255.732206	66.820000
3256.841858	64.380000
3257.952825	62.100000
3259.063632	63.100000
3260.172809	65.970000
3261.280354	61.910000
3262.389214	65.980000
3263.497915	63.680000
3264.603514	62.040000
3265.710428	59.110000
3266.815712	62.990000
3267.922310	64.210000
3269.025808	59.600000
3270.130620	61.130000
3271.235275	59.930000
3272.336831	68.810000
3273.438232	55.820000
3274.540946	58.100000
3275.643503	61.440000
3276.742965	61.060000
3277.845209	57.830000
3278.944359	57.020000
3280.041883	50.990000
3281.139252	53.650000
3282.239404	51.330000
3283.336462	55.050000
3284.433365	52.190000
3285.530114	57.100000
3286.622303	49.420000
3287.718741	51.960000
3288.813558	50.370000
3289.908219	55.940000
3291.001259	49.850000
3292.094145	54.000000
3293.185410	47.650000
3294.277988	51.190000
3295.368945	52.180000
3296.458283	56.280000
3297.547468	55.250000
3298.637966	54.860000
3299.725379	52.270000
3300.812640	47.830000
3301.901213	53.270000
3302.989633	56.550000
3304.073506	53.690000
3305.161621	60.150000
3306.246655	48.530000
3307.330072	57.290000
3308.414802	50.320000
3309.497917	50.600000
3310.582343	51.710000
3311.663691	55.140000
3312.746351	57.290000
3313.827397	53.470000
3314.908292	50.870000
3315.987574	50.940000
3317.066705	51.570000
3318.147147	55.170000
3319.224516	56.480000
3320.303196	49.800000
3321.380264	49.820000
3322.457182	52.270000
3323.532489	52.330000
3324.607647	49.870000
3325.684116	50.810000
3326.757515	52.630000
3327.830765	51.200000
3328.905326	52.030000
3329.978277	53.000000
3331.049621	50.890000
3332.122275	46.030000
3333.191862	54.780000
3334.262760	55.200000
3335.332051	50.110000
3336.402653	52.250000
3337.471648	52.310000
3338.539037	51.550000
3339.604821	54.080000
3340.674831	48.620000
3341.741778	51.770000
3342.805663	49.820000
3343.872316	55.740000
3344.937364	53.830000
3346.000810	47.420000
3347.064108	51.070000
3348.127261	49.000000
3349.190267	51.620000
3350.253126	48.010000
3351.314384	49.530000
3352.372585	49.170000
3353.435007	50.190000
3354.494372	55.020000
3355.553592	52.120000
3356.614122	47.810000
3357.670142	52.950000
3358.728927	51.250000
3359.783204	52.290000
3360.840244	50.820000
3361.895687	49.440000
3362.952438	44.640000
3364.007592	48.750000
3365.061148	52.710000
3366.113107	48.220000
3367.167828	50.910000
3368.219500	52.940000
3369.271029	49.130000
3370.323867	45.110000
3371.373657	45.160000
3372.424755	53.440000
3373.472808	54.230000
3374.523621	50.390000
3375.571388	50.640000
3376.619013	50.720000
3377.666495	50.420000
3378.712385	47.050000
3379.759583	47.730000
3380.803739	51.030000
3381.850653	51.420000
3382.895975	55.580000
3383.938257	55.080000
3384.980397	51.550000
3386.023845	54.900000
3387.067153	56.990000
3388.108870	50.640000
3389.150446	53.320000
3390.191882	56.410000
3391.231728	46.570000
3392.269987	56.100000
3393.309553	49.020000
3394.348978	49.410000
3395.386817	50.350000
3396.423068	50.890000
3397.459179	46.330000
3398.496598	51.130000
3399.530984	43.970000
3400.566677	53.440000
3401.602231	47.970000
3402.634754	49.420000
3403.670030	45.070000
3404.702275	49.360000
3405.734382	47.190000
3406.764905	46.980000
3407.796736	51.130000
3408.828427	41.830000
3409.857092	45.270000
3410.885618	47.880000
3411.915452	45.680000
3412.945147	53.010000
3413.971817	49.410000
3414.999794	47.850000
3416.024746	48.810000
3417.052448	47.450000
3418.077127	45.410000
3419.103112	50.800000
3420.127517	49.320000
3421.151786	44.510000
3422.174476	41.980000
3423.197030	48.560000
3424.220890	50.880000
3425.241730	43.640000
3426.262435	46.130000
3427.284445	44.840000
3428.303437	47.530000
3429.322294	47.220000
3430.342456	43.670000
3431.359602	42.170000
