-118.106446	-0.140000
-115.436846	0.960000
-112.770181	6.760000
-110.104268	1.070000
-107.441287	-1.700000
-104.776877	4.325000
-102.115397	1.505000
-99.452487	2.995000
-96.794685	2.005000
-94.135452	3.255000
-91.476968	3.330000
-88.821409	1.045000
-86.164421	4.540000
-83.512530	1.045000
-80.859210	1.640000
-78.208810	0.870000
-75.556980	0.305000
-72.910241	4.745000
-70.262072	2.335000
-67.614647	4.975000
-64.970135	2.535000
-62.324195	2.150000
-59.683336	1.785000
-57.041048	2.110000
-54.401668	5.170000
-51.760860	1.650000
-49.120792	3.055000
-46.485796	4.245000
-43.849371	3.960000
-41.215850	4.775000
-38.580900	1.175000
-35.951015	0.530000
-33.317538	5.900000
-30.689123	4.110000
-28.061441	3.410000
-25.432332	-0.685000
-22.808279	6.190000
-20.180637	5.140000
-17.558048	2.365000
-14.936191	8.545000
-12.315064	10.580000
-9.694667	30.790000
-7.077158	85.135000
-4.458221	253.825000
-1.842170	591.585000
0.773153	651.975000
3.387749	364.135000
5.999462	46.905000
8.612604	10.900000
11.220712	7.735000
13.832402	10.555000
16.439061	6.800000
19.047148	4.935000
21.654511	6.060000
24.256849	4.170000
26.862765	7.795000
29.463659	6.825000
32.065981	7.715000
34.663286	2.625000
37.264166	3.820000
39.860032	5.835000
42.457325	5.305000
45.053899	2.495000
47.645464	3.745000
50.238457	1.675000
52.828589	1.585000
55.420149	-0.100000
58.008849	7.770000
60.598976	4.785000
63.184105	3.440000
65.770660	2.770000
68.356502	4.050000
70.939490	4.595000
73.523905	4.820000
76.101190	4.935000
78.682042	4.705000
81.260045	5.345000
83.837338	3.780000
86.416057	6.440000
88.989795	8.695000
91.564959	6.815000
94.137280	8.995000
96.708893	3.425000
99.277666	5.900000
101.847866	5.810000
104.415228	6.150000
106.984015	4.535000
109.549966	9.640000
112.113082	5.870000
114.679754	10.535000
117.237205	19.595000
119.800341	30.840000
122.358518	64.385000
124.920248	135.865000
127.477023	233.330000
130.035223	264.280000
132.588471	229.360000
135.141020	203.320000
137.697120	229.280000
140.248273	273.805000
142.798727	329.750000
145.348485	369.820000
147.895423	396.540000
150.441665	397.045000
152.989333	387.895000
155.536306	382.385000
158.078342	362.680000
160.619685	368.115000
163.160335	382.390000
165.702411	408.100000
168.241676	435.995000
170.778131	471.690000
173.313896	511.140000
175.851086	560.140000
178.387584	624.835000
180.921277	712.720000
183.452167	811.865000
185.982368	949.105000
188.513994	1129.840000
191.042819	1378.250000
193.568845	1676.905000
196.094186	2038.295000
198.620951	2448.335000
201.144919	2855.120000
203.668203	3167.760000
206.190802	3307.445000
208.710608	3228.550000
211.229731	2948.885000
213.748171	2566.880000
216.268035	2172.410000
218.780898	1795.700000
221.297292	1496.110000
223.813004	1258.035000
226.323827	1072.280000
228.836074	929.315000
231.345538	809.795000
233.854324	719.230000
236.362432	651.200000
238.871963	592.610000
241.376615	548.550000
243.880590	512.185000
246.385989	492.155000
248.886513	468.435000
251.390560	455.835000
253.887637	442.860000
256.388236	454.575000
258.886064	503.960000
261.383219	618.020000
263.879701	727.745000
266.371320	699.195000
268.866459	524.270000
271.358832	378.090000
273.850534	314.220000
276.339473	287.400000
278.829835	263.710000
281.317436	254.690000
283.802277	241.370000
286.290632	237.530000
288.772048	227.045000
291.256978	221.765000
293.737063	224.600000
296.220660	218.180000
298.699414	219.000000
301.179592	214.095000
303.657017	212.070000
306.133779	215.680000
308.609878	212.160000
311.083228	212.810000
313.555916	215.560000
316.027943	221.570000
318.499309	230.375000
320.967931	232.995000
323.435893	230.025000
325.905278	225.885000
328.369840	222.780000
330.837905	224.040000
333.301151	222.515000
335.763740	230.120000
338.225671	235.555000
340.686946	246.480000
343.145487	269.960000
345.605450	299.965000
348.062680	380.825000
350.519256	555.445000
352.975178	849.970000
355.428371	999.675000
357.882985	767.815000
360.332798	433.810000
362.786108	285.680000
365.234618	243.900000
367.682478	228.945000
370.131759	224.150000
372.576247	219.400000
375.022157	219.015000
377.467418	224.310000
379.909960	224.260000
382.351854	233.430000
384.793100	253.415000
387.231631	303.175000
389.671584	420.340000
392.108823	593.300000
394.543350	644.205000
396.981365	505.485000
399.414603	399.390000
401.849263	412.160000
404.279149	404.005000
406.712521	329.170000
409.141123	276.440000
411.569084	260.625000
413.998465	264.040000
416.423081	263.510000
418.849119	268.055000
421.274516	269.440000
423.699273	284.350000
426.119272	294.955000
428.540692	310.890000
430.959415	320.595000
433.379559	347.110000
435.797008	378.390000
438.215877	418.325000
440.632053	471.250000
443.043482	564.050000
445.458387	681.350000
447.870602	858.240000
450.282183	1136.020000
452.693130	1603.970000
455.101391	2455.600000
457.509019	4046.910000
459.916016	6856.925000
462.322380	10365.980000
464.726062	12345.155000
467.129114	10695.320000
469.531536	7099.015000
471.933329	4288.840000
474.332443	2780.725000
476.732977	1974.860000
479.132882	1522.105000
481.528064	1233.020000
483.926713	1048.550000
486.320642	902.875000
488.713945	806.875000
491.106622	732.840000
493.498674	668.775000
495.892145	617.710000
498.280903	567.970000
500.666995	539.010000
503.054507	527.665000
505.441395	564.480000
507.825620	630.365000
510.211264	642.750000
512.594245	547.810000
514.974566	455.730000
517.356306	407.840000
519.735387	378.045000
522.115887	359.460000
524.493729	345.215000
526.868916	335.580000
529.243485	331.025000
531.619473	325.180000
533.992807	316.585000
536.367559	313.165000
538.737626	308.980000
541.107077	299.620000
543.477946	294.570000
545.844135	293.095000
548.211742	288.395000
550.576703	279.365000
552.941051	271.695000
555.304787	261.510000
557.669940	258.480000
560.030420	252.590000
562.392319	249.765000
564.751578	248.565000
567.108198	243.455000
569.468263	247.965000
571.821638	241.645000
574.178457	237.945000
576.532640	239.655000
578.886216	236.030000
581.239183	243.295000
583.589519	237.780000
585.941271	235.145000
588.286347	236.825000
590.636887	236.630000
592.980754	238.190000
595.330081	238.205000
597.674761	236.650000
600.016815	233.275000
602.360287	230.630000
604.701136	231.970000
607.041383	224.400000
609.379009	224.065000
611.720070	221.320000
614.056494	219.965000
616.394334	217.840000
618.729556	220.745000
621.062163	219.015000
623.396186	220.410000
625.727596	221.425000
628.058407	219.590000
630.388620	220.330000
632.718235	214.820000
635.043228	215.790000
637.373662	220.635000
639.699474	212.595000
642.022680	217.750000
644.347301	215.830000
646.669318	216.540000
648.990740	216.775000
651.309559	218.225000
653.629794	215.140000
655.949436	209.110000
658.266477	205.310000
660.582926	210.245000
662.896778	207.755000
665.212044	205.605000
667.524714	203.480000
669.838799	208.675000
672.148284	216.355000
674.459185	213.110000
676.767493	218.285000
679.075213	219.545000
681.384348	222.705000
683.688890	227.035000
685.992845	238.495000
688.296215	259.355000
690.600999	285.340000
692.901197	327.830000
695.202809	351.010000
697.503837	345.925000
699.800282	304.280000
702.098143	273.065000
704.395420	241.325000
706.692114	233.615000
708.984232	223.520000
711.279761	215.045000
713.570717	214.500000
715.863087	214.215000
718.152881	215.260000
720.442096	208.840000
722.730730	210.835000
725.016793	211.070000
727.304269	211.365000
729.589175	213.780000
731.873502	208.750000
734.155261	213.290000
736.438434	209.205000
738.721030	211.320000
740.999071	206.650000
743.278525	212.985000
745.557404	208.530000
747.835707	209.045000
750.109461	212.395000
752.384629	213.255000
754.659223	212.225000
756.931258	211.225000
759.204705	212.750000
761.475595	212.870000
763.743929	213.180000
766.013676	214.275000
768.280869	214.910000
770.547491	219.940000
772.813544	217.005000
775.077044	218.690000
777.341958	217.520000
779.606302	220.385000
781.866117	221.635000
784.127345	228.635000
786.388005	230.850000
788.646118	241.750000
790.901687	250.025000
793.160647	261.370000
795.413108	271.955000
797.670936	283.015000
799.924244	299.285000
802.175013	335.415000
804.427194	393.175000
806.676837	480.580000
808.927891	514.880000
811.174434	470.745000
813.422389	386.010000
815.667810	318.925000
817.914642	281.615000
820.160913	261.260000
822.402680	249.355000
824.647829	243.790000
826.886506	241.355000
829.128566	237.870000
831.366127	229.710000
833.605099	231.855000
835.841545	231.280000
838.079402	233.585000
840.314735	230.195000
842.547543	231.390000
844.781763	230.340000
847.013461	230.330000
849.244604	229.060000
851.475192	227.060000
853.705226	230.185000
855.934705	225.005000
858.159703	225.010000
860.388076	223.330000
862.611970	222.195000
864.837274	218.405000
867.058103	221.765000
869.282304	220.550000
871.502032	216.325000
873.723171	219.705000
875.943759	218.510000
878.161837	216.635000
880.381326	224.075000
882.596348	222.640000
884.810822	223.835000
887.024749	228.905000
889.238128	227.025000
891.450960	225.320000
893.663246	222.040000
895.873029	229.245000
898.082267	224.185000
900.290960	227.670000
902.497154	222.340000
904.704757	224.325000
906.909863	218.205000
909.114425	218.735000
911.316491	224.125000
913.519967	224.095000
915.720949	226.040000
917.921390	219.145000
920.123239	221.575000
922.318696	229.940000
924.517513	225.455000
926.711891	225.510000
928.909627	220.865000
931.102927	218.600000
933.297636	221.295000
935.489859	220.120000
937.681544	218.280000
939.872691	215.705000
942.061355	219.890000
944.249482	214.270000
946.435129	210.900000
948.624128	218.790000
950.808704	213.270000
952.992745	217.650000
955.180136	217.950000
957.359223	217.005000
959.541661	215.555000
961.723565	217.230000
963.902995	215.740000
966.079952	217.290000
968.258316	213.595000
970.438088	215.460000
972.611511	216.135000
974.788280	216.575000
976.960643	213.930000
979.134412	214.555000
981.303778	213.200000
983.476489	213.975000
985.646733	215.355000
987.816449	214.370000
989.985636	212.645000
992.150426	212.470000
994.318557	218.230000
996.482294	209.560000
998.647437	210.105000
1000.810122	210.470000
1002.972280	212.285000
1005.131982	214.045000
1007.291160	217.050000
1009.451744	214.410000
1011.609873	212.960000
1013.767478	218.945000
1015.924560	213.930000
1018.081119	213.570000
1020.233298	214.100000
1022.386883	213.410000
1024.539947	210.335000
1026.690563	213.410000
1028.842584	215.810000
1030.990232	217.885000
1033.141212	212.575000
1035.287821	214.770000
1037.433912	219.275000
1039.579483	215.145000
1041.726460	215.905000
1043.867149	219.545000
1046.011166	217.790000
1048.152743	215.870000
1050.293804	221.070000
1052.436269	221.190000
1054.572455	221.355000
1056.711967	226.145000
1058.847123	229.090000
1060.985604	238.365000
1063.119731	236.735000
1065.253345	242.820000
1067.388364	245.380000
1069.519033	241.370000
1071.651107	235.220000
1073.780752	243.880000
1075.909885	249.515000
1078.038506	269.960000
1080.166616	287.070000
1082.292300	289.250000
1084.417474	276.885000
1086.544052	254.360000
1088.666293	236.470000
1090.789937	229.480000
1092.909248	222.050000
1095.033787	223.495000
1097.152081	216.340000
1099.271780	218.410000
1101.389060	220.280000
1103.505834	217.145000
1105.622101	217.755000
1107.735953	214.020000
1109.851208	209.905000
1111.962141	216.890000
1114.076385	211.420000
1116.186309	212.205000
1118.297637	212.365000
1120.408460	215.020000
1122.514968	207.680000
1124.624784	213.420000
1126.730286	213.255000
1128.837191	212.425000
1130.937881	214.660000
1133.043783	220.570000
1135.145376	219.065000
1137.248372	225.635000
1139.350867	228.405000
1141.447155	228.195000
1143.548651	235.375000
1145.645844	244.950000
1147.742538	255.650000
1149.838734	270.945000
1151.934433	301.390000
1154.029634	352.050000
1156.122438	416.285000
1158.216644	485.405000
1160.304659	518.615000
1162.397872	493.260000
1164.484897	416.610000
1166.575221	335.750000
1168.661258	284.090000
1170.750592	258.055000
1172.833745	242.110000
1174.918301	229.945000
1177.004257	223.885000
1179.085932	221.655000
1181.169009	218.235000
1183.249700	216.095000
1185.329899	214.460000
1187.409607	214.180000
1189.488824	213.065000
1191.565659	215.045000
1193.640113	211.160000
1195.717859	217.050000
1197.791334	212.975000
1199.866210	213.660000
1201.936819	215.385000
1204.008830	213.565000
1206.078464	212.950000
1208.149499	214.475000
1210.220046	213.250000
1212.286332	212.275000
1214.354019	213.085000
1216.419334	209.955000
1218.486049	214.485000
1220.548508	212.925000
1222.614252	217.355000
1224.675743	222.335000
1226.738633	224.195000
1228.799156	219.350000
1230.859195	222.660000
1232.918752	225.945000
1234.975943	218.805000
1237.032653	214.085000
1239.087000	214.075000
1241.144627	214.165000
1243.199892	210.135000
1245.250916	209.470000
1247.303340	208.030000
1249.355284	208.780000
1251.404870	215.025000
1253.453977	211.570000
1255.502606	210.170000
1257.550756	210.135000
1259.598428	208.215000
1261.641869	212.065000
1263.688585	206.565000
1265.732948	206.860000
1267.776835	205.345000
1269.818371	207.030000
1271.857557	204.785000
1273.900015	205.375000
1275.938251	210.220000
1277.977886	206.330000
1280.017046	203.860000
1282.051987	206.175000
1284.088328	206.355000
1286.122323	207.840000
1288.157717	200.535000
1290.188897	205.315000
1292.221476	200.510000
1294.253582	207.825000
1296.283348	201.460000
1298.314512	203.010000
1300.341468	202.005000
1302.369822	200.930000
1304.393972	202.480000
1306.421386	200.255000
1308.444598	200.595000
1310.469208	205.965000
1312.491484	203.935000
1314.515157	205.425000
1316.536497	198.450000
1318.557369	196.910000
1320.577775	201.015000
1322.593986	201.425000
1324.611596	198.320000
1326.626877	200.815000
1328.645416	199.720000
1330.659767	201.270000
1332.671792	197.485000
1334.687074	201.860000
1336.698171	200.945000
1338.710665	195.640000
1340.718976	200.420000
1342.730543	201.260000
1344.736070	200.405000
1346.744853	200.460000
1348.749458	199.645000
1350.757317	199.750000
1352.764714	199.890000
1354.766080	198.665000
1356.768843	199.685000
1358.771145	203.130000
1360.772988	194.660000
1362.774371	199.035000
1364.773441	196.855000
1366.772052	195.135000
1368.770205	194.995000
1370.767900	192.440000
1372.761431	196.110000
1374.756359	194.590000
1376.750830	192.785000
1378.744844	195.860000
1380.736551	192.750000
1382.727802	192.455000
1384.716748	193.485000
1386.707089	195.415000
1388.696975	189.830000
1390.684558	197.650000
1392.671686	190.060000
1394.656514	193.185000
1396.642735	196.865000
1398.626657	192.930000
1400.610126	193.740000
1402.593143	191.050000
1404.573861	195.330000
1406.555975	193.450000
1408.535791	194.250000
1410.515157	194.025000
1412.490383	194.615000
1414.468849	194.475000
1416.445020	195.150000
1418.420743	195.665000
1420.396016	193.450000
1422.368998	193.100000
1424.341532	194.685000
1426.313619	194.110000
1428.285257	194.160000
1430.252767	194.055000
1432.225352	198.180000
1434.190130	197.205000
1436.159981	197.480000
1438.125707	197.235000
1440.092826	194.980000
1442.057662	195.860000
1444.018379	194.480000
1445.984163	190.775000
1447.943992	191.035000
1449.905214	192.790000
1451.867829	191.035000
1453.826329	197.225000
1455.784387	196.000000
1457.742002	197.025000
1459.699176	194.320000
1461.654074	196.830000
1463.610364	198.590000
1465.564380	191.280000
1467.517956	197.055000
1469.469259	193.270000
1471.421954	191.655000
1473.372378	190.540000
1475.322363	190.935000
1477.271908	194.065000
1479.219185	191.810000
1481.164195	195.105000
1483.110596	189.140000
1485.056561	194.510000
1487.002087	193.060000
1488.945349	196.485000
1490.888174	195.690000
1492.828736	190.810000
1494.770689	193.955000
1496.710381	195.360000
1498.649637	192.745000
1500.588458	192.780000
1502.525020	192.670000
1504.462973	192.600000
1506.398668	191.180000
1508.333929	194.350000
1510.266933	191.830000
1512.199505	191.910000
1514.131645	190.360000
1516.063353	188.335000
1517.992807	192.960000
1519.923652	190.460000
1521.854066	189.125000
1523.780406	187.410000
1525.708138	191.190000
1527.633619	186.220000
1529.558671	189.530000
1531.483294	193.755000
1533.407488	190.785000
1535.329435	191.720000
1537.252771	191.055000
1539.173862	193.710000
1541.092708	190.340000
1543.012944	193.625000
1544.930936	191.165000
1546.848502	192.595000
1548.763826	193.595000
1550.680540	187.640000
1552.593199	191.815000
1554.509062	193.410000
1556.422685	197.365000
1558.334071	194.665000
1560.246845	192.235000
1562.155570	191.800000
1564.065685	196.335000
1565.975376	192.800000
1567.884643	192.715000
1569.791677	198.135000
1571.696478	198.995000
1573.602668	199.285000
1575.506626	197.160000
1577.410164	191.730000
1579.313280	193.715000
1581.214168	202.785000
1583.116443	197.235000
1585.016491	194.230000
1586.917926	194.140000
1588.815328	193.995000
1590.712311	191.485000
1592.608876	196.725000
1594.506829	187.265000
1596.398947	193.725000
1598.294258	189.430000
1600.189152	196.140000
1602.081824	196.720000
1603.974080	194.925000
1605.864115	194.655000
1607.753736	195.995000
1609.642940	190.280000
1611.531730	193.040000
1613.418303	191.650000
1615.306262	193.410000
1617.190205	195.230000
1619.075536	194.025000
1620.960452	195.425000
1622.843155	195.635000
1624.727245	192.880000
1626.607324	194.115000
1628.488789	191.050000
1630.368044	192.720000
1632.248685	189.200000
1634.123522	186.915000
1636.003341	190.435000
1637.879154	183.450000
1639.754557	186.250000
1641.631347	184.915000
1643.502339	183.180000
1645.376513	185.065000
1647.246689	189.320000
1649.120045	186.575000
1650.991198	188.060000
1652.860149	189.065000
1654.730486	187.990000
1656.596829	185.280000
1658.464558	188.525000
1660.330089	186.775000
1662.197004	183.490000
1664.059931	184.875000
1665.924243	181.350000
1667.786359	183.520000
1669.648071	181.210000
1671.511167	181.650000
1673.372069	181.320000
1675.230777	180.345000
1677.089082	182.760000
1678.948772	183.370000
1680.802695	177.720000
1682.659790	180.950000
1684.516483	181.775000
1686.369200	182.195000
1688.225087	178.750000
1690.077001	175.625000
1691.928514	180.820000
1693.779626	176.695000
1695.630338	175.080000
1697.480649	177.460000
1699.328776	174.885000
1701.178286	178.015000
1703.022048	177.205000
1704.870759	175.630000
1706.713725	171.190000
1708.559856	177.600000
1710.402026	175.760000
1712.247360	175.260000
1714.086954	173.355000
1715.927932	176.025000
1717.770293	173.565000
1719.608698	172.990000
1721.448486	169.240000
1723.286099	170.020000
1725.123316	169.280000
1726.958360	173.865000
1728.794787	171.405000
1730.629042	172.180000
1732.462902	170.290000
1734.296369	173.425000
1736.125889	168.570000
1737.958568	170.250000
1739.787303	173.095000
1741.619196	172.175000
1743.447146	172.720000
1745.274704	169.285000
1747.101870	167.800000
1748.928645	173.045000
1750.755029	171.605000
1752.577476	173.620000
1754.403077	171.150000
1756.224744	167.925000
1758.047793	170.830000
1759.868681	168.145000
1761.689179	169.300000
1763.511059	166.185000
1765.327239	162.135000
1767.146571	170.755000
1768.961976	173.060000
1770.780531	172.910000
1772.595161	173.130000
1774.409405	171.000000
1776.223261	174.245000
1778.036731	168.070000
1779.848048	167.065000
1781.660746	170.605000
1783.473057	170.395000
1785.281451	164.850000
1787.091226	171.660000
1788.897085	165.805000
1790.706090	166.255000
1792.511182	171.000000
1794.317655	168.500000
1796.123744	168.670000
1797.925923	168.255000
1799.731245	171.725000
1801.532659	166.700000
1803.335453	167.715000
1805.134341	169.535000
1806.934610	169.045000
1808.734497	170.180000
1810.532243	166.895000
1812.329607	166.970000
1814.126592	166.490000
1815.923196	168.210000
1817.717661	170.250000
1819.513505	170.780000
1821.303695	165.570000
1823.098781	166.100000
1824.888214	167.355000
1826.680784	162.880000
1828.471219	165.380000
1830.259520	164.540000
1832.050956	168.870000
1833.836746	165.830000
1835.623916	167.975000
1837.408954	167.820000
1839.197126	169.925000
1840.981412	160.595000
1842.763569	164.870000
1844.547104	165.465000
1846.328511	166.795000
1848.111297	165.810000
1849.890203	165.330000
1851.670487	164.830000
1853.448645	160.520000
1855.228182	162.600000
1857.005594	167.150000
1858.780882	165.935000
1860.557549	162.820000
1862.332092	163.755000
1864.108014	161.755000
1865.878316	164.525000
1867.651744	167.220000
1869.423053	164.590000
1871.193992	162.520000
1872.966307	161.355000
1874.733010	164.945000
1876.502837	165.775000
1878.268801	164.235000
1880.037889	164.465000
1881.803115	167.180000
1883.567972	160.835000
1885.334207	159.150000
1887.096583	161.745000
1888.858592	162.005000
1890.620233	160.810000
1892.381508	163.140000
1894.142415	158.955000
1895.902956	163.430000
1897.661387	162.010000
1899.419453	164.690000
1901.175410	159.750000
1902.932745	158.780000
1904.689713	160.020000
1906.444576	162.195000
1908.197333	155.510000
1909.949727	157.915000
1911.703496	154.530000
1913.455162	157.685000
1915.204726	161.230000
1916.955666	161.380000
1918.706242	157.105000
1920.452979	157.785000
1922.201093	158.465000
1923.947107	158.225000
1925.694497	157.720000
1927.439788	156.870000
1929.182982	157.985000
1930.927552	156.165000
1932.670025	154.405000
1934.412138	159.980000
1936.153891	159.055000
1937.895285	155.585000
1939.634585	161.125000
1941.373525	155.170000
1943.112108	159.045000
1944.848598	159.165000
1946.584731	159.580000
1948.322238	159.995000
1950.055923	158.860000
1951.790983	157.925000
1953.523955	157.660000
1955.256570	156.250000
1956.988828	157.025000
1958.720730	160.015000
1960.450546	156.820000
1962.178278	158.140000
1963.907383	153.530000
1965.636134	159.555000
1967.362801	159.865000
1969.089114	155.055000
1970.816800	156.410000
1972.538950	158.385000
1974.264201	155.205000
1975.985646	157.420000
1977.710190	155.430000
1979.432655	156.865000
1981.151316	161.315000
1982.873076	160.290000
1984.591034	155.680000
1986.310365	152.620000
1988.025897	156.800000
1989.746250	153.320000
1991.462803	151.430000
1993.175561	151.810000
1994.891414	158.955000
1996.605194	155.465000
1998.318625	156.375000
2000.029985	156.235000
2001.742718	153.650000
2003.451659	158.565000
2005.163694	156.600000
2006.870219	159.025000
2008.579837	159.020000
2010.287387	155.900000
2011.994590	159.195000
2013.699727	156.490000
2015.404517	158.360000
2017.110679	157.710000
2018.813059	156.450000
2020.516811	158.430000
2022.218499	154.870000
2023.919843	158.735000
2025.620841	160.115000
2027.319779	152.910000
2029.020087	154.425000
2030.716621	157.430000
2032.414526	151.990000
2034.110372	154.285000
2035.809304	155.360000
2037.502750	158.240000
2039.197568	154.450000
2040.892042	157.300000
2042.582748	156.190000
2044.276538	154.705000
2045.966561	153.400000
2047.657955	154.000000
2049.347296	158.255000
2051.038007	154.620000
2052.724956	153.445000
2054.411564	153.945000
2056.099543	151.035000
2057.783762	150.880000
2059.469351	151.035000
2061.154601	147.665000
2062.837803	151.580000
2064.522374	154.320000
2066.201483	146.455000
2067.885377	154.825000
2069.563811	151.015000
2071.245321	151.950000
2072.923081	146.975000
2074.600503	147.540000
2076.279296	147.550000
2077.956045	150.480000
2079.630753	147.465000
2081.306830	148.085000
2082.980867	148.935000
2084.654568	148.210000
2086.327934	149.185000
2087.999262	145.810000
2089.670255	147.390000
2091.340914	148.500000
2093.011238	146.230000
2094.681229	146.235000
2096.349184	148.425000
2098.016806	148.380000
2099.682393	147.375000
2101.349350	146.635000
2103.014272	149.615000
2104.678863	151.855000
2106.341422	147.620000
2108.005349	150.085000
2109.667246	145.755000
2111.328811	149.565000
2112.990045	152.015000
2114.649251	147.295000
2116.308126	149.020000
2117.966672	153.805000
2119.624888	148.350000
2121.279380	154.415000
2122.936937	148.175000
2124.594165	147.175000
2126.247671	146.395000
2127.902545	152.845000
2129.553701	146.795000
2131.207918	146.755000
2132.858419	147.500000
2134.510286	150.740000
2136.156745	150.245000
2137.807959	144.710000
2139.455459	150.280000
2141.104326	145.540000
2142.751175	151.480000
2144.397697	147.070000
2146.043894	146.815000
2147.686383	148.395000
2149.331930	148.925000
2150.973770	150.390000
2152.618667	143.850000
2154.259859	145.700000
2155.900727	142.800000
2157.541271	147.415000
2159.179803	145.065000
2160.819702	143.475000
2162.455900	144.405000
2164.093464	143.500000
2165.730705	143.695000
2167.365937	145.030000
2169.000848	140.680000
2170.635437	144.985000
2172.269704	142.755000
2173.900279	145.850000
2175.533904	149.665000
2177.163838	140.295000
2178.795137	141.095000
2180.424432	143.540000
2182.053406	141.820000
2183.682062	141.575000
2185.310398	140.420000
2186.936731	141.875000
2188.562746	141.320000
2190.186760	140.015000
2191.812138	144.195000
2193.435517	143.315000
2195.060259	139.770000
2196.681321	140.855000
2198.302066	138.895000
2199.924176	143.385000
2201.544288	141.855000
2203.162403	136.495000
2204.780203	140.515000
2206.397688	138.620000
2208.014857	141.880000
2209.631711	137.640000
2211.248250	136.435000
2212.862795	137.510000
2214.475348	140.370000
2216.089265	139.745000
2217.701191	139.640000
2219.314480	138.850000
2220.925779	141.835000
2222.535088	138.465000
2224.145761	139.950000
2225.754445	138.515000
2227.362817	137.115000
2228.969201	138.115000
2230.576949	137.430000
2232.182710	135.480000
2233.788160	138.915000
2235.391625	140.755000
2236.996454	140.965000
2238.599298	139.160000
2240.200159	138.845000
2241.802383	138.515000
2243.402624	138.520000
2245.004228	136.475000
2246.602180	137.730000
2248.201494	137.900000
2249.798828	137.745000
2251.395853	139.640000
2252.994241	136.195000
2254.588980	141.930000
2256.181742	138.995000
2257.775867	134.905000
2259.371353	134.205000
2260.963195	135.920000
2262.554730	135.715000
2264.147626	132.385000
2265.735213	135.990000
2267.327497	140.905000
2268.914473	139.245000
2270.504478	137.405000
2272.089178	135.830000
2273.678572	137.275000
2275.262663	136.835000
2276.848116	135.310000
2278.431599	137.345000
2280.018109	135.320000
2281.600985	131.250000
2283.183557	133.450000
2284.765826	127.185000
2286.344466	135.750000
2287.926129	130.940000
2289.504164	132.585000
2291.085222	131.890000
2292.662654	130.325000
2294.238121	128.760000
2295.816611	127.795000
2297.391477	129.715000
2298.966042	132.230000
2300.540307	128.225000
2302.114271	132.520000
2303.687935	131.415000
2305.261298	129.425000
2306.831043	127.520000
2308.400489	133.980000
2309.972954	130.155000
2311.540143	131.220000
2313.110351	131.905000
2314.676944	130.925000
2316.244897	130.165000
2317.810894	130.515000
2319.376594	129.420000
2320.941997	133.630000
2322.505445	131.685000
2324.070253	130.070000
2325.631453	132.245000
2327.195667	133.150000
2328.754620	135.740000
2330.316586	135.465000
2331.876602	129.670000
2333.436322	128.620000
2334.994093	129.485000
2336.551569	126.725000
2338.108751	129.400000
2339.663986	132.230000
2341.218926	126.815000
2342.773573	128.195000
2344.327926	128.775000
2345.881985	130.480000
2347.435750	129.900000
2348.987572	128.500000
2350.537450	128.370000
2352.090336	129.570000
2353.637980	130.390000
2355.188631	130.245000
2356.735692	124.165000
2358.284110	126.550000
2359.832236	128.190000
2361.376774	128.175000
2362.922671	128.205000
2364.466628	125.670000
2366.011943	124.145000
2367.553673	126.820000
2369.096760	125.165000
2370.637912	123.625000
2372.178774	124.545000
2373.719347	128.525000
2375.259631	126.205000
2376.799625	125.625000
2378.336042	125.900000
2379.875460	129.255000
2381.411301	124.640000
2382.948498	121.885000
2384.482120	126.815000
2386.018743	127.120000
2387.553434	123.935000
2389.086196	126.005000
2390.618671	124.150000
2392.149219	126.580000
2393.682764	129.450000
2395.211098	127.540000
2396.740788	122.910000
2398.270193	124.690000
2399.799312	127.475000
2401.328147	124.485000
2402.851776	126.060000
2404.380042	126.160000
2405.903104	123.520000
2407.430800	129.440000
2408.951657	125.805000
2410.477147	125.370000
2411.999076	121.690000
2413.522361	126.850000
2415.043725	127.320000
2416.563169	125.265000
2418.083968	123.325000
2419.602848	125.250000
2421.121446	123.755000
2422.638127	126.780000
2424.156162	123.615000
2425.673916	121.655000
2427.188119	126.740000
2428.702041	124.510000
2430.215683	127.565000
2431.730680	123.760000
2433.242128	121.200000
2434.754931	127.355000
2436.265821	122.545000
2437.776431	120.945000
2439.285130	125.120000
2440.796816	121.250000
2442.304957	120.050000
2443.812821	122.450000
2445.320407	121.225000
2446.824452	125.655000
2448.331483	119.605000
2449.836605	121.185000
2451.341450	121.470000
2452.844388	122.970000
2454.347049	122.115000
2455.849434	122.065000
2457.349914	121.180000
2458.851747	119.280000
2460.351676	116.195000
2461.851329	119.435000
2463.350706	118.235000
2464.848181	118.090000
2466.343755	118.725000
2467.842308	119.320000
2469.337332	119.650000
2470.833710	118.025000
2472.326561	116.360000
2473.820764	122.445000
2475.314694	115.600000
2476.805101	115.980000
2478.298484	111.940000
2479.789970	113.675000
2481.279559	118.750000
2482.768876	120.140000
2484.256298	115.370000
2485.746695	116.555000
2487.233573	119.715000
2488.721803	117.035000
2490.206517	118.015000
2491.690960	118.695000
2493.176755	118.055000
2494.660657	114.205000
2496.145911	117.480000
2497.626031	114.855000
2499.109123	115.455000
2500.590325	119.845000
2502.071258	118.595000
2503.550302	116.910000
2505.029077	116.455000
2506.507584	113.345000
2507.985823	111.540000
2509.463793	112.420000
2510.938259	115.460000
2512.415693	112.845000
2513.889624	111.805000
2515.364906	114.310000
2516.839920	112.810000
2518.311433	117.725000
2519.784296	113.730000
2521.255277	116.645000
2522.727608	117.975000
2524.194826	117.390000
2525.665009	114.605000
2527.133312	116.630000
2528.601350	112.610000
2530.069123	113.180000
2531.536631	117.385000
2533.003874	112.735000
2534.467625	114.505000
2535.932726	117.405000
2537.395950	114.215000
2538.860524	117.380000
2540.321608	115.775000
2541.784042	118.645000
2543.246213	114.450000
2544.704898	118.325000
2546.168155	116.500000
2547.626315	115.470000
2549.085824	112.310000
2550.540240	115.220000
2551.999225	111.575000
2553.456339	117.815000
2554.911582	117.565000
2556.366564	113.870000
2557.819676	114.115000
2559.274137	114.535000
2560.726729	111.905000
2562.179061	114.575000
2563.629525	111.130000
2565.082945	112.615000
2566.531283	109.920000
2567.982577	111.610000
2569.432004	110.935000
2570.877959	114.795000
2572.326870	112.045000
2573.772309	113.970000
2575.219097	108.325000
2576.664021	110.730000
2578.108688	116.560000
2579.554702	109.950000
2580.997249	114.930000
2582.441144	109.780000
2583.881574	111.200000
2585.323351	105.645000
2586.763269	116.500000
2588.204534	111.325000
2589.642338	106.925000
2591.083091	107.370000
2592.518781	110.430000
2593.957421	108.120000
2595.394204	109.040000
2596.829130	113.380000
2598.267005	112.940000
2599.699821	108.440000
2601.133985	109.435000
2602.566295	108.855000
2603.999951	108.930000
2605.431754	110.765000
2606.863304	108.385000
2608.294600	107.515000
2609.724044	107.945000
2611.153237	113.425000
2612.580578	105.255000
2614.009266	108.340000
2615.437701	111.465000
2616.862689	107.685000
2618.289024	106.975000
2619.713510	110.475000
2621.139342	106.495000
2622.561730	111.480000
2623.985464	111.920000
2625.407351	109.865000
2626.828989	108.135000
2628.248781	105.500000
2629.669919	107.255000
2631.090807	108.250000
2632.508257	109.940000
2633.928646	105.545000
2635.345598	107.165000
2636.762302	106.720000
2638.178757	105.615000
2639.594964	111.435000
2641.010922	108.105000
2642.425040	106.270000
2643.838911	106.225000
2645.250942	111.555000
2646.664318	106.795000
2648.074264	107.290000
2649.487145	111.410000
2650.896599	107.620000
2652.305806	105.185000
2653.713177	107.845000
2655.123482	107.700000
2656.531951	106.710000
2657.938585	102.290000
2659.344974	108.880000
2660.749529	107.765000
2662.155428	106.525000
2663.559494	107.295000
2664.963316	107.310000
2666.366893	107.010000
2667.768638	105.930000
2669.171727	108.335000
2670.571399	105.700000
2671.972413	106.410000
2673.370012	108.655000
2674.770541	108.305000
2676.167655	106.320000
2677.566112	105.680000
2678.962741	110.285000
2680.359128	106.450000
2681.755274	105.905000
2683.149593	110.830000
2684.545255	106.505000
2685.937507	105.805000
2687.331103	106.815000
2688.722874	108.640000
2690.115987	106.820000
2691.507277	103.360000
2692.896744	103.705000
2694.285971	105.780000
2695.674959	105.405000
2697.065289	103.550000
2698.450634	104.205000
2699.838903	101.350000
2701.225352	105.300000
2702.611562	104.275000
2703.997534	105.450000
2705.380106	103.820000
2706.764021	107.380000
2708.147698	106.230000
2709.531137	105.470000
2710.911180	102.285000
2712.292565	103.875000
2713.672134	101.590000
2715.053045	99.565000
2716.432141	102.385000
2717.809422	102.715000
2719.188045	100.120000
2720.564855	106.105000
2721.941429	103.370000
2723.317767	102.085000
2724.692293	103.315000
2726.068160	104.295000
2727.440640	99.870000
2728.816036	102.535000
2730.186472	102.070000
2731.558249	101.530000
2732.929791	101.355000
2734.299525	101.980000
2735.670600	99.715000
2737.039867	100.005000
2738.408900	98.665000
2739.776126	99.250000
2741.143120	100.900000
2742.509881	99.215000
2743.876409	97.945000
2745.241132	100.060000
2746.605624	98.735000
2747.969883	102.055000
2749.333910	95.900000
2750.697706	99.860000
2752.058128	96.370000
2753.421461	103.415000
2754.779851	94.645000
2756.141151	99.905000
2757.499080	97.470000
2758.859919	101.010000
2760.218957	94.800000
2761.574627	98.800000
2762.933205	95.395000
2764.288417	94.580000
2765.643399	94.130000
2766.996584	95.330000
2768.352676	98.660000
2769.705404	96.745000
2771.057903	98.150000
2772.410174	96.070000
2773.763784	99.370000
2775.114032	93.520000
2776.462487	92.645000
2777.813846	93.370000
2779.161846	90.985000
2780.511185	93.655000
2781.858731	95.930000
2783.206050	99.725000
2784.553143	92.360000
2785.898445	95.475000
2787.243521	92.500000
2788.588371	94.625000
2789.932994	91.050000
2791.274266	95.110000
2792.616876	93.690000
2793.959260	94.240000
2795.301420	93.225000
2796.640230	94.715000
2797.981939	89.965000
2799.320301	90.695000
2800.660000	91.785000
2801.997913	93.140000
2803.334042	92.240000
2804.669947	95.200000
2806.007190	90.740000
2807.342649	92.450000
2808.677885	97.310000
2810.011338	90.010000
2811.346129	93.405000
2812.677578	93.400000
2814.011923	93.490000
2815.341370	92.785000
2816.672154	94.380000
2818.002716	92.465000
2819.331499	90.610000
2820.661618	95.410000
2821.989959	90.510000
2823.318079	90.730000
2824.644422	90.910000
2825.972100	93.245000
2827.296446	92.440000
2828.622127	94.300000
2829.946033	88.675000
2831.269720	94.745000
2832.594742	95.400000
2833.916434	90.365000
2835.237908	89.005000
2836.559163	90.740000
2837.880199	91.745000
2839.199463	87.640000
2840.520062	89.830000
2841.838889	90.780000
2843.157498	93.555000
2844.474336	94.020000
2845.790958	89.755000
2847.107361	89.155000
2848.421996	87.560000
2849.737965	89.850000
2851.050614	86.550000
2852.364599	87.600000
2853.678366	90.755000
2854.991918	92.305000
2856.303702	91.355000
2857.613720	91.520000
2858.925073	87.655000
2860.233111	93.905000
2861.542484	88.285000
2862.851641	91.200000
2864.160583	86.865000
2865.467762	87.150000
2866.773177	91.235000
2868.079927	90.075000
2869.384914	89.205000
2870.689688	86.615000
2871.992700	89.510000
2873.298594	89.120000
2874.599632	89.680000
2875.902005	88.430000
2877.202618	88.115000
2878.504565	91.455000
2879.806299	90.420000
2881.104728	88.770000
2882.404492	88.910000
2883.702497	83.425000
2885.000291	86.880000
2886.296329	85.155000
2887.593700	85.315000
2888.889315	88.230000
2890.184719	84.900000
2891.479913	85.865000
2892.771808	87.435000
2894.066580	86.345000
2895.358055	82.950000
2896.650863	86.680000
2897.943461	84.200000
2899.232765	87.520000
2900.523401	87.510000
2901.812286	86.315000
2903.102504	85.170000
2904.389430	85.390000
2905.677688	87.340000
2906.964196	85.975000
2908.250497	85.815000
2909.536589	84.195000
2910.820933	83.140000
2912.108149	83.495000
2913.390537	82.095000
2914.674258	84.815000
2915.956233	85.435000
2917.238001	87.810000
2918.518023	85.360000
2919.800915	83.660000
2921.082062	81.980000
2922.359927	84.135000
2923.640661	81.240000
2924.918114	83.445000
2926.195361	83.050000
2927.470867	83.980000
2928.749240	85.895000
2930.022798	86.325000
2931.299224	81.055000
2932.573909	84.950000
2933.846854	81.800000
2935.121129	86.205000
2936.393665	86.900000
2937.665997	81.485000
2938.935055	82.700000
2940.206979	83.450000
2941.477165	82.605000
2942.747148	85.075000
2944.016927	80.635000
2945.284969	81.015000
2946.551276	84.750000
2947.817380	83.285000
2949.084814	86.185000
2950.350514	81.805000
2951.616011	83.805000
2952.881306	80.585000
2954.143336	83.550000
2955.406697	79.820000
2956.669855	80.665000
2957.931282	82.145000
2959.194038	81.930000
2960.455063	77.255000
2961.714356	82.080000
2962.973450	79.680000
2964.232343	81.565000
2965.491036	79.335000
2966.749529	78.890000
2968.006293	80.220000
2969.262857	77.665000
2970.517694	80.595000
2971.773860	79.870000
2973.026770	78.370000
2974.281010	80.450000
2975.535051	78.980000
2976.787366	83.755000
2978.039483	76.395000
2979.289875	78.985000
2980.543122	78.070000
2981.791592	80.540000
2983.042916	77.955000
2984.290992	80.335000
2985.538870	78.145000
2986.786551	78.515000
2988.034036	78.470000
2989.279799	78.950000
2990.525365	80.360000
2991.772259	75.455000
2993.015909	77.855000
2994.260887	83.615000
2995.502622	79.565000
2996.747208	77.825000
2997.990074	76.105000
2999.229700	77.685000
3000.472176	80.005000
3001.711413	77.990000
3002.951977	80.250000
3004.190824	77.070000
3005.429477	76.685000
3006.666414	78.320000
3007.904678	81.545000
3009.141228	79.210000
3010.377583	77.240000
3011.613745	78.730000
3012.848194	80.255000
3014.082449	75.765000
3015.316511	79.625000
3016.548861	74.650000
3017.779499	75.805000
3019.012983	80.550000
3020.244755	75.915000
3021.474817	77.290000
3022.704687	74.780000
3023.932847	73.005000
3025.162333	75.260000
3026.390111	75.965000
3027.617697	78.940000
3028.846609	75.300000
3030.070779	77.495000
3031.297792	72.060000
3032.521581	75.985000
3033.746697	76.015000
3034.970106	78.545000
3036.193326	75.380000
3037.414840	78.660000
3038.639195	77.620000
3039.858815	76.735000
3041.079760	73.800000
3042.300517	71.855000
3043.519570	75.930000
3044.739949	75.050000
3045.957111	71.970000
3047.175598	72.015000
3048.392384	76.040000
3049.608981	74.490000
3050.825390	75.785000
3052.038587	71.190000
3053.254621	72.590000
3054.467443	75.465000
3055.683102	74.885000
3056.894038	72.140000
3058.106299	71.115000
3059.318374	69.895000
3060.530262	74.085000
3061.740452	72.505000
3062.950456	71.780000
3064.160275	73.855000
3065.368397	72.330000
3066.576333	70.065000
3067.782575	75.515000
3068.990140	71.905000
3070.196012	72.087500
3071.401698	72.270000
3072.607199	70.340000
3073.811007	71.765000
3075.016139	69.415000
3076.219579	78.290000
3077.421326	68.145000
3078.622890	70.990000
3079.824270	74.325000
3081.025466	72.160000
3082.224972	75.540000
3083.424294	71.130000
3084.624940	72.355000
3085.823896	72.600000
3087.019658	70.820000
3088.218249	73.010000
3089.413646	69.020000
3090.610366	69.860000
3091.803894	69.830000
3093.000251	71.165000
3094.194920	68.125000
3095.386399	71.915000
3096.582209	70.480000
3097.773326	67.985000
3098.965765	66.550000
3100.155017	69.155000
3101.347095	67.920000
3102.537488	66.400000
3103.724696	68.735000
3104.913227	71.365000
3106.103080	63.070000
3107.289748	73.445000
3108.476237	69.995000
3109.662546	71.525000
3110.850177	64.520000
3112.034627	69.290000
3113.217396	64.255000
3114.402989	74.245000
3115.586901	68.625000
3116.769135	69.460000
3117.951190	72.275000
3119.133068	70.105000
3120.314767	66.000000
3121.494788	68.785000
3122.673133	65.090000
3123.854299	72.300000
3125.032289	68.750000
3126.210102	67.815000
3127.387738	65.530000
3128.563699	67.550000
3129.739483	65.745000
3130.916589	67.265000
3132.092020	64.645000
3133.265778	66.350000
3134.437864	68.045000
3135.611270	69.665000
3136.784501	68.690000
3137.956059	65.605000
3139.128939	65.305000
3140.298651	71.915000
3141.469684	60.700000
3142.639046	69.035000
3143.806739	66.145000
3144.977247	67.410000
3146.143096	66.575000
3147.313255	69.350000
3148.478756	62.890000
3149.644084	65.890000
3150.809238	65.900000
3151.974218	66.585000
3153.140519	68.435000
3154.302166	64.380000
3155.465134	65.655000
3156.627928	62.135000
3157.790550	60.630000
3158.951507	64.665000
3160.112291	64.255000
3161.272903	66.620000
3162.431852	62.025000
3163.590628	65.510000
3164.749233	61.515000
3165.907666	67.835000
3167.065927	65.000000
3168.222526	62.860000
3169.377464	59.915000
3170.533721	61.560000
3171.688318	62.935000
3172.842743	63.805000
3173.995509	62.695000
3175.148105	60.965000
3176.300530	63.715000
3177.452786	64.295000
3178.604872	61.300000
3179.753811	63.960000
3180.905557	63.255000
3182.055645	64.190000
3183.204077	62.155000
3184.352340	63.760000
3185.500433	61.935000
3186.648358	64.460000
3187.794628	66.265000
3188.940729	67.455000
3190.085175	61.800000
3191.229454	61.560000
3192.373565	61.785000
3193.518994	58.015000
3194.661283	63.105000
3195.803406	61.170000
3196.945361	62.510000
3198.087150	63.330000
3199.228771	63.490000
3200.367256	62.150000
3201.507059	60.295000
3202.648180	60.150000
3203.786166	55.750000
3204.922503	61.855000
3206.058674	63.895000
3207.196163	63.630000
3208.332002	62.660000
3209.469159	61.905000
3210.601703	61.890000
3211.738529	58.605000
3212.870743	57.340000
3214.004275	65.190000
3215.137641	62.175000
3216.267880	61.395000
3217.400917	62.405000
3218.530828	59.245000
3219.662056	56.120000
3220.790158	61.375000
3221.921057	58.200000
3223.050313	56.975000
3224.177924	56.965000
3225.302414	57.570000
3226.431179	57.760000
3227.556822	57.450000
3228.682302	58.935000
3229.806141	63.610000
3230.932774	59.530000
3232.054810	61.900000
3233.178162	59.600000
3234.301352	56.140000
3235.424380	57.465000
3236.545768	58.235000
3237.666995	53.890000
3238.786583	58.680000
3239.906010	59.345000
3241.023799	60.785000
3242.144381	56.580000
3243.261848	58.750000
3244.379156	59.450000
3245.496302	58.070000
3246.611813	57.210000
3247.728639	61.665000
3248.842354	58.585000
3249.958860	60.830000
3251.073730	61.140000
3252.185492	57.245000
3253.297095	59.510000
3254.410012	59.680000
3255.522771	59.075000
3256.632423	59.975000
3257.743390	60.225000
3258.854197	57.610000
3259.963374	57.350000
3261.070919	60.065000
3262.179779	55.965000
3263.288480	61.105000
3264.394079	58.035000
3265.500992	60.315000
3266.606277	57.055000
3267.712875	59.185000
3268.816373	58.040000
3269.921185	61.350000
3271.025840	61.815000
3272.127396	57.695000
3273.228797	56.500000
3274.331511	54.630000
3275.434068	57.370000
3276.533530	59.380000
3277.635774	54.435000
3278.734923	56.560000
3279.832448	53.775000
3280.929817	54.595000
3282.029969	55.990000
3283.127027	57.555000
3284.223930	54.690000
3285.320679	54.030000
3286.412868	56.240000
3287.509306	52.575000
3288.604123	54.065000
3289.698784	54.710000
3290.791824	56.625000
3291.884710	54.210000
3292.975975	57.240000
3294.068553	56.655000
3295.159510	56.415000
3296.248848	56.675000
3297.338033	53.515000
3298.428531	55.085000
3299.515944	56.350000
3300.603205	53.750000
3301.691778	50.050000
3302.780198	56.120000
3303.864071	57.210000
3304.952186	55.450000
3306.037220	55.145000
3307.120637	53.150000
3308.205367	56.300000
3309.288482	56.630000
3310.372908	55.620000
3311.454256	55.475000
3312.536916	55.200000
3313.617962	54.330000
3314.698857	54.575000
3315.778139	53.285000
3316.857270	52.695000
3317.937712	56.470000
3319.015081	54.390000
3320.093760	50.435000
3321.170829	54.575000
3322.247747	54.930000
3323.323054	54.250000
3324.398212	55.715000
3325.474681	51.090000
3326.548080	51.540000
3327.621330	54.335000
3328.695891	48.760000
3329.768842	56.550000
3330.840186	51.640000
3331.912840	55.955000
3332.982427	54.515000
3334.053325	55.775000
3335.122616	53.165000
3336.193218	53.315000
3337.262213	55.330000
3338.329602	55.295000
3339.395386	52.715000
3340.465396	51.680000
3341.532343	50.425000
3342.596228	53.030000
3343.662881	53.550000
3344.727929	48.220000
3345.791374	51.850000
3346.854673	50.230000
3347.917826	51.520000
3348.980832	54.685000
3350.043691	54.810000
3351.104949	50.375000
3352.163150	50.720000
3353.225572	49.225000
3354.284937	54.745000
3355.344157	51.570000
3356.404687	51.735000
3357.460707	49.540000
3358.519492	48.830000
3359.573769	53.645000
3360.630809	54.445000
3361.686252	54.245000
3362.743003	51.340000
3363.798157	53.355000
3364.851713	49.690000
3365.903672	49.090000
3366.958393	49.480000
3368.010065	50.530000
3369.061594	52.640000
3370.114432	52.825000
3371.164222	49.580000
3372.215320	47.230000
3373.263373	52.960000
3374.314186	48.590000
3375.361953	47.815000
3376.409578	50.580000
3377.457060	50.120000
3378.502950	49.755000
3379.550148	52.880000
3380.594304	49.520000
3381.641218	55.600000
3382.686540	50.475000
3383.728822	51.765000
3384.770962	50.790000
3385.814410	52.685000
3386.857718	46.755000
3387.899435	49.255000
3388.941011	52.295000
3389.982447	52.585000
3391.022293	52.155000
3392.060552	53.710000
3393.100118	44.920000
3394.139543	49.430000
3395.177381	49.365000
3396.213633	51.805000
3397.249744	47.465000
3398.287163	50.475000
3399.321549	51.905000
3400.357242	48.460000
3401.392796	48.295000
3402.425319	51.510000
3403.460595	47.325000
3404.492840	51.945000
3405.524947	49.920000
3406.555470	47.405000
3407.587301	48.385000
3408.618992	46.660000
3409.647657	52.885000
3410.676183	47.415000
3411.706017	50.325000
3412.735712	49.070000
3413.762382	51.605000
3414.790359	49.635000
3415.815311	46.960000
3416.843013	50.215000
3417.867692	49.730000
3418.893677	47.275000
3419.918082	48.920000
3420.942351	49.030000
3421.965041	48.735000
3422.987595	48.475000
3424.011455	46.125000
3425.032295	48.715000
3426.053000	44.980000
3427.075010	44.530000
3428.094002	46.865000
3429.112859	49.370000
3430.133021	49.205000
3431.150167	46.690000
