-118.106446	-2.150000
-115.436846	5.330000
-112.770181	2.110000
-110.104268	2.440000
-107.441287	-2.275000
-104.776877	3.520000
-102.115397	4.120000
-99.452487	-1.815000
-96.794685	0.890000
-94.135452	1.845000
-91.476968	-1.865000
-88.821409	4.055000
-86.164421	0.055000
-83.512530	1.900000
-80.859210	0.255000
-78.208810	2.760000
-75.556980	2.405000
-72.910241	2.020000
-70.262072	0.725000
-67.614647	5.830000
-64.970135	-0.855000
-62.324195	-0.470000
-59.683336	-1.545000
-57.041048	0.995000
-54.401668	-1.365000
-51.760860	-1.205000
-49.120792	2.985000
-46.485796	1.645000
-43.849371	2.160000
-41.215850	3.755000
-38.580900	-0.810000
-35.951015	-1.090000
-33.317538	-2.140000
-30.689123	2.690000
-28.061441	-1.740000
-25.432332	4.440000
-22.808279	1.530000
-20.180637	3.590000
-17.558048	1.425000
-14.936191	2.590000
-12.315064	7.235000
-9.694667	27.500000
-7.077158	81.395000
-4.458221	239.540000
-1.842170	552.215000
0.773153	645.415000
3.387749	414.245000
5.999462	53.085000
8.612604	6.610000
11.220712	5.015000
13.832402	7.255000
16.439061	4.205000
19.047148	-2.535000
21.654511	1.415000
24.256849	2.145000
26.862765	7.045000
29.463659	5.060000
32.065981	3.675000
34.663286	1.040000
37.264166	5.325000
39.860032	1.235000
42.457325	1.875000
45.053899	2.415000
47.645464	3.970000
50.238457	1.755000
52.828589	1.780000
55.420149	2.175000
58.008849	2.605000
60.598976	4.165000
63.184105	5.295000
65.770660	0.375000
68.356502	8.315000
70.939490	2.440000
73.523905	4.740000
76.101190	1.510000
78.682042	3.585000
81.260045	-2.160000
83.837338	7.255000
86.416057	-1.905000
88.989795	7.435000
91.564959	2.835000
94.137280	2.230000
96.708893	6.250000
99.277666	7.090000
101.847866	1.710000
104.415228	5.580000
106.984015	7.800000
109.549966	9.450000
112.113082	5.025000
114.679754	9.795000
117.237205	15.665000
119.800341	29.675000
122.358518	57.300000
124.920248	133.165000
127.477023	231.765000
130.035223	261.480000
132.588471	227.535000
135.141020	203.640000
137.697120	218.000000
140.248273	259.500000
142.798727	312.390000
145.348485	354.640000
147.895423	374.080000
150.441665	372.190000
152.989333	365.835000
155.536306	352.060000
158.078342	341.980000
160.619685	346.585000
163.160335	357.550000
165.702411	382.295000
168.241676	411.755000
170.778131	445.920000
173.313896	489.625000
175.851086	545.375000
178.387584	602.335000
180.921277	690.335000
183.452167	794.380000
185.982368	932.885000
188.513994	1119.180000
191.042819	1368.230000
193.568845	1685.880000
196.094186	2046.640000
198.620951	2474.420000
201.144919	2891.035000
203.668203	3213.780000
206.190802	3346.805000
208.710608	3258.015000
211.229731	2974.395000
213.748171	2591.990000
216.268035	2183.765000
218.780898	1796.660000
221.297292	1491.200000
223.813004	1257.420000
226.323827	1059.125000
228.836074	916.100000
231.345538	796.375000
233.854324	697.485000
236.362432	635.795000
238.871963	568.735000
241.376615	523.025000
243.880590	484.985000
246.385989	461.165000
248.886513	443.725000
251.390560	427.225000
253.887637	419.500000
256.388236	434.000000
258.886064	484.750000
261.383219	594.620000
263.879701	719.260000
266.371320	686.350000
268.866459	503.235000
271.358832	354.255000
273.850534	286.015000
276.339473	252.575000
278.829835	236.675000
281.317436	223.900000
283.802277	212.680000
286.290632	209.120000
288.772048	197.780000
291.256978	196.500000
293.737063	188.650000
296.220660	188.655000
298.699414	183.020000
301.179592	184.505000
303.657017	182.960000
306.133779	179.705000
308.609878	183.205000
311.083228	185.780000
313.555916	179.545000
316.027943	188.165000
318.499309	195.570000
320.967931	200.485000
323.435893	200.485000
325.905278	194.570000
328.369840	187.945000
330.837905	194.835000
333.301151	191.620000
335.763740	202.230000
338.225671	202.985000
340.686946	213.540000
343.145487	227.950000
345.605450	267.955000
348.062680	344.090000
350.519256	534.590000
352.975178	831.010000
355.428371	985.640000
357.882985	750.485000
360.332798	405.810000
362.786108	255.210000
365.234618	215.805000
367.682478	196.960000
370.131759	190.095000
372.576247	188.580000
375.022157	188.015000
377.467418	185.790000
379.909960	195.555000
382.351854	198.220000
384.793100	220.085000
387.231631	269.950000
389.671584	389.930000
392.108823	569.150000
394.543350	620.545000
396.981365	472.670000
399.414603	371.385000
401.849263	384.370000
404.279149	368.355000
406.712521	290.395000
409.141123	244.775000
411.569084	223.895000
413.998465	227.155000
416.423081	230.790000
418.849119	232.665000
421.274516	241.150000
423.699273	251.540000
426.119272	256.795000
428.540692	278.560000
430.959415	292.575000
433.379559	309.800000
435.797008	342.405000
438.215877	385.340000
440.632053	442.815000
443.043482	530.105000
445.458387	653.345000
447.870602	833.900000
450.282183	1124.970000
452.693130	1593.360000
455.101391	2456.005000
457.509019	4074.750000
459.916016	6947.080000
462.322380	10552.760000
464.726062	12601.800000
467.129114	10909.135000
469.531536	7227.485000
471.933329	4338.485000
474.332443	2803.455000
476.732977	1982.175000
479.132882	1510.870000
481.528064	1220.495000
483.926713	1026.955000
486.320642	887.230000
488.713945	782.325000
491.106622	706.350000
493.498674	646.615000
495.892145	587.125000
498.280903	539.805000
500.666995	513.160000
503.054507	501.535000
505.441395	541.820000
507.825620	611.865000
510.211264	617.425000
512.594245	519.290000
514.974566	424.810000
517.356306	373.680000
519.735387	344.260000
522.115887	323.065000
524.493729	316.240000
526.868916	299.760000
529.243485	293.875000
531.619473	284.815000
533.992807	284.285000
536.367559	277.010000
538.737626	266.765000
541.107077	266.100000
543.477946	254.920000
545.844135	253.565000
548.211742	249.885000
550.576703	238.125000
552.941051	234.680000
555.304787	224.420000
557.669940	218.360000
560.030420	213.395000
562.392319	217.635000
564.751578	210.820000
567.108198	208.280000
569.468263	208.275000
571.821638	203.795000
574.178457	205.775000
576.532640	199.495000
578.886216	197.650000
581.239183	205.575000
583.589519	199.665000
585.941271	205.250000
588.286347	202.465000
590.636887	200.315000
592.980754	197.685000
595.330081	200.775000
597.674761	202.080000
600.016815	198.070000
602.360287	192.735000
604.701136	193.970000
607.041383	192.145000
609.379009	187.310000
611.720070	185.545000
614.056494	188.060000
616.394334	183.320000
618.729556	186.510000
621.062163	185.340000
623.396186	178.970000
625.727596	183.205000
628.058407	182.935000
630.388620	180.835000
632.718235	186.025000
635.043228	182.290000
637.373662	181.995000
639.699474	180.750000
642.022680	183.355000
644.347301	177.725000
646.669318	177.605000
648.990740	179.515000
651.309559	173.420000
653.629794	170.600000
655.949436	174.465000
658.266477	173.275000
660.582926	175.480000
662.896778	170.365000
665.212044	168.200000
667.524714	169.610000
669.838799	171.590000
672.148284	171.000000
674.459185	174.755000
676.767493	175.285000
679.075213	181.020000
681.384348	183.185000
683.688890	192.475000
685.992845	196.315000
688.296215	220.055000
690.600999	245.505000
692.901197	282.810000
695.202809	322.960000
697.503837	307.300000
699.800282	270.080000
702.098143	231.410000
704.395420	203.715000
706.692114	190.155000
708.984232	184.535000
711.279761	180.545000
713.570717	177.270000
715.863087	175.540000
718.152881	173.450000
720.442096	174.470000
722.730730	169.250000
725.016793	173.120000
727.304269	169.635000
729.589175	170.095000
731.873502	170.430000
734.155261	174.495000
736.438434	171.135000
738.721030	173.195000
740.999071	170.930000
743.278525	174.530000
745.557404	169.525000
747.835707	171.020000
750.109461	171.130000
752.384629	174.395000
754.659223	166.245000
756.931258	165.300000
759.204705	168.075000
761.475595	168.735000
763.743929	169.205000
766.013676	175.410000
768.280869	173.465000
770.547491	172.545000
772.813544	178.790000
775.077044	176.535000
777.341958	178.365000
779.606302	181.470000
781.866117	182.810000
784.127345	188.715000
786.388005	191.140000
788.646118	200.330000
790.901687	205.445000
793.160647	226.900000
795.413108	228.740000
797.670936	245.625000
799.924244	260.140000
802.175013	294.305000
804.427194	356.445000
806.676837	444.415000
808.927891	479.310000
811.174434	438.055000
813.422389	352.715000
815.667810	283.740000
817.914642	238.180000
820.160913	219.925000
822.402680	212.760000
824.647829	205.185000
826.886506	198.150000
829.128566	196.975000
831.366127	195.945000
833.605099	192.855000
835.841545	191.580000
838.079402	193.395000
840.314735	191.500000
842.547543	195.955000
844.781763	190.280000
847.013461	191.225000
849.244604	190.600000
851.475192	193.800000
853.705226	189.880000
855.934705	190.430000
858.159703	184.445000
860.388076	185.525000
862.611970	180.390000
864.837274	183.475000
867.058103	179.625000
869.282304	175.675000
871.502032	178.250000
873.723171	177.650000
875.943759	185.315000
878.161837	182.440000
880.381326	184.140000
882.596348	189.600000
884.810822	184.835000
887.024749	188.985000
889.238128	187.855000
891.450960	191.140000
893.663246	186.835000
895.873029	189.790000
898.082267	183.285000
900.290960	178.925000
902.497154	183.095000
904.704757	182.425000
906.909863	180.565000
909.114425	184.700000
911.316491	182.470000
913.519967	187.085000
915.720949	184.360000
917.921390	191.330000
920.123239	184.865000
922.318696	186.590000
924.517513	186.150000
926.711891	184.575000
928.909627	179.270000
931.102927	181.000000
933.297636	175.975000
935.489859	178.230000
937.681544	176.205000
939.872691	175.420000
942.061355	175.750000
944.249482	175.450000
946.435129	173.215000
948.624128	176.305000
950.808704	175.895000
952.992745	175.395000
955.180136	169.170000
957.359223	173.970000
959.541661	174.315000
961.723565	171.615000
963.902995	172.800000
966.079952	174.945000
968.258316	168.790000
970.438088	170.855000
972.611511	171.130000
974.788280	170.965000
976.960643	170.510000
979.134412	170.995000
981.303778	171.510000
983.476489	170.765000
985.646733	169.885000
987.816449	169.210000
989.985636	167.920000
992.150426	170.790000
994.318557	171.915000
996.482294	171.540000
998.647437	168.565000
1000.810122	174.605000
1002.972280	165.915000
1005.131982	169.580000
1007.291160	172.050000
1009.451744	173.110000
1011.609873	167.270000
1013.767478	170.775000
1015.924560	168.345000
1018.081119	173.370000
1020.233298	169.825000
1022.386883	168.530000
1024.539947	164.255000
1026.690563	173.520000
1028.842584	170.205000
1030.990232	176.530000
1033.141212	170.980000
1035.287821	175.955000
1037.433912	174.035000
1039.579483	177.640000
1041.726460	173.385000
1043.867149	173.305000
1046.011166	171.015000
1048.152743	174.605000
1050.293804	174.785000
1052.436269	183.040000
1054.572455	178.195000
1056.711967	185.600000
1058.847123	184.900000
1060.985604	192.680000
1063.119731	194.015000
1065.253345	205.265000
1067.388364	202.050000
1069.519033	205.640000
1071.651107	196.655000
1073.780752	201.660000
1075.909885	208.555000
1078.038506	224.310000
1080.166616	245.700000
1082.292300	254.195000
1084.417474	240.435000
1086.544052	216.075000
1088.666293	198.450000
1090.789937	187.135000
1092.909248	183.585000
1095.033787	180.465000
1097.152081	176.960000
1099.271780	179.480000
1101.389060	180.820000
1103.505834	176.080000
1105.622101	172.440000
1107.735953	173.200000
1109.851208	175.515000
1111.962141	173.310000
1114.076385	173.500000
1116.186309	175.680000
1118.297637	171.920000
1120.408460	175.645000
1122.514968	169.935000
1124.624784	171.690000
1126.730286	169.300000
1128.837191	171.995000
1130.937881	175.805000
1133.043783	173.930000
1135.145376	176.435000
1137.248372	182.195000
1139.350867	183.180000
1141.447155	190.760000
1143.548651	192.365000
1145.645844	205.030000
1147.742538	213.075000
1149.838734	234.415000
1151.934433	260.770000
1154.029634	309.125000
1156.122438	375.315000
1158.216644	451.175000
1160.304659	482.600000
1162.397872	459.840000
1164.484897	371.990000
1166.575221	296.590000
1168.661258	244.445000
1170.750592	212.825000
1172.833745	200.035000
1174.918301	188.635000
1177.004257	178.805000
1179.085932	177.605000
1181.169009	175.510000
1183.249700	175.245000
1185.329899	173.010000
1187.409607	173.640000
1189.488824	173.150000
1191.565659	170.955000
1193.640113	170.035000
1195.717859	171.135000
1197.791334	168.830000
1199.866210	175.785000
1201.936819	166.760000
1204.008830	172.440000
1206.078464	171.945000
1208.149499	171.000000
1210.220046	170.755000
1212.286332	173.805000
1214.354019	167.345000
1216.419334	169.520000
1218.486049	171.395000
1220.548508	172.555000
1222.614252	176.150000
1224.675743	176.645000
1226.738633	184.115000
1228.799156	181.575000
1230.859195	180.275000
1232.918752	178.855000
1234.975943	176.575000
1237.032653	177.760000
1239.087000	176.205000
1241.144627	170.590000
1243.199892	167.035000
1245.250916	167.555000
1247.303340	167.155000
1249.355284	166.865000
1251.404870	165.260000
1253.453977	166.935000
1255.502606	164.175000
1257.550756	170.565000
1259.598428	163.645000
1261.641869	169.800000
1263.688585	162.860000
1265.732948	164.705000
1267.776835	163.530000
1269.818371	166.475000
1271.857557	162.870000
1273.900015	168.520000
1275.938251	164.290000
1277.977886	165.885000
1280.017046	159.780000
1282.051987	167.870000
1284.088328	162.070000
1286.122323	162.900000
1288.157717	158.605000
1290.188897	160.045000
1292.221476	162.975000
1294.253582	160.795000
1296.283348	159.525000
1298.314512	163.235000
1300.341468	160.740000
1302.369822	160.830000
1304.393972	156.200000
1306.421386	161.160000
1308.444598	156.415000
1310.469208	162.045000
1312.491484	155.460000
1314.515157	158.570000
1316.536497	159.295000
1318.557369	157.335000
1320.577775	158.865000
1322.593986	158.520000
1324.611596	152.260000
1326.626877	155.375000
1328.645416	160.655000
1330.659767	151.625000
1332.671792	157.165000
1334.687074	156.760000
1336.698171	156.445000
1338.710665	162.375000
1340.718976	155.430000
1342.730543	159.945000
1344.736070	157.935000
1346.744853	158.750000
1348.749458	156.015000
1350.757317	158.455000
1352.764714	154.035000
1354.766080	157.850000
1356.768843	154.610000
1358.771145	156.560000
1360.772988	154.100000
1362.774371	151.820000
1364.773441	148.635000
1366.772052	154.330000
1368.770205	155.355000
1370.767900	153.275000
1372.761431	151.985000
1374.756359	154.100000
1376.750830	154.860000
1378.744844	153.560000
1380.736551	152.610000
1382.727802	152.255000
1384.716748	153.990000
1386.707089	154.985000
1388.696975	151.730000
1390.684558	152.115000
1392.671686	153.200000
1394.656514	157.375000
1396.642735	152.825000
1398.626657	154.310000
1400.610126	155.325000
1402.593143	157.780000
1404.573861	152.050000
1406.555975	156.585000
1408.535791	152.585000
1410.515157	151.285000
1412.490383	154.985000
1414.468849	152.425000
1416.445020	152.855000
1418.420743	158.770000
1420.396016	150.935000
1422.368998	156.460000
1424.341532	153.390000
1426.313619	156.200000
1428.285257	155.120000
1430.252767	157.610000
1432.225352	151.185000
1434.190130	154.770000
1436.159981	150.365000
1438.125707	156.720000
1440.092826	154.620000
1442.057662	153.805000
1444.018379	150.870000
1445.984163	156.770000
1447.943992	155.500000
1449.905214	154.645000
1451.867829	151.655000
1453.826329	154.350000
1455.784387	153.790000
1457.742002	154.975000
1459.699176	149.590000
1461.654074	155.090000
1463.610364	153.060000
1465.564380	153.960000
1467.517956	149.760000
1469.469259	156.090000
1471.421954	150.970000
1473.372378	152.645000
1475.322363	150.415000
1477.271908	152.275000
1479.219185	148.225000
1481.164195	155.840000
1483.110596	151.760000
1485.056561	156.785000
1487.002087	151.420000
1488.945349	154.885000
1490.888174	155.545000
1492.828736	150.500000
1494.770689	149.605000
1496.710381	157.945000
1498.649637	150.535000
1500.588458	153.555000
1502.525020	151.040000
1504.462973	156.935000
1506.398668	152.575000
1508.333929	150.075000
1510.266933	154.100000
1512.199505	155.345000
1514.131645	155.460000
1516.063353	151.320000
1517.992807	149.595000
1519.923652	150.640000
1521.854066	146.110000
1523.780406	154.800000
1525.708138	154.505000
1527.633619	149.255000
1529.558671	150.730000
1531.483294	150.980000
1533.407488	151.160000
1535.329435	153.925000
1537.252771	151.330000
1539.173862	148.965000
1541.092708	151.295000
1543.012944	154.145000
1544.930936	151.245000
1546.848502	151.585000
1548.763826	153.160000
1550.680540	154.550000
1552.593199	156.705000
1554.509062	152.185000
1556.422685	152.225000
1558.334071	153.605000
1560.246845	152.250000
1562.155570	156.795000
1564.065685	149.100000
1565.975376	153.820000
1567.884643	146.925000
1569.791677	153.010000
1571.696478	155.400000
1573.602668	156.450000
1575.506626	156.505000
1577.410164	154.800000
1579.313280	155.500000
1581.214168	159.560000
1583.116443	154.840000
1585.016491	156.270000
1586.917926	153.800000
1588.815328	153.745000
1590.712311	154.705000
1592.608876	153.420000
1594.506829	151.930000
1596.398947	155.790000
1598.294258	151.475000
1600.189152	161.125000
1602.081824	153.515000
1603.974080	158.195000
1605.864115	153.035000
1607.753736	154.685000
1609.642940	151.620000
1611.531730	154.945000
1613.418303	154.520000
1615.306262	157.280000
1617.190205	150.625000
1619.075536	153.415000
1620.960452	154.590000
1622.843155	151.950000
1624.727245	155.240000
1626.607324	154.845000
1628.488789	149.160000
1630.368044	152.680000
1632.248685	149.815000
1634.123522	152.625000
1636.003341	148.315000
1637.879154	153.710000
1639.754557	149.525000
1641.631347	150.970000
1643.502339	148.705000
1645.376513	150.425000
1647.246689	150.220000
1649.120045	145.745000
1650.991198	148.995000
1652.860149	149.835000
1654.730486	145.375000
1656.596829	147.555000
1658.464558	144.350000
1660.330089	149.090000
1662.197004	148.040000
1664.059931	149.070000
1665.924243	143.205000
1667.786359	145.540000
1669.648071	141.990000
1671.511167	146.785000
1673.372069	144.410000
1675.230777	143.060000
1677.089082	141.045000
1678.948772	147.520000
1680.802695	145.030000
1682.659790	143.950000
1684.516483	142.705000
1686.369200	143.635000
1688.225087	141.610000
1690.077001	142.025000
1691.928514	138.890000
1693.779626	145.340000
1695.630338	139.890000
1697.480649	140.155000
1699.328776	141.465000
1701.178286	141.180000
1703.022048	139.485000
1704.870759	140.385000
1706.713725	135.555000
1708.559856	138.175000
1710.402026	137.460000
1712.247360	142.545000
1714.086954	137.740000
1715.927932	142.205000
1717.770293	137.520000
1719.608698	137.225000
1721.448486	136.630000
1723.286099	137.600000
1725.123316	137.995000
1726.958360	134.850000
1728.794787	135.900000
1730.629042	139.155000
1732.462902	134.565000
1734.296369	139.525000
1736.125889	136.575000
1737.958568	140.090000
1739.787303	135.295000
1741.619196	137.185000
1743.447146	136.310000
1745.274704	135.775000
1747.101870	134.115000
1748.928645	134.095000
1750.755029	133.675000
1752.577476	138.215000
1754.403077	134.915000
1756.224744	141.190000
1758.047793	135.855000
1759.868681	136.730000
1761.689179	131.215000
1763.511059	136.545000
1765.327239	136.210000
1767.146571	137.965000
1768.961976	129.720000
1770.780531	134.805000
1772.595161	133.065000
1774.409405	137.270000
1776.223261	133.450000
1778.036731	135.310000
1779.848048	135.170000
1781.660746	134.845000
1783.473057	133.240000
1785.281451	133.225000
1787.091226	132.350000
1788.897085	135.870000
1790.706090	132.540000
1792.511182	138.535000
1794.317655	133.220000
1796.123744	135.630000
1797.925923	132.550000
1799.731245	134.680000
1801.532659	132.485000
1803.335453	135.225000
1805.134341	130.540000
1806.934610	134.255000
1808.734497	129.335000
1810.532243	133.790000
1812.329607	131.050000
1814.126592	134.675000
1815.923196	133.475000
1817.717661	136.590000
1819.513505	129.680000
1821.303695	133.120000
1823.098781	132.630000
1824.888214	132.300000
1826.680784	133.395000
1828.471219	131.615000
1830.259520	131.265000
1832.050956	129.970000
1833.836746	128.060000
1835.623916	130.595000
1837.408954	133.035000
1839.197126	130.435000
1840.981412	133.205000
1842.763569	133.130000
1844.547104	132.090000
1846.328511	131.985000
1848.111297	131.600000
1849.890203	130.555000
1851.670487	129.165000
1853.448645	129.335000
1855.228182	132.545000
1857.005594	129.375000
1858.780882	131.305000
1860.557549	132.100000
1862.332092	131.510000
1864.108014	130.865000
1865.878316	127.205000
1867.651744	131.640000
1869.423053	131.395000
1871.193992	128.650000
1872.966307	129.475000
1874.733010	132.125000
1876.502837	125.595000
1878.268801	127.900000
1880.037889	131.070000
1881.803115	129.990000
1883.567972	126.585000
1885.334207	132.695000
1887.096583	128.850000
1888.858592	131.240000
1890.620233	130.210000
1892.381508	129.120000
1894.142415	129.890000
1895.902956	129.875000
1897.661387	127.100000
1899.419453	131.730000
1901.175410	126.395000
1902.932745	127.785000
1904.689713	126.565000
1906.444576	126.905000
1908.197333	120.720000
1909.949727	128.490000
1911.703496	125.495000
1913.455162	129.525000
1915.204726	127.285000
1916.955666	123.920000
1918.706242	124.545000
1920.452979	127.710000
1922.201093	128.705000
1923.947107	126.050000
1925.694497	125.740000
1927.439788	129.440000
1929.182982	131.015000
1930.927552	127.985000
1932.670025	129.720000
1934.412138	125.420000
1936.153891	129.060000
1937.895285	126.645000
1939.634585	125.880000
1941.373525	126.550000
1943.112108	126.515000
1944.848598	128.815000
1946.584731	127.507500
1948.322238	126.200000
1950.055923	125.070000
1951.790983	126.420000
1953.523955	125.415000
1955.256570	127.990000
1956.988828	126.950000
1958.720730	127.930000
1960.450546	130.435000
1962.178278	131.310000
1963.907383	129.910000
1965.636134	129.010000
1967.362801	126.685000
1969.089114	130.440000
1970.816800	129.050000
1972.538950	126.660000
1974.264201	121.595000
1975.985646	129.650000
1977.710190	125.670000
1979.432655	128.305000
1981.151316	123.800000
1982.873076	128.320000
1984.591034	125.085000
1986.310365	122.280000
1988.025897	121.945000
1989.746250	127.660000
1991.462803	126.225000
1993.175561	126.115000
1994.891414	124.130000
1996.605194	131.040000
1998.318625	126.535000
2000.029985	130.615000
2001.742718	123.860000
2003.451659	126.980000
2005.163694	124.145000
2006.870219	129.765000
2008.579837	129.620000
2010.287387	124.020000
2011.994590	123.415000
2013.699727	129.685000
2015.404517	122.730000
2017.110679	129.385000
2018.813059	129.260000
2020.516811	127.205000
2022.218499	124.770000
2023.919843	123.095000
2025.620841	123.695000
2027.319779	125.320000
2029.020087	123.315000
2030.716621	123.605000
2032.414526	121.180000
2034.110372	127.400000
2035.809304	120.830000
2037.502750	124.530000
2039.197568	124.580000
2040.892042	126.200000
2042.582748	122.450000
2044.276538	125.160000
2045.966561	125.640000
2047.657955	122.780000
2049.347296	123.000000
2051.038007	121.620000
2052.724956	124.500000
2054.411564	127.065000
2056.099543	121.235000
2057.783762	128.370000
2059.469351	121.125000
2061.154601	121.960000
2062.837803	118.750000
2064.522374	121.525000
2066.201483	118.400000
2067.885377	123.675000
2069.563811	119.230000
2071.245321	119.710000
2072.923081	118.545000
2074.600503	119.485000
2076.279296	118.870000
2077.956045	121.655000
2079.630753	119.000000
2081.306830	119.935000
2082.980867	117.830000
2084.654568	120.075000
2086.327934	115.180000
2087.999262	118.245000
2089.670255	122.230000
2091.340914	119.000000
2093.011238	122.675000
2094.681229	118.985000
2096.349184	122.440000
2098.016806	118.860000
2099.682393	116.960000
2101.349350	119.965000
2103.014272	116.040000
2104.678863	123.660000
2106.341422	116.885000
2108.005349	119.905000
2109.667246	117.690000
2111.328811	119.170000
2112.990045	117.270000
2114.649251	125.035000
2116.308126	123.685000
2117.966672	120.780000
2119.624888	124.545000
2121.279380	123.250000
2122.936937	120.845000
2124.594165	119.280000
2126.247671	120.205000
2127.902545	123.185000
2129.553701	122.010000
2131.207918	122.550000
2132.858419	121.000000
2134.510286	121.560000
2136.156745	119.655000
2137.807959	118.350000
2139.455459	119.060000
2141.104326	120.375000
2142.751175	118.670000
2144.397697	119.790000
2146.043894	117.690000
2147.686383	118.110000
2149.331930	117.275000
2150.973770	120.060000
2152.618667	116.885000
2154.259859	121.205000
2155.900727	120.140000
2157.541271	118.650000
2159.179803	117.265000
2160.819702	119.460000
2162.455900	118.725000
2164.093464	112.625000
2165.730705	115.550000
2167.365937	114.530000
2169.000848	113.515000
2170.635437	113.515000
2172.269704	114.715000
2173.900279	113.145000
2175.533904	115.810000
2177.163838	114.255000
2178.795137	115.350000
2180.424432	115.245000
2182.053406	110.435000
2183.682062	114.995000
2185.310398	113.195000
2186.936731	112.735000
2188.562746	117.855000
2190.186760	111.975000
2191.812138	115.610000
2193.435517	115.390000
2195.060259	112.980000
2196.681321	112.155000
2198.302066	111.535000
2199.924176	115.005000
2201.544288	112.460000
2203.162403	111.810000
2204.780203	113.210000
2206.397688	111.420000
2208.014857	110.235000
2209.631711	110.715000
2211.248250	113.315000
2212.862795	117.205000
2214.475348	107.675000
2216.089265	112.470000
2217.701191	108.950000
2219.314480	115.220000
2220.925779	111.010000
2222.535088	110.145000
2224.145761	112.670000
2225.754445	110.345000
2227.362817	111.455000
2228.969201	111.590000
2230.576949	111.695000
2232.182710	110.530000
2233.788160	110.395000
2235.391625	112.650000
2236.996454	109.825000
2238.599298	112.910000
2240.200159	110.385000
2241.802383	111.455000
2243.402624	110.835000
2245.004228	110.830000
2246.602180	111.565000
2248.201494	107.525000
2249.798828	109.220000
2251.395853	110.110000
2252.994241	109.875000
2254.588980	107.220000
2256.181742	106.650000
2257.775867	110.620000
2259.371353	107.470000
2260.963195	108.380000
2262.554730	108.270000
2264.147626	111.465000
2265.735213	106.980000
2267.327497	109.100000
2268.914473	106.085000
2270.504478	111.090000
2272.089178	102.485000
2273.678572	109.150000
2275.262663	103.515000
2276.848116	113.185000
2278.431599	106.125000
2280.018109	107.730000
2281.600985	106.930000
2283.183557	106.625000
2284.765826	105.730000
2286.344466	107.790000
2287.926129	104.160000
2289.504164	109.225000
2291.085222	108.940000
2292.662654	106.750000
2294.238121	104.560000
2295.816611	106.745000
2297.391477	104.450000
2298.966042	104.630000
2300.540307	98.770000
2302.114271	103.525000
2303.687935	107.420000
2305.261298	104.615000
2306.831043	99.605000
2308.400489	105.880000
2309.972954	102.565000
2311.540143	104.975000
2313.110351	101.415000
2314.676944	106.560000
2316.244897	100.705000
2317.810894	103.735000
2319.376594	101.450000
2320.941997	106.555000
2322.505445	103.865000
2324.070253	111.410000
2325.631453	105.850000
2327.195667	111.285000
2328.754620	107.885000
2330.316586	107.630000
2331.876602	107.380000
2333.436322	100.885000
2334.994093	107.325000
2336.551569	100.660000
2338.108751	101.870000
2339.663986	104.140000
2341.218926	106.140000
2342.773573	103.915000
2344.327926	102.780000
2345.881985	105.615000
2347.435750	105.605000
2348.987572	107.010000
2350.537450	104.480000
2352.090336	106.175000
2353.637980	102.970000
2355.188631	103.515000
2356.735692	104.970000
2358.284110	105.175000
2359.832236	98.685000
2361.376774	106.225000
2362.922671	102.925000
2364.466628	102.305000
2366.011943	101.055000
2367.553673	102.475000
2369.096760	103.855000
2370.637912	102.075000
2372.178774	103.665000
2373.719347	103.020000
2375.259631	103.360000
2376.799625	103.780000
2378.336042	101.200000
2379.875460	100.200000
2381.411301	100.340000
2382.948498	104.705000
2384.482120	101.155000
2386.018743	98.435000
2387.553434	100.840000
2389.086196	99.340000
2390.618671	99.265000
2392.149219	101.710000
2393.682764	100.200000
2395.211098	101.410000
2396.740788	98.490000
2398.270193	100.845000
2399.799312	96.170000
2401.328147	103.065000
2402.851776	99.120000
2404.380042	98.565000
2405.903104	102.370000
2407.430800	100.400000
2408.951657	101.355000
2410.477147	102.710000
2411.999076	101.190000
2413.522361	104.005000
2415.043725	98.950000
2416.563169	105.610000
2418.083968	99.115000
2419.602848	100.770000
2421.121446	98.385000
2422.638127	94.810000
2424.156162	98.460000
2425.673916	101.215000
2427.188119	94.700000
2428.702041	100.790000
2430.215683	99.630000
2431.730680	97.690000
2433.242128	98.790000
2434.754931	99.030000
2436.265821	98.005000
2437.776431	93.770000
2439.285130	101.715000
2440.796816	100.575000
2442.304957	101.030000
2443.812821	101.565000
2445.320407	101.630000
2446.824452	98.045000
2448.331483	95.440000
2449.836605	96.085000
2451.341450	101.150000
2452.844388	102.275000
2454.347049	94.045000
2455.849434	97.990000
2457.349914	95.620000
2458.851747	92.985000
2460.351676	96.290000
2461.851329	97.855000
2463.350706	96.805000
2464.848181	98.155000
2466.343755	95.010000
2467.842308	94.585000
2469.337332	91.215000
2470.833710	98.645000
2472.326561	95.455000
2473.820764	94.095000
2475.314694	90.090000
2476.805101	94.555000
2478.298484	96.245000
2479.789970	92.520000
2481.279559	89.675000
2482.768876	96.010000
2484.256298	91.945000
2485.746695	95.350000
2487.233573	94.230000
2488.721803	95.595000
2490.206517	96.875000
2491.690960	94.765000
2493.176755	92.420000
2494.660657	93.220000
2496.145911	91.400000
2497.626031	91.850000
2499.109123	95.045000
2500.590325	94.775000
2502.071258	94.610000
2503.550302	95.050000
2505.029077	91.900000
2506.507584	95.945000
2507.985823	92.755000
2509.463793	94.335000
2510.938259	94.760000
2512.415693	94.645000
2513.889624	90.910000
2515.364906	95.020000
2516.839920	92.675000
2518.311433	97.510000
2519.784296	91.390000
2521.255277	91.895000
2522.727608	89.955000
2524.194826	93.770000
2525.665009	92.665000
2527.133312	96.290000
2528.601350	89.825000
2530.069123	94.015000
2531.536631	93.625000
2533.003874	96.010000
2534.467625	91.800000
2535.932726	95.900000
2537.395950	90.415000
2538.860524	91.110000
2540.321608	88.705000
2541.784042	92.160000
2543.246213	89.205000
2544.704898	98.005000
2546.168155	88.905000
2547.626315	89.615000
2549.085824	90.180000
2550.540240	90.725000
2551.999225	91.260000
2553.456339	93.015000
2554.911582	89.155000
2556.366564	91.805000
2557.819676	93.300000
2559.274137	87.150000
2560.726729	91.155000
2562.179061	90.365000
2563.629525	87.085000
2565.082945	91.860000
2566.531283	89.395000
2567.982577	89.210000
2569.432004	90.645000
2570.877959	93.045000
2572.326870	87.855000
2573.772309	91.880000
2575.219097	87.815000
2576.664021	91.365000
2578.108688	84.365000
2579.554702	91.985000
2580.997249	89.575000
2582.441144	89.695000
2583.881574	87.085000
2585.323351	87.850000
2586.763269	87.910000
2588.204534	88.650000
2589.642338	88.985000
2591.083091	91.310000
2592.518781	85.030000
2593.957421	88.730000
2595.394204	85.895000
2596.829130	90.740000
2598.267005	88.470000
2599.699821	92.390000
2601.133985	87.965000
2602.566295	90.725000
2603.999951	90.235000
2605.431754	90.150000
2606.863304	89.370000
2608.294600	86.195000
2609.724044	90.285000
2611.153237	87.285000
2612.580578	86.840000
2614.009266	92.515000
2615.437701	88.130000
2616.862689	88.280000
2618.289024	87.085000
2619.713510	85.950000
2621.139342	86.105000
2622.561730	86.815000
2623.985464	85.630000
2625.407351	89.710000
2626.828989	87.245000
2628.248781	84.165000
2629.669919	85.370000
2631.090807	87.550000
2632.508257	84.515000
2633.928646	88.510000
2635.345598	83.855000
2636.762302	87.850000
2638.178757	83.695000
2639.594964	89.745000
2641.010922	85.635000
2642.425040	89.440000
2643.838911	85.625000
2645.250942	86.695000
2646.664318	82.025000
2648.074264	86.965000
2649.487145	82.850000
2650.896599	89.465000
2652.305806	86.335000
2653.713177	83.395000
2655.123482	84.840000
2656.531951	85.930000
2657.938585	84.570000
2659.344974	87.520000
2660.749529	85.530000
2662.155428	83.300000
2663.559494	85.710000
2664.963316	85.685000
2666.366893	80.725000
2667.768638	83.240000
2669.171727	88.355000
2670.571399	83.285000
2671.972413	86.875000
2673.370012	88.260000
2674.770541	84.640000
2676.167655	89.325000
2677.566112	83.895000
2678.962741	87.325000
2680.359128	83.375000
2681.755274	83.065000
2683.149593	81.820000
2684.545255	85.340000
2685.937507	82.905000
2687.331103	87.320000
2688.722874	81.035000
2690.115987	85.085000
2691.507277	82.530000
2692.896744	81.915000
2694.285971	82.430000
2695.674959	84.360000
2697.065289	77.635000
2698.450634	84.115000
2699.838903	80.490000
2701.225352	81.365000
2702.611562	81.985000
2703.997534	83.930000
2705.380106	83.965000
2706.764021	83.095000
2708.147698	81.135000
2709.531137	79.260000
2710.911180	79.040000
2712.292565	84.435000
2713.672134	84.665000
2715.053045	82.070000
2716.432141	82.030000
2717.809422	82.755000
2719.188045	82.845000
2720.564855	80.565000
2721.941429	80.010000
2723.317767	82.665000
2724.692293	74.975000
2726.068160	80.625000
2727.440640	80.990000
2728.816036	80.960000
2730.186472	81.090000
2731.558249	81.115000
2732.929791	78.890000
2734.299525	81.825000
2735.670600	79.220000
2737.039867	82.755000
2738.408900	80.735000
2739.776126	81.990000
2741.143120	78.315000
2742.509881	80.175000
2743.876409	79.635000
2745.241132	79.865000
2746.605624	79.885000
2747.969883	77.385000
2749.333910	83.845000
2750.697706	78.100000
2752.058128	73.445000
2753.421461	79.755000
2754.779851	74.500000
2756.141151	79.470000
2757.499080	77.875000
2758.859919	77.180000
2760.218957	80.185000
2761.574627	80.010000
2762.933205	78.670000
2764.288417	75.810000
2765.643399	76.095000
2766.996584	76.600000
2768.352676	76.230000
2769.705404	75.605000
2771.057903	78.770000
2772.410174	75.585000
2773.763784	75.485000
2775.114032	78.185000
2776.462487	75.390000
2777.813846	76.205000
2779.161846	71.490000
2780.511185	75.930000
2781.858731	77.880000
2783.206050	75.965000
2784.553143	75.810000
2785.898445	73.800000
2787.243521	70.950000
2788.588371	73.205000
2789.932994	71.325000
2791.274266	72.720000
2792.616876	76.710000
2793.959260	72.500000
2795.301420	75.715000
2796.640230	76.255000
2797.981939	75.800000
2799.320301	77.845000
2800.660000	74.250000
2801.997913	76.520000
2803.334042	73.630000
2804.669947	77.570000
2806.007190	74.355000
2807.342649	73.785000
2808.677885	72.945000
2810.011338	73.935000
2811.346129	76.235000
2812.677578	74.230000
2814.011923	70.680000
2815.341370	75.785000
2816.672154	73.685000
2818.002716	75.110000
2819.331499	70.685000
2820.661618	75.625000
2821.989959	74.985000
2823.318079	75.730000
2824.644422	74.865000
2825.972100	76.870000
2827.296446	74.340000
2828.622127	71.135000
2829.946033	69.025000
2831.269720	72.925000
2832.594742	71.775000
2833.916434	68.915000
2835.237908	73.175000
2836.559163	69.910000
2837.880199	73.505000
2839.199463	76.625000
2840.520062	68.460000
2841.838889	74.960000
2843.157498	71.095000
2844.474336	74.215000
2845.790958	67.735000
2847.107361	73.915000
2848.421996	70.450000
2849.737965	70.105000
2851.050614	72.425000
2852.364599	72.450000
2853.678366	65.880000
2854.991918	71.050000
2856.303702	66.990000
2857.613720	72.925000
2858.925073	73.115000
2860.233111	77.750000
2861.542484	68.580000
2862.851641	73.115000
2864.160583	67.820000
2865.467762	75.530000
2866.773177	69.340000
2868.079927	67.435000
2869.384914	68.870000
2870.689688	75.230000
2871.992700	70.950000
2873.298594	71.210000
2874.599632	68.215000
2875.902005	70.785000
2877.202618	70.585000
2878.504565	74.455000
2879.806299	67.820000
2881.104728	73.955000
2882.404492	66.775000
2883.702497	71.070000
2885.000291	72.120000
2886.296329	71.580000
2887.593700	70.865000
2888.889315	72.345000
2890.184719	65.915000
2891.479913	70.105000
2892.771808	65.690000
2894.066580	65.925000
2895.358055	70.475000
2896.650863	70.120000
2897.943461	71.490000
2899.232765	71.155000
2900.523401	66.865000
2901.812286	70.915000
2903.102504	68.265000
2904.389430	72.200000
2905.677688	67.095000
2906.964196	72.055000
2908.250497	67.245000
2909.536589	66.385000
2910.820933	68.660000
2912.108149	66.855000
2913.390537	66.945000
2914.674258	69.560000
2915.956233	68.005000
2917.238001	68.980000
2918.518023	69.945000
2919.800915	71.045000
2921.082062	66.805000
2922.359927	71.435000
2923.640661	65.750000
2924.918114	65.505000
2926.195361	64.615000
2927.470867	67.285000
2928.749240	64.525000
2930.022798	64.640000
2931.299224	63.090000
2932.573909	65.370000
2933.846854	68.680000
2935.121129	65.435000
2936.393665	66.035000
2937.665997	65.445000
2938.935055	66.745000
2940.206979	68.165000
2941.477165	66.270000
2942.747148	66.075000
2944.016927	62.740000
2945.284969	68.130000
2946.551276	63.825000
2947.817380	63.215000
2949.084814	63.905000
2950.350514	66.355000
2951.616011	64.305000
2952.881306	64.195000
2954.143336	64.180000
2955.406697	67.270000
2956.669855	67.650000
2957.931282	66.160000
2959.194038	64.105000
2960.455063	67.060000
2961.714356	62.360000
2962.973450	62.460000
2964.232343	62.645000
2965.491036	67.500000
2966.749529	64.260000
2968.006293	63.875000
2969.262857	61.595000
2970.517694	65.615000
2971.773860	64.425000
2973.026770	63.755000
2974.281010	61.470000
2975.535051	64.400000
2976.787366	56.805000
2978.039483	66.525000
2979.289875	62.670000
2980.543122	62.905000
2981.791592	62.245000
2983.042916	63.940000
2984.290992	60.095000
2985.538870	63.915000
2986.786551	63.525000
2988.034036	61.215000
2989.279799	59.410000
2990.525365	61.780000
2991.772259	62.875000
2993.015909	62.255000
2994.260887	60.960000
2995.502622	61.725000
2996.747208	63.735000
2997.990074	65.340000
2999.229700	61.250000
3000.472176	64.385000
3001.711413	62.455000
3002.951977	57.820000
3004.190824	60.940000
3005.429477	61.780000
3006.666414	58.160000
3007.904678	63.005000
3009.141228	61.750000
3010.377583	60.975000
3011.613745	63.660000
3012.848194	60.845000
3014.082449	62.235000
3015.316511	61.325000
3016.548861	63.075000
3017.779499	64.770000
3019.012983	55.270000
3020.244755	62.160000
3021.474817	58.100000
3022.704687	60.505000
3023.932847	59.690000
3025.162333	66.045000
3026.390111	61.505000
3027.617697	60.065000
3028.846609	54.665000
3030.070779	64.255000
3031.297792	57.505000
3032.521581	60.880000
3033.746697	59.350000
3034.970106	57.650000
3036.193326	57.920000
3037.414840	61.160000
3038.639195	56.655000
3039.858815	58.520000
3041.079760	59.030000
3042.300517	63.410000
3043.519570	58.420000
3044.739949	57.290000
3045.957111	57.645000
3047.175598	55.980000
3048.392384	58.070000
3049.608981	59.700000
3050.825390	56.920000
3052.038587	60.530000
3053.254621	53.220000
3054.467443	61.030000
3055.683102	56.610000
3056.894038	59.215000
3058.106299	55.320000
3059.318374	57.780000
3060.530262	57.075000
3061.740452	60.560000
3062.950456	58.590000
3064.160275	58.935000
3065.368397	55.955000
3066.576333	59.745000
3067.782575	57.080000
3068.990140	57.850000
3070.196012	58.242500
3071.401698	58.635000
3072.607199	53.935000
3073.811007	59.265000
3075.016139	54.230000
3076.219579	54.540000
3077.421326	51.040000
3078.622890	54.185000
3079.824270	55.150000
3081.025466	56.565000
3082.224972	54.350000
3083.424294	57.210000
3084.624940	55.360000
3085.823896	54.335000
3087.019658	53.840000
3088.218249	59.635000
3089.413646	55.260000
3090.610366	58.945000
3091.803894	56.235000
3093.000251	58.970000
3094.194920	57.235000
3095.386399	56.430000
3096.582209	52.095000
3097.773326	59.780000
3098.965765	57.495000
3100.155017	56.990000
3101.347095	57.165000
3102.537488	58.040000
3103.724696	57.635000
3104.913227	54.410000
3106.103080	56.250000
3107.289748	55.760000
3108.476237	49.845000
3109.662546	53.635000
3110.850177	56.285000
3112.034627	50.580000
3113.217396	55.870000
3114.402989	54.810000
3115.586901	51.745000
3116.769135	51.480000
3117.951190	52.770000
3119.133068	52.505000
3120.314767	50.460000
3121.494788	53.880000
3122.673133	53.695000
3123.854299	53.800000
3125.032289	49.865000
3126.210102	52.500000
3127.387738	53.185000
3128.563699	51.690000
3129.739483	53.715000
3130.916589	52.400000
3132.092020	48.560000
3133.265778	54.350000
3134.437864	50.285000
3135.611270	53.360000
3136.784501	50.555000
3137.956059	52.740000
3139.128939	50.415000
3140.298651	54.380000
3141.469684	51.845000
3142.639046	57.235000
3143.806739	55.570000
3144.977247	50.675000
3146.143096	51.850000
3147.313255	54.775000
3148.478756	52.610000
3149.644084	54.535000
3150.809238	50.835000
3151.974218	51.390000
3153.140519	48.155000
3154.302166	53.630000
3155.465134	50.335000
3156.627928	48.060000
3157.790550	50.170000
3158.951507	52.150000
3160.112291	47.265000
3161.272903	54.235000
3162.431852	48.365000
3163.590628	50.960000
3164.749233	50.435000
3165.907666	50.440000
3167.065927	49.365000
3168.222526	52.885000
3169.377464	52.160000
3170.533721	49.175000
3171.688318	49.635000
3172.842743	50.010000
3173.995509	46.795000
3175.148105	52.240000
3176.300530	46.940000
3177.452786	55.425000
3178.604872	46.030000
3179.753811	50.980000
3180.905557	47.025000
3182.055645	51.580000
3183.204077	46.410000
3184.352340	51.830000
3185.500433	47.595000
3186.648358	46.970000
3187.794628	51.155000
3188.940729	51.340000
3190.085175	47.890000
3191.229454	48.710000
3192.373565	50.155000
3193.518994	49.865000
3194.661283	45.200000
3195.803406	48.995000
3196.945361	46.800000
3198.087150	52.215000
3199.228771	47.360000
3200.367256	50.590000
3201.507059	48.460000
3202.648180	52.065000
3203.786166	47.980000
3204.922503	48.965000
3206.058674	45.840000
3207.196163	45.885000
3208.332002	44.110000
3209.469159	51.990000
3210.601703	46.285000
3211.738529	49.215000
3212.870743	46.355000
3214.004275	46.550000
3215.137641	47.010000
3216.267880	48.810000
3217.400917	43.625000
3218.530828	49.520000
3219.662056	47.640000
3220.790158	49.365000
3221.921057	41.835000
3223.050313	45.810000
3224.177924	42.995000
3225.302414	47.985000
3226.431179	47.595000
3227.556822	41.650000
3228.682302	43.220000
3229.806141	41.220000
3230.932774	45.075000
3232.054810	43.790000
3233.178162	44.415000
3234.301352	48.215000
3235.424380	43.820000
3236.545768	48.620000
3237.666995	46.655000
3238.786583	46.650000
3239.906010	43.785000
3241.023799	46.680000
3242.144381	45.535000
3243.261848	48.505000
3244.379156	47.230000
3245.496302	41.515000
3246.611813	43.915000
3247.728639	47.515000
3248.842354	46.640000
3249.958860	49.765000
3251.073730	46.875000
3252.185492	45.520000
3253.297095	48.065000
3254.410012	53.010000
3255.522771	48.675000
3256.632423	47.025000
3257.743390	46.115000
3258.854197	49.025000
3259.963374	44.440000
3261.070919	44.800000
3262.179779	44.020000
3263.288480	45.855000
3264.394079	43.375000
3265.500992	48.130000
3266.606277	43.945000
3267.712875	45.505000
3268.816373	43.810000
3269.921185	45.685000
3271.025840	46.050000
3272.127396	43.580000
3273.228797	47.715000
3274.331511	50.075000
3275.434068	43.970000
3276.533530	44.945000
3277.635774	48.230000
3278.734923	48.280000
3279.832448	44.875000
3280.929817	43.605000
3282.029969	43.005000
3283.127027	43.945000
3284.223930	44.195000
3285.320679	45.960000
3286.412868	41.025000
3287.509306	44.000000
3288.604123	45.945000
3289.698784	46.605000
3290.791824	42.870000
3291.884710	42.995000
3292.975975	44.150000
3294.068553	47.285000
3295.159510	41.225000
3296.248848	44.785000
3297.338033	42.480000
3298.428531	46.160000
3299.515944	38.390000
3300.603205	44.615000
3301.691778	39.545000
3302.780198	46.495000
3303.864071	37.790000
3304.952186	44.380000
3306.037220	45.505000
3307.120637	43.035000
3308.205367	40.840000
3309.288482	46.940000
3310.372908	42.410000
3311.454256	45.150000
3312.536916	42.555000
3313.617962	39.775000
3314.698857	40.360000
3315.778139	45.475000
3316.857270	42.695000
3317.937712	43.600000
3319.015081	41.170000
3320.093760	44.260000
3321.170829	40.695000
3322.247747	41.240000
3323.323054	41.125000
3324.398212	45.160000
3325.474681	39.975000
3326.548080	42.510000
3327.621330	43.665000
3328.695891	44.050000
3329.768842	41.710000
3330.840186	39.930000
3331.912840	38.920000
3332.982427	46.610000
3334.053325	41.655000
3335.122616	43.645000
3336.193218	36.805000
3337.262213	45.020000
3338.329602	39.400000
3339.395386	39.755000
3340.465396	38.340000
3341.532343	42.565000
3342.596228	40.785000
3343.662881	37.750000
3344.727929	43.585000
3345.791374	40.165000
3346.854673	42.105000
3347.917826	42.950000
3348.980832	38.155000
3350.043691	42.420000
3351.104949	39.555000
3352.163150	42.600000
3353.225572	36.670000
3354.284937	38.250000
3355.344157	43.440000
3356.404687	37.865000
3357.460707	39.605000
3358.519492	40.850000
3359.573769	38.065000
3360.630809	38.670000
3361.686252	40.305000
3362.743003	41.125000
3363.798157	38.450000
3364.851713	41.700000
3365.903672	41.430000
3366.958393	38.005000
3368.010065	39.790000
3369.061594	42.675000
3370.114432	39.375000
3371.164222	41.230000
3372.215320	36.420000
3373.263373	43.130000
3374.314186	38.595000
3375.361953	39.170000
3376.409578	37.450000
3377.457060	39.700000
3378.502950	41.150000
3379.550148	36.290000
3380.594304	38.525000
3381.641218	39.805000
3382.686540	39.910000
3383.728822	38.370000
3384.770962	40.995000
3385.814410	35.605000
3386.857718	36.710000
3387.899435	42.070000
3388.941011	41.565000
3389.982447	42.740000
3391.022293	38.740000
3392.060552	39.040000
3393.100118	36.260000
3394.139543	38.865000
3395.177381	41.135000
3396.213633	36.880000
3397.249744	33.505000
3398.287163	37.395000
3399.321549	35.100000
3400.357242	39.610000
3401.392796	33.470000
3402.425319	40.985000
3403.460595	36.995000
3404.492840	39.870000
3405.524947	35.910000
3406.555470	40.990000
3407.587301	39.280000
3408.618992	37.500000
3409.647657	34.180000
3410.676183	42.760000
3411.706017	35.520000
3412.735712	40.805000
3413.762382	38.290000
3414.790359	42.300000
3415.815311	36.100000
3416.843013	35.240000
3417.867692	33.305000
3418.893677	36.875000
3419.918082	38.560000
3420.942351	41.325000
3421.965041	35.900000
3422.987595	35.670000
3424.011455	34.955000
3425.032295	39.560000
3426.053000	33.725000
3427.075010	37.785000
3428.094002	36.365000
3429.112859	38.380000
3430.133021	34.930000
3431.150167	40.895000
