-118.106446	1.420000
-115.436846	-1.220000
-112.770181	1.060000
-110.104268	3.800000
-107.441287	6.020000
-104.776877	4.700000
-102.115397	4.230000
-99.452487	0.355000
-96.794685	5.420000
-94.135452	4.430000
-91.476968	1.675000
-88.821409	0.710000
-86.164421	0.350000
-83.512530	0.765000
-80.859210	1.400000
-78.208810	-0.005000
-75.556980	3.650000
-72.910241	0.715000
-70.262072	0.115000
-67.614647	1.810000
-64.970135	3.835000
-62.324195	4.780000
-59.683336	-0.595000
-57.041048	3.945000
-54.401668	2.620000
-51.760860	1.875000
-49.120792	5.980000
-46.485796	6.255000
-43.849371	2.560000
-41.215850	4.950000
-38.580900	0.480000
-35.951015	4.205000
-33.317538	6.010000
-30.689123	0.875000
-28.061441	5.020000
-25.432332	3.885000
-22.808279	5.230000
-20.180637	6.830000
-17.558048	3.795000
-14.936191	7.890000
-12.315064	12.600000
-9.694667	31.465000
-7.077158	87.700000
-4.458221	260.700000
-1.842170	640.715000
0.773153	742.295000
3.387749	456.080000
5.999462	62.295000
8.612604	11.125000
11.220712	5.470000
13.832402	6.075000
16.439061	6.125000
19.047148	1.835000
21.654511	3.530000
24.256849	5.270000
26.862765	6.690000
29.463659	4.665000
32.065981	5.580000
34.663286	-0.955000
37.264166	4.905000
39.860032	4.780000
42.457325	-0.755000
45.053899	4.500000
47.645464	2.485000
50.238457	2.250000
52.828589	3.275000
55.420149	3.190000
58.008849	3.950000
60.598976	3.470000
63.184105	1.555000
65.770660	2.500000
68.356502	2.685000
70.939490	7.830000
73.523905	2.155000
76.101190	4.205000
78.682042	7.660000
81.260045	4.815000
83.837338	6.700000
86.416057	1.345000
88.989795	5.165000
91.564959	7.525000
94.137280	6.415000
96.708893	7.260000
99.277666	6.295000
101.847866	3.165000
104.415228	5.990000
106.984015	2.235000
109.549966	7.030000
112.113082	12.725000
114.679754	11.875000
117.237205	16.995000
119.800341	29.250000
122.358518	63.190000
124.920248	132.530000
127.477023	222.505000
130.035223	263.620000
132.588471	231.100000
135.141020	204.325000
137.697120	225.800000
140.248273	268.720000
142.798727	327.285000
145.348485	362.775000
147.895423	383.585000
150.441665	387.555000
152.989333	380.645000
155.536306	366.475000
158.078342	354.380000
160.619685	355.205000
163.160335	372.600000
165.702411	394.840000
168.241676	430.735000
170.778131	456.865000
173.313896	501.105000
175.851086	548.230000
178.387584	616.975000
180.921277	696.120000
183.452167	804.155000
185.982368	935.625000
188.513994	1116.470000
191.042819	1370.935000
193.568845	1670.430000
196.094186	2028.325000
198.620951	2449.680000
201.144919	2851.870000
203.668203	3150.155000
206.190802	3288.385000
208.710608	3203.970000
211.229731	2933.205000
213.748171	2571.555000
216.268035	2157.275000
218.780898	1780.145000
221.297292	1488.475000
223.813004	1249.170000
226.323827	1063.720000
228.836074	922.795000
231.345538	805.080000
233.854324	708.270000
236.362432	639.230000
238.871963	582.405000
241.376615	536.945000
243.880590	499.000000
246.385989	473.465000
248.886513	456.905000
251.390560	438.020000
253.887637	429.145000
256.388236	448.455000
258.886064	495.700000
261.383219	602.290000
263.879701	723.880000
266.371320	686.185000
268.866459	517.570000
271.358832	367.870000
273.850534	302.280000
276.339473	273.585000
278.829835	253.495000
281.317436	242.940000
283.802277	234.050000
286.290632	225.795000
288.772048	220.190000
291.256978	218.730000
293.737063	210.705000
296.220660	207.880000
298.699414	202.840000
301.179592	199.285000
303.657017	201.930000
306.133779	200.465000
308.609878	198.950000
311.083228	206.115000
313.555916	206.640000
316.027943	212.530000
318.499309	215.425000
320.967931	220.730000
323.435893	220.990000
325.905278	218.735000
328.369840	210.785000
330.837905	209.430000
333.301151	215.255000
335.763740	217.595000
338.225671	223.315000
340.686946	234.355000
343.145487	250.960000
345.605450	287.925000
348.062680	366.620000
350.519256	544.885000
352.975178	840.150000
355.428371	980.675000
357.882985	759.680000
360.332798	424.730000
362.786108	276.915000
365.234618	231.640000
367.682478	213.385000
370.131759	210.175000
372.576247	204.930000
375.022157	209.755000
377.467418	212.330000
379.909960	216.935000
382.351854	219.965000
384.793100	243.345000
387.231631	290.250000
389.671584	406.885000
392.108823	586.675000
394.543350	628.695000
396.981365	499.545000
399.414603	390.445000
401.849263	405.615000
404.279149	387.850000
406.712521	313.705000
409.141123	264.320000
411.569084	249.965000
413.998465	250.155000
416.423081	255.140000
418.849119	254.265000
421.274516	263.945000
423.699273	273.765000
426.119272	277.640000
428.540692	293.825000
430.959415	311.125000
433.379559	334.540000
435.797008	368.770000
438.215877	407.890000
440.632053	457.805000
443.043482	549.595000
445.458387	670.090000
447.870602	850.390000
450.282183	1127.860000
452.693130	1584.685000
455.101391	2434.480000
457.509019	4018.100000
459.916016	6811.910000
462.322380	10297.950000
464.726062	12301.575000
467.129114	10635.395000
469.531536	7064.780000
471.933329	4262.475000
474.332443	2760.180000
476.732977	1951.910000
479.132882	1512.345000
481.528064	1226.125000
483.926713	1034.470000
486.320642	893.835000
488.713945	796.885000
491.106622	726.040000
493.498674	662.135000
495.892145	602.710000
498.280903	560.250000
500.666995	525.520000
503.054507	513.035000
505.441395	550.240000
507.825620	613.130000
510.211264	628.895000
512.594245	544.395000
514.974566	448.055000
517.356306	394.945000
519.735387	367.350000
522.115887	352.080000
524.493729	329.105000
526.868916	326.885000
529.243485	317.465000
531.619473	309.510000
533.992807	304.470000
536.367559	299.060000
538.737626	296.815000
541.107077	288.580000
543.477946	284.175000
545.844135	276.190000
548.211742	273.650000
550.576703	267.870000
552.941051	256.950000
555.304787	253.035000
557.669940	248.445000
560.030420	243.470000
562.392319	238.415000
564.751578	234.775000
567.108198	234.370000
569.468263	230.730000
571.821638	229.580000
574.178457	231.735000
576.532640	226.175000
578.886216	227.115000
581.239183	224.950000
583.589519	228.235000
585.941271	227.820000
588.286347	225.815000
590.636887	226.280000
592.980754	229.180000
595.330081	225.520000
597.674761	223.695000
600.016815	221.035000
602.360287	221.585000
604.701136	216.125000
607.041383	216.345000
609.379009	214.480000
611.720070	213.030000
614.056494	210.875000
616.394334	206.840000
618.729556	211.155000
621.062163	211.905000
623.396186	207.050000
625.727596	211.535000
628.058407	205.540000
630.388620	203.485000
632.718235	208.850000
635.043228	209.620000
637.373662	212.380000
639.699474	208.765000
642.022680	209.060000
644.347301	206.050000
646.669318	207.060000
648.990740	203.635000
651.309559	201.450000
653.629794	201.175000
655.949436	203.125000
658.266477	198.540000
660.582926	200.090000
662.896778	195.055000
665.212044	196.955000
667.524714	196.630000
669.838799	199.300000
672.148284	202.120000
674.459185	205.435000
676.767493	202.000000
679.075213	209.140000
681.384348	212.565000
683.688890	218.950000
685.992845	231.540000
688.296215	248.130000
690.600999	275.795000
692.901197	313.315000
695.202809	346.630000
697.503837	334.230000
699.800282	299.945000
702.098143	255.415000
704.395420	231.885000
706.692114	223.365000
708.984232	212.170000
711.279761	206.520000
713.570717	206.160000
715.863087	202.010000
718.152881	202.250000
720.442096	197.750000
722.730730	201.155000
725.016793	203.070000
727.304269	202.200000
729.589175	201.355000
731.873502	200.400000
734.155261	203.705000
736.438434	199.930000
738.721030	198.190000
740.999071	200.885000
743.278525	202.840000
745.557404	198.850000
747.835707	204.290000
750.109461	198.750000
752.384629	198.640000
754.659223	199.575000
756.931258	202.465000
759.204705	200.255000
761.475595	195.910000
763.743929	202.125000
766.013676	200.135000
768.280869	201.050000
770.547491	205.825000
772.813544	207.305000
775.077044	204.065000
777.341958	207.210000
779.606302	211.015000
781.866117	215.600000
784.127345	215.380000
786.388005	221.795000
788.646118	230.225000
790.901687	237.500000
793.160647	249.245000
795.413108	260.940000
797.670936	273.920000
799.924244	287.170000
802.175013	324.335000
804.427194	382.355000
806.676837	468.940000
808.927891	501.665000
811.174434	463.860000
813.422389	370.930000
815.667810	307.405000
817.914642	269.000000
820.160913	249.485000
822.402680	238.930000
824.647829	229.120000
826.886506	222.925000
829.128566	223.125000
831.366127	226.495000
833.605099	224.365000
835.841545	216.490000
838.079402	216.980000
840.314735	222.000000
842.547543	220.845000
844.781763	221.855000
847.013461	220.875000
849.244604	220.555000
851.475192	217.340000
853.705226	216.935000
855.934705	221.245000
858.159703	216.410000
860.388076	212.560000
862.611970	212.530000
864.837274	207.465000
867.058103	210.960000
869.282304	210.580000
871.502032	206.415000
873.723171	210.495000
875.943759	209.080000
878.161837	213.140000
880.381326	214.745000
882.596348	216.225000
884.810822	216.405000
887.024749	213.910000
889.238128	220.015000
891.450960	217.000000
893.663246	219.795000
895.873029	215.210000
898.082267	217.010000
900.290960	214.880000
902.497154	213.050000
904.704757	209.895000
906.909863	209.140000
909.114425	211.790000
911.316491	210.815000
913.519967	211.810000
915.720949	214.520000
917.921390	217.515000
920.123239	216.990000
922.318696	217.320000
924.517513	212.470000
926.711891	215.660000
928.909627	210.690000
931.102927	212.290000
933.297636	209.165000
935.489859	204.840000
937.681544	206.200000
939.872691	201.400000
942.061355	201.775000
944.249482	208.690000
946.435129	207.020000
948.624128	207.030000
950.808704	209.920000
952.992745	208.960000
955.180136	203.770000
957.359223	204.105000
959.541661	207.260000
961.723565	204.905000
963.902995	203.460000
966.079952	205.245000
968.258316	200.360000
970.438088	202.315000
972.611511	200.885000
974.788280	201.705000
976.960643	198.870000
979.134412	200.965000
981.303778	201.205000
983.476489	197.485000
985.646733	198.720000
987.816449	202.920000
989.985636	197.615000
992.150426	199.825000
994.318557	199.000000
996.482294	199.350000
998.647437	197.410000
1000.810122	205.755000
1002.972280	201.160000
1005.131982	203.510000
1007.291160	198.710000
1009.451744	204.190000
1011.609873	203.895000
1013.767478	197.260000
1015.924560	199.585000
1018.081119	199.820000
1020.233298	199.930000
1022.386883	198.900000
1024.539947	203.935000
1026.690563	200.565000
1028.842584	206.000000
1030.990232	203.730000
1033.141212	200.215000
1035.287821	206.120000
1037.433912	203.710000
1039.579483	207.660000
1041.726460	207.800000
1043.867149	200.780000
1046.011166	205.955000
1048.152743	208.320000
1050.293804	207.860000
1052.436269	206.655000
1054.572455	212.105000
1056.711967	217.655000
1058.847123	218.555000
1060.985604	229.985000
1063.119731	227.785000
1065.253345	235.860000
1067.388364	237.300000
1069.519033	228.390000
1071.651107	226.195000
1073.780752	232.230000
1075.909885	244.330000
1078.038506	257.070000
1080.166616	277.830000
1082.292300	285.955000
1084.417474	272.040000
1086.544052	240.390000
1088.666293	227.130000
1090.789937	221.685000
1092.909248	216.625000
1095.033787	211.395000
1097.152081	209.350000
1099.271780	212.685000
1101.389060	206.755000
1103.505834	208.210000
1105.622101	209.180000
1107.735953	210.245000
1109.851208	203.370000
1111.962141	201.850000
1114.076385	206.445000
1116.186309	200.050000
1118.297637	204.285000
1120.408460	202.325000
1122.514968	203.050000
1124.624784	204.800000
1126.730286	207.270000
1128.837191	202.910000
1130.937881	203.480000
1133.043783	208.065000
1135.145376	210.965000
1137.248372	212.590000
1139.350867	215.405000
1141.447155	221.840000
1143.548651	223.015000
1145.645844	231.545000
1147.742538	245.220000
1149.838734	263.685000
1151.934433	293.225000
1154.029634	336.305000
1156.122438	405.320000
1158.216644	477.305000
1160.304659	509.490000
1162.397872	484.335000
1164.484897	404.235000
1166.575221	327.575000
1168.661258	272.690000
1170.750592	246.680000
1172.833745	232.855000
1174.918301	224.855000
1177.004257	212.030000
1179.085932	209.470000
1181.169009	207.875000
1183.249700	209.445000
1185.329899	208.160000
1187.409607	202.770000
1189.488824	202.695000
1191.565659	198.265000
1193.640113	201.930000
1195.717859	202.405000
1197.791334	200.950000
1199.866210	201.170000
1201.936819	203.425000
1204.008830	204.105000
1206.078464	205.675000
1208.149499	200.190000
1210.220046	204.520000
1212.286332	200.080000
1214.354019	202.495000
1216.419334	205.670000
1218.486049	203.070000
1220.548508	205.880000
1222.614252	206.740000
1224.675743	207.690000
1226.738633	212.060000
1228.799156	212.460000
1230.859195	212.060000
1232.918752	214.820000
1234.975943	206.020000
1237.032653	205.310000
1239.087000	201.530000
1241.144627	204.725000
1243.199892	201.135000
1245.250916	196.055000
1247.303340	202.760000
1249.355284	200.500000
1251.404870	203.685000
1253.453977	200.320000
1255.502606	200.455000
1257.550756	201.000000
1259.598428	194.695000
1261.641869	202.655000
1263.688585	200.480000
1265.732948	193.670000
1267.776835	196.770000
1269.818371	195.775000
1271.857557	194.380000
1273.900015	198.385000
1275.938251	197.050000
1277.977886	197.715000
1280.017046	195.080000
1282.051987	191.665000
1284.088328	194.410000
1286.122323	195.380000
1288.157717	195.405000
1290.188897	193.720000
1292.221476	196.695000
1294.253582	191.480000
1296.283348	195.720000
1298.314512	193.125000
1300.341468	191.565000
1302.369822	193.230000
1304.393972	194.455000
1306.421386	189.585000
1308.444598	188.890000
1310.469208	188.970000
1312.491484	193.415000
1314.515157	190.810000
1316.536497	189.870000
1318.557369	189.620000
1320.577775	189.885000
1322.593986	190.740000
1324.611596	192.325000
1326.626877	190.040000
1328.645416	189.605000
1330.659767	189.095000
1332.671792	188.580000
1334.687074	189.035000
1336.698171	192.555000
1338.710665	188.930000
1340.718976	188.800000
1342.730543	190.925000
1344.736070	189.775000
1346.744853	186.835000
1348.749458	186.720000
1350.757317	189.685000
1352.764714	190.130000
1354.766080	188.000000
1356.768843	190.200000
1358.771145	192.625000
1360.772988	187.040000
1362.774371	192.350000
1364.773441	192.165000
1366.772052	188.315000
1368.770205	186.055000
1370.767900	186.190000
1372.761431	182.795000
1374.756359	187.925000
1376.750830	191.880000
1378.744844	186.525000
1380.736551	187.470000
1382.727802	187.215000
1384.716748	184.945000
1386.707089	185.415000
1388.696975	181.455000
1390.684558	186.600000
1392.671686	184.565000
1394.656514	186.075000
1396.642735	186.615000
1398.626657	186.625000
1400.610126	181.375000
1402.593143	184.220000
1404.573861	178.350000
1406.555975	181.185000
1408.535791	179.710000
1410.515157	183.380000
1412.490383	187.115000
1414.468849	184.410000
1416.445020	178.920000
1418.420743	187.585000
1420.396016	186.550000
1422.368998	182.475000
1424.341532	181.965000
1426.313619	185.900000
1428.285257	182.880000
1430.252767	187.730000
1432.225352	184.320000
1434.190130	183.890000
1436.159981	186.830000
1438.125707	188.265000
1440.092826	186.435000
1442.057662	185.495000
1444.018379	182.980000
1445.984163	182.990000
1447.943992	186.095000
1449.905214	182.745000
1451.867829	186.130000
1453.826329	181.395000
1455.784387	184.330000
1457.742002	185.185000
1459.699176	183.230000
1461.654074	183.495000
1463.610364	182.680000
1465.564380	184.460000
1467.517956	184.960000
1469.469259	182.725000
1471.421954	183.245000
1473.372378	183.570000
1475.322363	184.490000
1477.271908	184.165000
1479.219185	182.680000
1481.164195	185.640000
1483.110596	183.385000
1485.056561	182.850000
1487.002087	185.075000
1488.945349	183.130000
1490.888174	183.950000
1492.828736	182.360000
1494.770689	180.280000
1496.710381	187.095000
1498.649637	182.965000
1500.588458	180.960000
1502.525020	183.455000
1504.462973	184.080000
1506.398668	183.345000
1508.333929	182.305000
1510.266933	182.145000
1512.199505	181.040000
1514.131645	181.415000
1516.063353	180.925000
1517.992807	183.235000
1519.923652	183.695000
1521.854066	181.720000
1523.780406	182.135000
1525.708138	183.080000
1527.633619	182.415000
1529.558671	182.675000
1531.483294	181.590000
1533.407488	181.370000
1535.329435	182.210000
1537.252771	182.450000
1539.173862	180.720000
1541.092708	185.065000
1543.012944	183.995000
1544.930936	180.780000
1546.848502	179.950000
1548.763826	185.785000
1550.680540	183.335000
1552.593199	181.405000
1554.509062	189.440000
1556.422685	190.530000
1558.334071	181.925000
1560.246845	183.685000
1562.155570	182.905000
1564.065685	183.925000
1565.975376	182.905000
1567.884643	183.215000
1569.791677	187.230000
1571.696478	184.380000
1573.602668	185.195000
1575.506626	185.955000
1577.410164	186.560000
1579.313280	185.470000
1581.214168	183.905000
1583.116443	187.695000
1585.016491	186.660000
1586.917926	185.450000
1588.815328	184.650000
1590.712311	185.970000
1592.608876	184.070000
1594.506829	181.315000
1596.398947	182.890000
1598.294258	181.965000
1600.189152	183.145000
1602.081824	183.945000
1603.974080	180.620000
1605.864115	185.430000
1607.753736	185.045000
1609.642940	184.440000
1611.531730	188.010000
1613.418303	183.555000
1615.306262	184.245000
1617.190205	183.275000
1619.075536	189.425000
1620.960452	186.205000
1622.843155	183.055000
1624.727245	181.415000
1626.607324	187.335000
1628.488789	181.405000
1630.368044	180.370000
1632.248685	185.370000
1634.123522	179.175000
1636.003341	176.515000
1637.879154	179.805000
1639.754557	179.765000
1641.631347	179.905000
1643.502339	175.945000
1645.376513	175.800000
1647.246689	175.645000
1649.120045	179.885000
1650.991198	176.320000
1652.860149	174.655000
1654.730486	178.200000
1656.596829	173.960000
1658.464558	178.125000
1660.330089	173.485000
1662.197004	173.170000
1664.059931	176.245000
1665.924243	170.200000
1667.786359	171.635000
1669.648071	172.890000
1671.511167	174.640000
1673.372069	174.855000
1675.230777	170.005000
1677.089082	171.775000
1678.948772	169.950000
1680.802695	170.400000
1682.659790	173.375000
1684.516483	173.410000
1686.369200	170.100000
1688.225087	168.340000
1690.077001	169.365000
1691.928514	170.630000
1693.779626	168.465000
1695.630338	169.695000
1697.480649	165.635000
1699.328776	167.480000
1701.178286	162.980000
1703.022048	170.020000
1704.870759	162.785000
1706.713725	165.495000
1708.559856	166.490000
1710.402026	166.185000
1712.247360	164.245000
1714.086954	169.080000
1715.927932	163.590000
1717.770293	171.075000
1719.608698	167.810000
1721.448486	163.615000
1723.286099	162.085000
1725.123316	166.010000
1726.958360	166.025000
1728.794787	168.955000
1730.629042	164.800000
1732.462902	163.100000
1734.296369	166.820000
1736.125889	160.820000
1737.958568	162.670000
1739.787303	157.765000
1741.619196	164.690000
1743.447146	166.505000
1745.274704	162.480000
1747.101870	164.585000
1748.928645	162.845000
1750.755029	165.020000
1752.577476	162.425000
1754.403077	162.630000
1756.224744	162.230000
1758.047793	165.290000
1759.868681	162.825000
1761.689179	164.525000
1763.511059	159.645000
1765.327239	160.080000
1767.146571	158.505000
1768.961976	164.730000
1770.780531	160.285000
1772.595161	163.695000
1774.409405	164.130000
1776.223261	160.930000
1778.036731	159.535000
1779.848048	160.905000
1781.660746	160.045000
1783.473057	162.015000
1785.281451	158.250000
1787.091226	160.525000
1788.897085	162.005000
1790.706090	156.310000
1792.511182	167.925000
1794.317655	157.945000
1796.123744	160.275000
1797.925923	156.435000
1799.731245	162.180000
1801.532659	160.315000
1803.335453	161.270000
1805.134341	158.465000
1806.934610	162.825000
1808.734497	156.855000
1810.532243	159.500000
1812.329607	156.020000
1814.126592	159.755000
1815.923196	158.415000
1817.717661	161.205000
1819.513505	158.405000
1821.303695	157.720000
1823.098781	161.650000
1824.888214	158.850000
1826.680784	154.980000
1828.471219	158.185000
1830.259520	156.080000
1832.050956	158.155000
1833.836746	160.180000
1835.623916	155.520000
1837.408954	157.090000
1839.197126	160.160000
1840.981412	157.160000
1842.763569	154.730000
1844.547104	156.905000
1846.328511	158.565000
1848.111297	155.625000
1849.890203	156.560000
1851.670487	154.275000
1853.448645	157.365000
1855.228182	158.605000
1857.005594	157.020000
1858.780882	160.530000
1860.557549	157.030000
1862.332092	158.845000
1864.108014	157.470000
1865.878316	155.910000
1867.651744	156.890000
1869.423053	153.500000
1871.193992	153.270000
1872.966307	157.665000
1874.733010	157.045000
1876.502837	155.195000
1878.268801	154.125000
1880.037889	155.370000
1881.803115	150.415000
1883.567972	152.155000
1885.334207	160.900000
1887.096583	152.585000
1888.858592	157.280000
1890.620233	152.180000
1892.381508	154.495000
1894.142415	156.345000
1895.902956	153.590000
1897.661387	152.935000
1899.419453	153.370000
1901.175410	150.825000
1902.932745	151.275000
1904.689713	150.860000
1906.444576	153.370000
1908.197333	153.400000
1909.949727	156.415000
1911.703496	149.185000
1913.455162	149.480000
1915.204726	152.135000
1916.955666	149.555000
1918.706242	153.155000
1920.452979	151.065000
1922.201093	150.870000
1923.947107	150.025000
1925.694497	150.920000
1927.439788	148.330000
1929.182982	146.760000
1930.927552	150.885000
1932.670025	148.855000
1934.412138	149.425000
1936.153891	150.510000
1937.895285	150.640000
1939.634585	152.665000
1941.373525	153.615000
1943.112108	152.040000
1944.848598	152.140000
1946.584731	152.060000
1948.322238	151.980000
1950.055923	152.905000
1951.790983	148.385000
1953.523955	147.880000
1955.256570	152.405000
1956.988828	149.905000
1958.720730	154.355000
1960.450546	150.175000
1962.178278	149.595000
1963.907383	154.945000
1965.636134	149.915000
1967.362801	150.445000
1969.089114	150.310000
1970.816800	149.775000
1972.538950	149.230000
1974.264201	151.395000
1975.985646	151.310000
1977.710190	148.100000
1979.432655	151.190000
1981.151316	148.660000
1982.873076	147.450000
1984.591034	149.610000
1986.310365	149.575000
1988.025897	147.795000
1989.746250	151.755000
1991.462803	151.850000
1993.175561	146.585000
1994.891414	146.900000
1996.605194	148.900000
1998.318625	148.410000
2000.029985	150.845000
2001.742718	148.840000
2003.451659	149.595000
2005.163694	151.670000
2006.870219	149.310000
2008.579837	148.450000
2010.287387	150.710000
2011.994590	151.745000
2013.699727	150.880000
2015.404517	151.610000
2017.110679	150.410000
2018.813059	145.980000
2020.516811	150.435000
2022.218499	153.990000
2023.919843	150.260000
2025.620841	148.345000
2027.319779	145.600000
2029.020087	149.195000
2030.716621	148.165000
2032.414526	150.205000
2034.110372	149.005000
2035.809304	145.355000
2037.502750	148.460000
2039.197568	149.790000
2040.892042	149.940000
2042.582748	141.185000
2044.276538	149.495000
2045.966561	150.595000
2047.657955	140.915000
2049.347296	144.565000
2051.038007	143.995000
2052.724956	145.360000
2054.411564	145.500000
2056.099543	141.750000
2057.783762	145.490000
2059.469351	145.620000
2061.154601	143.275000
2062.837803	138.660000
2064.522374	139.845000
2066.201483	140.815000
2067.885377	141.355000
2069.563811	145.115000
2071.245321	145.985000
2072.923081	142.300000
2074.600503	142.710000
2076.279296	135.515000
2077.956045	142.610000
2079.630753	143.045000
2081.306830	141.540000
2082.980867	138.485000
2084.654568	139.655000
2086.327934	142.360000
2087.999262	136.855000
2089.670255	139.815000
2091.340914	139.110000
2093.011238	141.035000
2094.681229	140.635000
2096.349184	136.040000
2098.016806	142.030000
2099.682393	136.880000
2101.349350	143.220000
2103.014272	139.640000
2104.678863	144.010000
2106.341422	141.020000
2108.005349	142.735000
2109.667246	143.125000
2111.328811	140.390000
2112.990045	141.350000
2114.649251	144.365000
2116.308126	144.175000
2117.966672	146.070000
2119.624888	147.645000
2121.279380	143.125000
2122.936937	144.790000
2124.594165	147.635000
2126.247671	141.870000
2127.902545	141.435000
2129.553701	147.640000
2131.207918	144.205000
2132.858419	139.110000
2134.510286	144.270000
2136.156745	140.395000
2137.807959	142.745000
2139.455459	141.540000
2141.104326	139.525000
2142.751175	140.600000
2144.397697	140.770000
2146.043894	139.565000
2147.686383	142.265000
2149.331930	140.715000
2150.973770	143.635000
2152.618667	140.315000
2154.259859	134.755000
2155.900727	137.610000
2157.541271	140.055000
2159.179803	134.450000
2160.819702	136.855000
2162.455900	135.485000
2164.093464	139.110000
2165.730705	137.575000
2167.365937	134.470000
2169.000848	137.695000
2170.635437	132.805000
2172.269704	139.330000
2173.900279	136.790000
2175.533904	133.160000
2177.163838	134.215000
2178.795137	133.265000
2180.424432	136.695000
2182.053406	135.710000
2183.682062	132.770000
2185.310398	134.175000
2186.936731	131.225000
2188.562746	133.020000
2190.186760	135.555000
2191.812138	137.795000
2193.435517	131.865000
2195.060259	135.165000
2196.681321	131.030000
2198.302066	134.600000
2199.924176	133.225000
2201.544288	130.560000
2203.162403	132.340000
2204.780203	132.055000
2206.397688	134.925000
2208.014857	134.300000
2209.631711	136.100000
2211.248250	134.065000
2212.862795	133.180000
2214.475348	128.795000
2216.089265	132.200000
2217.701191	133.035000
2219.314480	130.790000
2220.925779	132.900000
2222.535088	129.400000
2224.145761	136.040000
2225.754445	132.345000
2227.362817	132.400000
2228.969201	129.000000
2230.576949	131.890000
2232.182710	131.700000
2233.788160	132.605000
2235.391625	128.865000
2236.996454	131.850000
2238.599298	133.235000
2240.200159	131.150000
2241.802383	132.180000
2243.402624	132.680000
2245.004228	127.500000
2246.602180	128.890000
2248.201494	131.335000
2249.798828	126.305000
2251.395853	125.720000
2252.994241	130.485000
2254.588980	129.310000
2256.181742	128.350000
2257.775867	132.750000
2259.371353	130.310000
2260.963195	128.320000
2262.554730	130.000000
2264.147626	130.275000
2265.735213	129.755000
2267.327497	126.425000
2268.914473	126.335000
2270.504478	127.550000
2272.089178	124.930000
2273.678572	131.075000
2275.262663	124.295000
2276.848116	127.205000
2278.431599	127.555000
2280.018109	127.345000
2281.600985	127.170000
2283.183557	126.280000
2284.765826	125.285000
2286.344466	123.765000
2287.926129	128.370000
2289.504164	122.950000
2291.085222	128.610000
2292.662654	126.335000
2294.238121	124.060000
2295.816611	125.525000
2297.391477	125.110000
2298.966042	122.290000
2300.540307	121.815000
2302.114271	119.750000
2303.687935	122.940000
2305.261298	124.560000
2306.831043	124.835000
2308.400489	122.645000
2309.972954	123.935000
2311.540143	124.520000
2313.110351	124.360000
2314.676944	120.365000
2316.244897	122.795000
2317.810894	121.220000
2319.376594	123.830000
2320.941997	123.430000
2322.505445	123.770000
2324.070253	126.620000
2325.631453	124.905000
2327.195667	128.955000
2328.754620	128.870000
2330.316586	127.850000
2331.876602	121.140000
2333.436322	119.455000
2334.994093	121.720000
2336.551569	122.955000
2338.108751	125.960000
2339.663986	123.960000
2341.218926	122.425000
2342.773573	119.790000
2344.327926	123.945000
2345.881985	121.610000
2347.435750	121.665000
2348.987572	120.095000
2350.537450	123.465000
2352.090336	120.555000
2353.637980	119.885000
2355.188631	116.640000
2356.735692	121.810000
2358.284110	120.945000
2359.832236	122.235000
2361.376774	123.620000
2362.922671	118.040000
2364.466628	120.370000
2366.011943	118.005000
2367.553673	121.260000
2369.096760	121.090000
2370.637912	121.640000
2372.178774	121.255000
2373.719347	120.615000
2375.259631	117.310000
2376.799625	119.415000
2378.336042	121.685000
2379.875460	120.080000
2381.411301	119.065000
2382.948498	118.285000
2384.482120	116.975000
2386.018743	121.035000
2387.553434	118.410000
2389.086196	114.900000
2390.618671	121.575000
2392.149219	120.165000
2393.682764	119.365000
2395.211098	116.405000
2396.740788	117.685000
2398.270193	114.170000
2399.799312	115.735000
2401.328147	117.785000
2402.851776	119.240000
2404.380042	122.470000
2405.903104	120.135000
2407.430800	118.640000
2408.951657	115.840000
2410.477147	119.555000
2411.999076	119.700000
2413.522361	118.645000
2415.043725	117.100000
2416.563169	114.075000
2418.083968	116.945000
2419.602848	115.535000
2421.121446	120.105000
2422.638127	112.760000
2424.156162	115.530000
2425.673916	115.350000
2427.188119	114.855000
2428.702041	115.565000
2430.215683	118.810000
2431.730680	116.330000
2433.242128	116.750000
2434.754931	115.875000
2436.265821	117.950000
2437.776431	117.440000
2439.285130	117.240000
2440.796816	116.305000
2442.304957	113.570000
2443.812821	113.535000
2445.320407	115.990000
2446.824452	119.180000
2448.331483	114.425000
2449.836605	111.120000
2451.341450	109.760000
2452.844388	113.530000
2454.347049	113.430000
2455.849434	109.200000
2457.349914	111.605000
2458.851747	113.840000
2460.351676	112.065000
2461.851329	111.500000
2463.350706	111.650000
2464.848181	110.190000
2466.343755	112.975000
2467.842308	110.420000
2469.337332	110.410000
2470.833710	110.895000
2472.326561	108.755000
2473.820764	108.770000
2475.314694	110.790000
2476.805101	105.820000
2478.298484	110.795000
2479.789970	109.495000
2481.279559	107.860000
2482.768876	110.175000
2484.256298	110.660000
2485.746695	109.280000
2487.233573	110.180000
2488.721803	112.445000
2490.206517	111.855000
2491.690960	110.795000
2493.176755	110.755000
2494.660657	109.920000
2496.145911	110.660000
2497.626031	107.910000
2499.109123	113.235000
2500.590325	114.515000
2502.071258	113.550000
2503.550302	111.015000
2505.029077	108.475000
2506.507584	111.305000
2507.985823	109.605000
2509.463793	108.990000
2510.938259	107.935000
2512.415693	110.030000
2513.889624	111.620000
2515.364906	110.315000
2516.839920	107.645000
2518.311433	109.025000
2519.784296	109.595000
2521.255277	110.260000
2522.727608	108.395000
2524.194826	110.790000
2525.665009	110.430000
2527.133312	108.250000
2528.601350	110.015000
2530.069123	112.030000
2531.536631	105.805000
2533.003874	110.190000
2534.467625	104.090000
2535.932726	106.415000
2537.395950	109.750000
2538.860524	106.560000
2540.321608	107.560000
2541.784042	108.320000
2543.246213	107.600000
2544.704898	106.040000
2546.168155	105.630000
2547.626315	105.845000
2549.085824	110.625000
2550.540240	112.810000
2551.999225	108.420000
2553.456339	109.130000
2554.911582	105.340000
2556.366564	103.260000
2557.819676	108.130000
2559.274137	107.910000
2560.726729	107.685000
2562.179061	107.065000
2563.629525	105.265000
2565.082945	105.030000
2566.531283	104.190000
2567.982577	105.445000
2569.432004	105.360000
2570.877959	106.265000
2572.326870	108.385000
2573.772309	103.675000
2575.219097	104.700000
2576.664021	106.945000
2578.108688	106.500000
2579.554702	108.820000
2580.997249	106.985000
2582.441144	106.905000
2583.881574	105.745000
2585.323351	105.750000
2586.763269	101.270000
2588.204534	104.005000
2589.642338	103.410000
2591.083091	101.765000
2592.518781	103.035000
2593.957421	107.010000
2595.394204	106.175000
2596.829130	104.770000
2598.267005	102.955000
2599.699821	102.195000
2601.133985	104.510000
2602.566295	105.720000
2603.999951	102.880000
2605.431754	103.080000
2606.863304	104.415000
2608.294600	106.155000
2609.724044	102.465000
2611.153237	102.475000
2612.580578	98.270000
2614.009266	102.650000
2615.437701	101.555000
2616.862689	102.730000
2618.289024	101.955000
2619.713510	99.065000
2621.139342	98.610000
2622.561730	101.510000
2623.985464	103.210000
2625.407351	100.045000
2626.828989	100.120000
2628.248781	101.880000
2629.669919	100.015000
2631.090807	101.685000
2632.508257	101.060000
2633.928646	100.340000
2635.345598	101.715000
2636.762302	105.135000
2638.178757	96.985000
2639.594964	101.420000
2641.010922	99.655000
2642.425040	100.965000
2643.838911	100.145000
2645.250942	101.000000
2646.664318	99.680000
2648.074264	97.235000
2649.487145	97.465000
2650.896599	99.775000
2652.305806	101.460000
2653.713177	99.620000
2655.123482	101.895000
2656.531951	101.590000
2657.938585	101.980000
2659.344974	98.325000
2660.749529	97.830000
2662.155428	98.070000
2663.559494	100.130000
2664.963316	96.580000
2666.366893	96.750000
2667.768638	99.560000
2669.171727	99.885000
2670.571399	97.940000
2671.972413	99.180000
2673.370012	98.325000
2674.770541	97.575000
2676.167655	99.180000
2677.566112	98.125000
2678.962741	99.125000
2680.359128	101.745000
2681.755274	98.700000
2683.149593	98.585000
2684.545255	98.730000
2685.937507	96.130000
2687.331103	96.255000
2688.722874	100.810000
2690.115987	96.865000
2691.507277	96.590000
2692.896744	94.975000
2694.285971	93.755000
2695.674959	95.135000
2697.065289	95.700000
2698.450634	96.935000
2699.838903	98.425000
2701.225352	90.525000
2702.611562	91.720000
2703.997534	98.295000
2705.380106	95.955000
2706.764021	92.635000
2708.147698	93.700000
2709.531137	98.685000
2710.911180	93.965000
2712.292565	96.850000
2713.672134	95.830000
2715.053045	95.100000
2716.432141	93.110000
2717.809422	97.135000
2719.188045	96.400000
2720.564855	93.270000
2721.941429	98.235000
2723.317767	96.200000
2724.692293	98.360000
2726.068160	93.650000
2727.440640	94.545000
2728.816036	90.735000
2730.186472	94.670000
2731.558249	92.260000
2732.929791	89.615000
2734.299525	94.115000
2735.670600	93.930000
2737.039867	93.920000
2738.408900	93.065000
2739.776126	91.935000
2741.143120	97.500000
2742.509881	92.505000
2743.876409	90.215000
2745.241132	93.120000
2746.605624	90.030000
2747.969883	89.330000
2749.333910	91.950000
2750.697706	92.675000
2752.058128	94.130000
2753.421461	91.575000
2754.779851	93.570000
2756.141151	95.380000
2757.499080	89.165000
2758.859919	90.570000
2760.218957	89.900000
2761.574627	88.280000
2762.933205	88.140000
2764.288417	89.910000
2765.643399	90.220000
2766.996584	89.580000
2768.352676	89.410000
2769.705404	89.070000
2771.057903	90.540000
2772.410174	87.675000
2773.763784	89.020000
2775.114032	84.705000
2776.462487	87.295000
2777.813846	88.250000
2779.161846	90.820000
2780.511185	87.040000
2781.858731	86.740000
2783.206050	88.460000
2784.553143	90.355000
2785.898445	85.565000
2787.243521	85.790000
2788.588371	84.655000
2789.932994	90.260000
2791.274266	89.770000
2792.616876	84.370000
2793.959260	86.145000
2795.301420	88.500000
2796.640230	86.945000
2797.981939	86.900000
2799.320301	86.605000
2800.660000	83.070000
2801.997913	88.850000
2803.334042	82.790000
2804.669947	85.260000
2806.007190	86.170000
2807.342649	86.315000
2808.677885	87.485000
2810.011338	86.170000
2811.346129	88.590000
2812.677578	83.535000
2814.011923	85.355000
2815.341370	86.960000
2816.672154	86.360000
2818.002716	86.095000
2819.331499	87.995000
2820.661618	85.285000
2821.989959	84.115000
2823.318079	84.020000
2824.644422	86.580000
2825.972100	86.360000
2827.296446	83.305000
2828.622127	86.630000
2829.946033	85.285000
2831.269720	81.835000
2832.594742	84.505000
2833.916434	83.745000
2835.237908	86.260000
2836.559163	84.280000
2837.880199	77.275000
2839.199463	82.595000
2840.520062	84.175000
2841.838889	86.515000
2843.157498	81.015000
2844.474336	80.665000
2845.790958	82.855000
2847.107361	83.615000
2848.421996	80.815000
2849.737965	82.200000
2851.050614	81.500000
2852.364599	82.170000
2853.678366	81.305000
2854.991918	81.280000
2856.303702	82.665000
2857.613720	81.625000
2858.925073	79.955000
2860.233111	82.235000
2861.542484	85.155000
2862.851641	84.915000
2864.160583	82.435000
2865.467762	81.940000
2866.773177	81.470000
2868.079927	79.000000
2869.384914	78.905000
2870.689688	79.055000
2871.992700	82.430000
2873.298594	84.315000
2874.599632	84.460000
2875.902005	80.015000
2877.202618	81.340000
2878.504565	83.040000
2879.806299	81.235000
2881.104728	82.580000
2882.404492	82.035000
2883.702497	81.155000
2885.000291	80.735000
2886.296329	82.335000
2887.593700	83.395000
2888.889315	79.305000
2890.184719	82.990000
2891.479913	83.865000
2892.771808	80.610000
2894.066580	82.070000
2895.358055	75.155000
2896.650863	78.520000
2897.943461	81.875000
2899.232765	80.270000
2900.523401	77.770000
2901.812286	81.655000
2903.102504	80.445000
2904.389430	81.280000
2905.677688	75.985000
2906.964196	78.915000
2908.250497	76.310000
2909.536589	82.465000
2910.820933	81.705000
2912.108149	77.765000
2913.390537	80.795000
2914.674258	78.715000
2915.956233	80.420000
2917.238001	77.565000
2918.518023	79.185000
2919.800915	81.295000
2921.082062	75.315000
2922.359927	80.765000
2923.640661	81.040000
2924.918114	76.635000
2926.195361	74.255000
2927.470867	77.530000
2928.749240	78.610000
2930.022798	80.035000
2931.299224	78.605000
2932.573909	76.245000
2933.846854	75.120000
2935.121129	77.145000
2936.393665	79.270000
2937.665997	76.995000
2938.935055	74.720000
2940.206979	74.880000
2941.477165	78.720000
2942.747148	75.695000
2944.016927	75.765000
2945.284969	73.665000
2946.551276	76.990000
2947.817380	74.310000
2949.084814	76.660000
2950.350514	76.835000
2951.616011	75.995000
2952.881306	77.075000
2954.143336	74.940000
2955.406697	76.905000
2956.669855	74.005000
2957.931282	75.095000
2959.194038	72.055000
2960.455063	75.730000
2961.714356	75.545000
2962.973450	76.445000
2964.232343	74.335000
2965.491036	75.040000
2966.749529	75.455000
2968.006293	78.355000
2969.262857	72.395000
2970.517694	74.150000
2971.773860	72.975000
2973.026770	76.070000
2974.281010	70.785000
2975.535051	75.190000
2976.787366	70.565000
2978.039483	74.830000
2979.289875	72.665000
2980.543122	69.220000
2981.791592	71.845000
2983.042916	70.105000
2984.290992	75.190000
2985.538870	71.670000
2986.786551	74.030000
2988.034036	73.500000
2989.279799	73.700000
2990.525365	71.735000
2991.772259	76.755000
2993.015909	72.450000
2994.260887	70.720000
2995.502622	71.185000
2996.747208	72.655000
2997.990074	68.980000
2999.229700	75.630000
3000.472176	68.670000
3001.711413	71.695000
3002.951977	70.070000
3004.190824	69.435000
3005.429477	70.600000
3006.666414	70.295000
3007.904678	74.880000
3009.141228	72.135000
3010.377583	68.635000
3011.613745	72.180000
3012.848194	72.350000
3014.082449	70.695000
3015.316511	69.485000
3016.548861	68.200000
3017.779499	72.700000
3019.012983	69.055000
3020.244755	73.775000
3021.474817	69.455000
3022.704687	67.745000
3023.932847	70.995000
3025.162333	70.305000
3026.390111	68.605000
3027.617697	66.940000
3028.846609	66.555000
3030.070779	70.205000
3031.297792	67.445000
3032.521581	67.020000
3033.746697	68.895000
3034.970106	67.280000
3036.193326	68.175000
3037.414840	66.885000
3038.639195	68.960000
3039.858815	68.610000
3041.079760	71.570000
3042.300517	70.210000
3043.519570	73.570000
3044.739949	65.220000
3045.957111	68.950000
3047.175598	67.020000
3048.392384	70.385000
3049.608981	69.705000
3050.825390	64.760000
3052.038587	68.655000
3053.254621	69.500000
3054.467443	66.410000
3055.683102	70.360000
3056.894038	66.745000
3058.106299	71.015000
3059.318374	67.160000
3060.530262	66.400000
3061.740452	67.600000
3062.950456	69.655000
3064.160275	64.465000
3065.368397	66.980000
3066.576333	68.670000
3067.782575	66.265000
3068.990140	67.385000
3070.196012	66.775000
3071.401698	66.165000
3072.607199	67.320000
3073.811007	68.065000
3075.016139	65.245000
3076.219579	65.150000
3077.421326	62.680000
3078.622890	67.775000
3079.824270	65.755000
3081.025466	65.045000
3082.224972	67.895000
3083.424294	66.340000
3084.624940	67.055000
3085.823896	64.115000
3087.019658	65.455000
3088.218249	60.670000
3089.413646	61.755000
3090.610366	63.820000
3091.803894	63.450000
3093.000251	66.310000
3094.194920	64.240000
3095.386399	63.990000
3096.582209	66.620000
3097.773326	63.165000
3098.965765	63.805000
3100.155017	62.790000
3101.347095	63.880000
3102.537488	63.635000
3103.724696	59.915000
3104.913227	65.055000
3106.103080	64.115000
3107.289748	62.650000
3108.476237	64.970000
3109.662546	58.440000
3110.850177	65.460000
3112.034627	62.305000
3113.217396	62.215000
3114.402989	61.050000
3115.586901	61.350000
3116.769135	58.680000
3117.951190	58.670000
3119.133068	58.780000
3120.314767	63.660000
3121.494788	64.055000
3122.673133	62.540000
3123.854299	60.780000
3125.032289	61.785000
3126.210102	59.805000
3127.387738	60.725000
3128.563699	60.035000
3129.739483	63.515000
3130.916589	61.820000
3132.092020	55.760000
3133.265778	59.910000
3134.437864	61.345000
3135.611270	61.880000
3136.784501	58.420000
3137.956059	57.810000
3139.128939	62.995000
3140.298651	63.145000
3141.469684	60.055000
3142.639046	61.600000
3143.806739	60.010000
3144.977247	61.935000
3146.143096	58.800000
3147.313255	61.740000
3148.478756	62.040000
3149.644084	62.255000
3150.809238	62.660000
3151.974218	58.090000
3153.140519	62.465000
3154.302166	57.255000
3155.465134	58.040000
3156.627928	57.530000
3157.790550	61.165000
3158.951507	60.280000
3160.112291	57.645000
3161.272903	54.935000
3162.431852	60.700000
3163.590628	59.080000
3164.749233	58.115000
3165.907666	60.020000
3167.065927	54.345000
3168.222526	55.870000
3169.377464	60.445000
3170.533721	54.585000
3171.688318	59.470000
3172.842743	57.815000
3173.995509	57.975000
3175.148105	57.550000
3176.300530	59.260000
3177.452786	55.825000
3178.604872	54.630000
3179.753811	60.930000
3180.905557	58.390000
3182.055645	59.170000
3183.204077	56.780000
3184.352340	60.375000
3185.500433	53.805000
3186.648358	56.515000
3187.794628	58.350000
3188.940729	58.770000
3190.085175	56.080000
3191.229454	55.375000
3192.373565	55.005000
3193.518994	57.620000
3194.661283	59.205000
3195.803406	55.675000
3196.945361	54.800000
3198.087150	58.145000
3199.228771	53.550000
3200.367256	56.235000
3201.507059	57.795000
3202.648180	57.135000
3203.786166	54.830000
3204.922503	55.805000
3206.058674	52.705000
3207.196163	53.885000
3208.332002	53.750000
3209.469159	58.460000
3210.601703	56.365000
3211.738529	55.340000
3212.870743	56.115000
3214.004275	54.760000
3215.137641	55.925000
3216.267880	54.140000
3217.400917	55.965000
3218.530828	57.315000
3219.662056	55.220000
3220.790158	56.525000
3221.921057	55.600000
3223.050313	55.555000
3224.177924	52.555000
3225.302414	51.980000
3226.431179	52.340000
3227.556822	53.210000
3228.682302	55.345000
3229.806141	56.255000
3230.932774	52.960000
3232.054810	51.660000
3233.178162	55.885000
3234.301352	53.500000
3235.424380	51.480000
3236.545768	55.255000
3237.666995	52.065000
3238.786583	55.530000
3239.906010	49.955000
3241.023799	54.670000
3242.144381	51.625000
3243.261848	52.775000
3244.379156	51.730000
3245.496302	50.265000
3246.611813	54.155000
3247.728639	53.910000
3248.842354	52.200000
3249.958860	56.295000
3251.073730	53.095000
3252.185492	48.500000
3253.297095	54.435000
3254.410012	51.150000
3255.522771	49.910000
3256.632423	52.580000
3257.743390	52.340000
3258.854197	53.905000
3259.963374	48.920000
3261.070919	51.315000
3262.179779	50.005000
3263.288480	54.965000
3264.394079	50.380000
3265.500992	55.140000
3266.606277	53.235000
3267.712875	53.195000
3268.816373	50.990000
3269.921185	51.895000
3271.025840	57.140000
3272.127396	52.445000
3273.228797	53.795000
3274.331511	49.345000
3275.434068	51.475000
3276.533530	52.775000
3277.635774	54.240000
3278.734923	46.740000
3279.832448	51.650000
3280.929817	50.140000
3282.029969	52.290000
3283.127027	53.560000
3284.223930	49.910000
3285.320679	49.000000
3286.412868	50.550000
3287.509306	50.860000
3288.604123	49.825000
3289.698784	53.020000
3290.791824	49.830000
3291.884710	51.020000
3292.975975	49.310000
3294.068553	50.695000
3295.159510	49.675000
3296.248848	50.470000
3297.338033	53.600000
3298.428531	52.100000
3299.515944	53.240000
3300.603205	49.065000
3301.691778	49.485000
3302.780198	46.660000
3303.864071	47.075000
3304.952186	50.505000
3306.037220	51.770000
3307.120637	46.905000
3308.205367	49.180000
3309.288482	56.425000
3310.372908	49.770000
3311.454256	48.265000
3312.536916	49.245000
3313.617962	50.365000
3314.698857	45.670000
3315.778139	48.660000
3316.857270	50.540000
3317.937712	51.400000
3319.015081	50.325000
3320.093760	46.115000
3321.170829	45.385000
3322.247747	46.960000
3323.323054	48.650000
3324.398212	48.200000
3325.474681	45.755000
3326.548080	50.235000
3327.621330	47.970000
3328.695891	44.625000
3329.768842	47.250000
3330.840186	47.465000
3331.912840	49.115000
3332.982427	51.970000
3334.053325	47.885000
3335.122616	45.590000
3336.193218	46.670000
3337.262213	46.720000
3338.329602	45.785000
3339.395386	42.170000
3340.465396	46.455000
3341.532343	41.035000
3342.596228	46.955000
3343.662881	48.420000
3344.727929	47.665000
3345.791374	43.100000
3346.854673	48.645000
3347.917826	47.470000
3348.980832	43.595000
3350.043691	47.100000
3351.104949	47.690000
3352.163150	46.285000
3353.225572	47.665000
3354.284937	45.550000
3355.344157	44.410000
3356.404687	46.485000
3357.460707	47.370000
3358.519492	48.870000
3359.573769	48.770000
3360.630809	45.430000
3361.686252	44.505000
3362.743003	43.845000
3363.798157	46.535000
3364.851713	41.335000
3365.903672	47.055000
3366.958393	47.340000
3368.010065	45.150000
3369.061594	45.920000
3370.114432	45.825000
3371.164222	46.690000
3372.215320	48.135000
3373.263373	44.040000
3374.314186	44.010000
3375.361953	44.725000
3376.409578	45.035000
3377.457060	43.225000
3378.502950	45.275000
3379.550148	41.975000
3380.594304	44.920000
3381.641218	47.115000
3382.686540	44.685000
3383.728822	47.465000
3384.770962	45.535000
3385.814410	45.260000
3386.857718	44.225000
3387.899435	44.985000
3388.941011	44.230000
3389.982447	41.110000
3391.022293	42.135000
3392.060552	45.190000
3393.100118	46.365000
3394.139543	43.775000
3395.177381	45.225000
3396.213633	46.440000
3397.249744	45.600000
3398.287163	45.305000
3399.321549	41.245000
3400.357242	44.130000
3401.392796	39.180000
3402.425319	45.305000
3403.460595	40.775000
3404.492840	41.035000
3405.524947	45.980000
3406.555470	47.380000
3407.587301	43.830000
3408.618992	46.080000
3409.647657	44.550000
3410.676183	42.905000
3411.706017	43.100000
3412.735712	41.180000
3413.762382	45.460000
3414.790359	41.145000
3415.815311	46.895000
3416.843013	37.975000
3417.867692	41.835000
3418.893677	44.270000
3419.918082	41.215000
3420.942351	42.205000
3421.965041	45.925000
3422.987595	40.675000
3424.011455	40.935000
3425.032295	43.405000
3426.053000	42.515000
3427.075010	45.560000
3428.094002	43.225000
3429.112859	42.560000
3430.133021	39.855000
3431.150167	41.835000
