-117.897011	-0.410000
-115.227411	0.910000
-112.560746	2.750000
-109.894833	0.020000
-107.231852	0.410000
-104.567442	4.510000
-101.905962	0.730000
-99.243052	5.020000
-96.585250	0.060000
-93.926017	-0.170000
-91.267533	-0.180000
-88.611974	7.110000
-85.954986	2.740000
-83.303095	3.320000
-80.649775	-0.360000
-77.999375	8.740000
-75.347545	2.510000
-72.700806	4.750000
-70.052637	2.760000
-67.405212	7.750000
-64.760700	6.350000
-62.114760	3.570000
-59.473901	-1.930000
-56.831613	6.910000
-54.192233	4.120000
-51.551425	3.970000
-48.911357	6.390000
-46.276361	1.740000
-43.639936	2.160000
-41.006415	5.210000
-38.371465	2.700000
-35.741580	6.420000
-33.108103	8.090000
-30.479688	8.190000
-27.852006	2.340000
-25.222897	6.900000
-22.598844	16.000000
-19.971202	12.540000
-17.348613	19.960000
-14.726755	30.590000
-12.105629	63.070000
-9.485232	138.720000
-6.867723	480.210000
-4.248786	1492.950000
-1.632735	3791.650000
0.982588	6255.180000
3.597184	4322.240000
6.208897	523.080000
8.822039	57.170000
11.430147	36.320000
14.041837	26.940000
16.648496	20.360000
19.256583	13.230000
21.863946	10.780000
24.466284	7.410000
27.072200	5.630000
29.673094	4.550000
32.275417	16.590000
34.872721	10.940000
37.473601	8.120000
40.069467	5.250000
42.666760	2.490000
45.263334	5.420000
47.854899	2.380000
50.447892	6.570000
53.038024	-1.540000
55.629584	5.760000
58.218284	7.930000
60.808411	3.580000
63.393540	9.150000
65.980096	8.080000
68.565937	6.920000
71.148925	4.950000
73.733340	-2.170000
76.310625	9.980000
78.891477	2.700000
81.469480	2.480000
84.046773	11.600000
86.625492	8.640000
89.199230	6.400000
91.774394	1.840000
94.346715	8.870000
96.918328	7.030000
99.487102	10.130000
102.057302	7.610000
104.624663	8.170000
107.193451	9.870000
109.759401	8.440000
112.322517	14.950000
114.889189	7.540000
117.446640	9.950000
120.009776	21.630000
122.567953	22.380000
125.129683	32.540000
127.686458	48.050000
130.244658	70.430000
132.797906	108.890000
135.350455	145.530000
137.906555	204.940000
140.457708	275.560000
143.008162	336.530000
145.557920	386.260000
148.104858	432.950000
150.651100	452.130000
153.198768	473.220000
155.745741	478.830000
158.287777	472.350000
160.829120	466.420000
163.369770	465.210000
165.911846	458.870000
168.451111	473.230000
170.987566	470.530000
173.523331	457.940000
176.060521	457.140000
178.597019	455.470000
181.130712	445.410000
183.661602	448.270000
186.191803	439.710000
188.723429	434.620000
191.252254	435.160000
193.778280	438.400000
196.303621	432.690000
198.830386	436.550000
201.354354	434.840000
203.877638	437.180000
206.400237	440.240000
208.920043	434.070000
211.439166	438.300000
213.957606	443.030000
216.477470	449.820000
218.990333	452.690000
221.506727	459.420000
224.022439	461.160000
226.533262	471.100000
229.045509	470.000000
231.554973	475.670000
234.063759	478.470000
236.571867	491.490000
239.081398	488.040000
241.586050	488.460000
244.090025	480.160000
246.595424	479.510000
249.095948	473.320000
251.599995	466.230000
254.097072	465.740000
256.597671	464.760000
259.095499	469.600000
261.592654	466.210000
264.089136	467.760000
266.580756	466.100000
269.075894	475.260000
271.568267	468.810000
274.059969	478.880000
276.548908	480.190000
279.039270	488.910000
281.526871	491.570000
284.011712	497.830000
286.500067	495.550000
288.981483	508.060000
291.466413	514.930000
293.946498	513.280000
296.430095	528.350000
298.908849	545.800000
301.389027	553.090000
303.866452	565.070000
306.343214	542.390000
308.819313	524.840000
311.292663	506.760000
313.765351	505.360000
316.237378	505.470000
318.708744	509.750000
321.177366	524.020000
323.645328	514.520000
326.114713	492.830000
328.579275	473.350000
331.047340	466.110000
333.510586	465.470000
335.973175	451.390000
338.435106	450.190000
340.896381	441.880000
343.354922	435.900000
345.814885	438.460000
348.272115	427.300000
350.728691	425.610000
353.184613	417.760000
355.637806	407.610000
358.092420	411.730000
360.542233	403.510000
362.995543	411.380000
365.444053	399.550000
367.891913	390.920000
370.341194	384.210000
372.785682	383.980000
375.231592	381.880000
377.676853	380.060000
380.119395	381.820000
382.561289	372.660000
385.002535	377.150000
387.441066	375.270000
389.881019	369.240000
392.318258	365.730000
394.752785	362.610000
397.190800	372.200000
399.624038	370.610000
402.058698	371.950000
404.488584	373.270000
406.921956	365.010000
409.350558	371.390000
411.778519	363.370000
414.207900	364.730000
416.632516	362.340000
419.058554	359.060000
421.483951	351.340000
423.908708	346.890000
426.328707	348.280000
428.750127	345.260000
431.168850	340.060000
433.588994	337.060000
436.006443	335.330000
438.425312	314.530000
440.841488	315.300000
443.252917	310.320000
445.667822	307.190000
448.080037	294.580000
450.491618	289.570000
452.902565	287.640000
455.310826	279.870000
457.718454	279.050000
460.125451	277.010000
462.531815	271.460000
464.935497	277.550000
467.338549	277.440000
469.740971	282.220000
472.142764	280.090000
474.541878	285.000000
476.942412	290.430000
479.342317	289.470000
481.737499	295.460000
484.136148	302.320000
486.530077	317.020000
488.923380	325.020000
491.316057	340.510000
493.708109	360.150000
496.101580	388.270000
498.490338	446.450000
500.876430	522.840000
503.263942	640.580000
505.650830	837.850000
508.035055	1148.620000
510.420699	1613.260000
512.803680	2270.520000
515.184001	2958.050000
517.565741	3483.170000
519.944822	3485.730000
522.325322	3137.490000
524.703164	2626.440000
527.078351	2169.770000
529.452920	1807.510000
531.828908	1555.650000
534.202242	1346.820000
536.576994	1195.160000
538.947061	1086.530000
541.316512	988.330000
543.687381	900.550000
546.053570	840.620000
548.421177	789.450000
550.786138	742.270000
553.150486	696.590000
555.514222	674.060000
557.879375	649.600000
560.239855	625.210000
562.601754	602.940000
564.961013	579.940000
567.317633	567.750000
569.677698	546.200000
572.031073	533.270000
574.387892	517.950000
576.742075	503.550000
579.095651	491.210000
581.448618	471.000000
583.798954	460.600000
586.150706	454.970000
588.495782	435.480000
590.846322	426.300000
593.190189	415.480000
595.539516	407.910000
597.884196	403.220000
600.226250	399.340000
602.569722	399.270000
604.910571	404.390000
607.250818	402.340000
609.588444	415.210000
611.929505	430.410000
614.265929	448.780000
616.603769	454.990000
618.938991	449.700000
621.271598	436.130000
623.605621	420.410000
625.937031	405.910000
628.267842	393.890000
630.598055	381.370000
632.927670	375.130000
635.252663	382.420000
637.583097	374.720000
639.908909	378.750000
642.232115	376.300000
644.556736	369.260000
646.878753	363.390000
649.200175	360.050000
651.518994	359.560000
653.839229	362.170000
656.158871	357.230000
658.475912	358.470000
660.792361	355.040000
663.106213	358.750000
665.421479	359.640000
667.734149	358.590000
670.048234	356.790000
672.357719	359.940000
674.668620	361.200000
676.976928	349.240000
679.284648	346.920000
681.593783	339.870000
683.898325	334.140000
686.202280	335.520000
688.505650	327.050000
690.810434	314.110000
693.110632	306.900000
695.412244	304.590000
697.713272	305.260000
700.009717	296.780000
702.307578	292.800000
704.604855	292.610000
706.901549	293.440000
709.193667	282.900000
711.489196	293.150000
713.780152	291.070000
716.072522	289.850000
718.362316	288.020000
720.651531	288.940000
722.940165	292.350000
725.226228	289.730000
727.513704	289.500000
729.798610	282.880000
732.082937	281.800000
734.364696	278.580000
736.647869	281.930000
738.930465	282.140000
741.208506	282.560000
743.487960	277.580000
745.766839	279.510000
748.045142	277.770000
750.318896	282.310000
752.594064	280.810000
754.868658	272.200000
757.140693	273.000000
759.414140	271.330000
761.685030	270.960000
763.953364	276.320000
766.223111	272.750000
768.490304	273.040000
770.756926	270.310000
773.022979	274.630000
775.286479	277.430000
777.551393	270.310000
779.815737	271.790000
782.075552	275.420000
784.336780	272.960000
786.597440	268.780000
788.855553	273.940000
791.111122	277.410000
793.370082	278.770000
795.622543	283.940000
797.880371	280.530000
800.133679	278.800000
802.384448	281.600000
804.636629	277.720000
806.886272	284.870000
809.137326	283.030000
811.383869	283.700000
813.631825	281.310000
815.877245	286.360000
818.124077	276.950000
820.370348	281.030000
822.612115	279.690000
824.857264	281.410000
827.095941	289.010000
829.338001	290.580000
831.575562	278.200000
833.814534	283.310000
836.050980	283.720000
838.288837	278.900000
840.524170	279.680000
842.756978	279.750000
844.991198	280.790000
847.222896	286.060000
849.454039	275.580000
851.684627	281.080000
853.914661	280.480000
856.144140	274.090000
858.369138	276.660000
860.597511	264.200000
862.821405	263.710000
865.046709	259.710000
867.267538	256.640000
869.491739	260.680000
871.711467	256.260000
873.932606	255.840000
876.153194	262.790000
878.371272	255.810000
880.590761	251.420000
882.805783	252.800000
885.020257	247.470000
887.234184	251.160000
889.447563	243.360000
891.660395	239.290000
893.872681	245.800000
896.082464	253.660000
898.291702	247.120000
900.500395	253.450000
902.706589	260.790000
904.914192	262.930000
907.119298	264.550000
909.323860	268.220000
911.525926	267.410000
913.729402	273.250000
915.930384	284.270000
918.130825	285.790000
920.332674	295.000000
922.528131	299.820000
924.726948	323.580000
926.921327	340.830000
929.119062	373.930000
931.312362	399.450000
933.507071	443.170000
935.699294	475.540000
937.890979	512.070000
940.082126	544.980000
942.270790	556.290000
944.458917	561.940000
946.644564	551.160000
948.833563	556.670000
951.018139	554.780000
953.202180	557.690000
955.389571	563.470000
957.568658	579.830000
959.751096	570.430000
961.933000	585.720000
964.112430	589.400000
966.289387	591.820000
968.467751	590.520000
970.647523	598.750000
972.820946	599.940000
974.997715	602.490000
977.170078	604.140000
979.343847	600.510000
981.513213	580.550000
983.685924	562.590000
985.856168	535.690000
988.025884	492.390000
990.195071	456.220000
992.359861	428.530000
994.527992	403.490000
996.691729	385.560000
998.856872	375.630000
1001.019557	373.890000
1003.181715	358.370000
1005.341417	344.290000
1007.500595	340.470000
1009.661179	319.750000
1011.819308	310.380000
1013.976913	298.710000
1016.133995	292.570000
1018.290554	291.790000
1020.442733	290.570000
1022.596318	277.330000
1024.749382	278.760000
1026.899998	280.310000
1029.052019	267.690000
1031.199667	271.710000
1033.350647	261.010000
1035.497256	262.180000
1037.643347	258.520000
1039.788918	257.440000
1041.935895	255.370000
1044.076584	250.100000
1046.220601	255.750000
1048.362178	255.420000
1050.503239	254.740000
1052.645704	256.720000
1054.781890	251.050000
1056.921402	260.460000
1059.056558	258.240000
1061.195039	253.620000
1063.329166	258.210000
1065.462780	252.970000
1067.597799	252.230000
1069.728468	247.920000
1071.860542	250.720000
1073.990187	250.480000
1076.119320	251.630000
1078.247941	242.470000
1080.376051	257.270000
1082.501735	248.250000
1084.626909	242.060000
1086.753487	239.990000
1088.875728	242.840000
1090.999372	243.900000
1093.118683	246.160000
1095.243222	242.650000
1097.361516	241.170000
1099.481215	247.670000
1101.598495	242.380000
1103.715269	238.700000
1105.831536	242.070000
1107.945388	237.870000
1110.060643	238.720000
1112.171576	242.210000
1114.285820	238.020000
1116.395744	233.090000
1118.507072	230.780000
1120.617895	228.810000
1122.724403	226.800000
1124.834219	227.330000
1126.939721	226.300000
1129.046626	232.280000
1131.147316	225.420000
1133.253218	228.040000
1135.354811	230.160000
1137.457807	225.200000
1139.560302	219.060000
1141.656591	216.390000
1143.758086	222.560000
1145.855279	221.850000
1147.951973	222.560000
1150.048169	221.470000
1152.143868	224.410000
1154.239069	220.810000
1156.331873	229.350000
1158.426079	223.860000
1160.514094	218.600000
1162.607307	218.250000
1164.694332	223.700000
1166.784656	220.950000
1168.870693	218.960000
1170.960027	224.270000
1173.043180	222.540000
1175.127736	222.340000
1177.213692	222.220000
1179.295367	223.580000
1181.378444	222.970000
1183.459135	229.820000
1185.539334	228.630000
1187.619042	218.030000
1189.698259	224.370000
1191.775094	225.950000
1193.849548	221.580000
1195.927294	220.990000
1198.000769	218.330000
1200.075645	218.870000
1202.146254	216.310000
1204.218265	218.750000
1206.287899	214.800000
1208.358934	211.740000
1210.429481	215.330000
1212.495767	210.410000
1214.563454	207.820000
1216.628769	215.170000
1218.695484	213.860000
1220.757943	215.220000
1222.823687	218.720000
1224.885178	218.680000
1226.948068	216.740000
1229.008591	224.620000
1231.068630	222.940000
1233.128187	215.360000
1235.185378	224.500000
1237.242088	217.560000
1239.296435	215.480000
1241.354062	211.700000
1243.409327	216.930000
1245.460351	215.250000
1247.512775	215.630000
1249.564719	208.380000
1251.614305	208.800000
1253.663412	217.970000
1255.712041	211.610000
1257.760191	214.410000
1259.807863	219.450000
1261.851304	221.380000
1263.898020	224.320000
1265.942384	228.740000
1267.986270	228.840000
1270.027806	227.900000
1272.066992	226.890000
1274.109450	223.520000
1276.147686	221.430000
1278.187321	232.340000
1280.226481	227.110000
1282.261422	224.780000
1284.297763	227.750000
1286.331758	220.480000
1288.367152	228.600000
1290.398332	227.490000
1292.430911	227.640000
1294.463017	231.370000
1296.492783	232.840000
1298.523947	232.400000
1300.550903	233.740000
1302.579257	229.510000
1304.603407	231.590000
1306.630821	231.550000
1308.654033	225.100000
1310.678643	226.970000
1312.700919	231.630000
1314.724592	235.380000
1316.745932	233.600000
1318.766804	235.360000
1320.787210	231.900000
1322.803421	233.230000
1324.821031	227.920000
1326.836312	229.810000
1328.854851	233.060000
1330.869202	234.990000
1332.881227	232.670000
1334.896509	241.240000
1336.907606	237.310000
1338.920100	241.390000
1340.928411	249.960000
1342.939978	253.020000
1344.945505	260.300000
1346.954288	256.650000
1348.958893	260.540000
1350.966752	270.430000
1352.974149	266.120000
1354.975515	259.220000
1356.978278	264.270000
1358.980580	256.060000
1360.982423	257.000000
1362.983806	248.290000
1364.982876	248.010000
1366.981487	227.830000
1368.979640	235.510000
1370.977335	241.710000
1372.970866	238.840000
1374.965794	233.070000
1376.960265	235.170000
1378.954279	224.140000
1380.945986	230.070000
1382.937237	216.040000
1384.926183	218.990000
1386.916524	224.430000
1388.906410	212.660000
1390.893993	217.290000
1392.881121	213.510000
1394.865949	209.150000
1396.852170	210.380000
1398.836092	213.220000
1400.819561	205.810000
1402.802578	211.160000
1404.783296	204.250000
1406.765410	214.980000
1408.745226	211.960000
1410.724592	215.690000
1412.699818	213.210000
1414.678284	211.100000
1416.654455	212.520000
1418.630178	210.920000
1420.605451	211.030000
1422.578433	209.840000
1424.550967	208.330000
1426.523054	208.530000
1428.494692	209.340000
1430.462202	206.200000
1432.434787	211.290000
1434.399565	215.600000
1436.369416	210.910000
1438.335142	218.450000
1440.302261	215.000000
1442.267097	211.110000
1444.227814	215.230000
1446.193598	209.540000
1448.153427	220.200000
1450.114649	220.270000
1452.077264	222.770000
1454.035764	219.960000
1455.993822	223.200000
1457.951437	226.700000
1459.908611	226.660000
1461.863509	225.690000
1463.819799	227.560000
1465.773815	224.440000
1467.727391	225.700000
1469.678694	226.900000
1471.631389	227.170000
1473.581813	228.750000
1475.531798	227.550000
1477.481343	230.840000
1479.428620	230.680000
1481.373630	227.900000
1483.320031	229.850000
1485.265996	228.200000
1487.211522	222.790000
1489.154784	225.380000
1491.097609	225.120000
1493.038171	224.420000
1494.980124	223.680000
1496.919816	227.580000
1498.859072	223.640000
1500.797893	226.830000
1502.734455	227.290000
1504.672408	222.430000
1506.608103	233.670000
1508.543364	232.340000
1510.476368	231.520000
1512.408940	233.120000
1514.341080	231.740000
1516.272788	241.050000
1518.202242	239.740000
1520.133087	234.490000
1522.063501	242.360000
1523.989841	240.930000
1525.917573	247.660000
1527.843054	251.280000
1529.768106	248.780000
1531.692729	260.650000
1533.616923	256.970000
1535.538870	263.430000
1537.462206	276.870000
1539.383297	282.520000
1541.302143	285.110000
1543.222379	295.510000
1545.140371	303.620000
1547.057937	317.590000
1548.973261	329.430000
1550.889975	350.410000
1552.802634	367.680000
1554.718497	388.570000
1556.632120	414.090000
1558.543506	450.330000
1560.456280	481.550000
1562.365005	532.790000
1564.275120	605.760000
1566.184811	705.030000
1568.094078	822.820000
1570.001112	988.780000
1571.905913	1168.800000
1573.812103	1391.170000
1575.716061	1615.040000
1577.619599	1814.490000
1579.522715	1965.730000
1581.423603	2005.610000
1583.325878	1901.710000
1585.225926	1705.520000
1587.127361	1481.510000
1589.024763	1237.420000
1590.921746	1023.650000
1592.818311	848.690000
1594.716264	732.900000
1596.608382	635.320000
1598.503693	561.770000
1600.398587	513.790000
1602.291259	466.350000
1604.183515	433.960000
1606.073551	403.660000
1607.963171	387.460000
1609.852375	365.020000
1611.741165	351.380000
1613.627738	341.480000
1615.515697	321.290000
1617.399640	312.270000
1619.284971	301.650000
1621.169887	289.510000
1623.052591	286.010000
1624.936680	277.730000
1626.816759	267.150000
1628.698224	253.270000
1630.577479	253.310000
1632.458120	243.720000
1634.332957	245.680000
1636.212776	237.250000
1638.088589	235.790000
1639.963992	236.430000
1641.840782	232.570000
1643.711774	231.900000
1645.585948	230.670000
1647.456124	226.820000
1649.329480	232.290000
1651.200633	222.310000
1653.069584	219.240000
1654.939921	221.050000
1656.806264	214.730000
1658.673993	216.760000
1660.539524	213.890000
1662.406439	208.730000
1664.269366	209.040000
1666.133678	202.910000
1667.995794	205.800000
1669.857506	196.030000
1671.720602	196.760000
1673.581504	197.300000
1675.440212	192.810000
1677.298517	197.790000
1679.158207	189.210000
1681.012130	184.380000
1682.869225	190.820000
1684.725918	191.080000
1686.578635	194.120000
1688.434523	189.200000
1690.286436	188.790000
1692.137949	184.370000
1693.989061	189.300000
1695.839773	186.230000
1697.690084	182.700000
1699.538211	181.550000
1701.387721	180.060000
1703.231483	179.430000
1705.080194	178.560000
1706.923160	182.450000
1708.769291	179.510000
1710.611461	177.960000
1712.456795	180.030000
1714.296389	176.590000
1716.137367	175.100000
1717.979728	173.220000
1719.818133	175.690000
1721.657921	173.860000
1723.495534	178.850000
1725.332751	180.560000
1727.167795	178.840000
1729.004222	180.470000
1730.838477	184.030000
1732.672337	179.400000
1734.505804	177.640000
1736.335324	184.910000
1738.168003	174.930000
1739.996738	180.500000
1741.828631	175.110000
1743.656581	175.980000
1745.484139	169.510000
1747.311305	177.920000
1749.138080	177.980000
1750.964464	176.190000
1752.786911	176.020000
1754.612512	179.570000
1756.434179	180.820000
1758.257228	172.220000
1760.078116	182.800000
1761.898614	174.770000
1763.720494	167.950000
1765.536674	169.000000
1767.356006	164.500000
1769.171411	159.870000
1770.989966	161.130000
1772.804596	163.610000
1774.618840	164.590000
1776.432696	162.170000
1778.246166	162.390000
1780.057483	164.470000
1781.870181	161.740000
1783.682492	162.700000
1785.490886	165.170000
1787.300661	165.560000
1789.106520	163.140000
1790.915526	159.910000
1792.720617	164.700000
1794.527090	164.580000
1796.333179	154.590000
1798.135358	161.010000
1799.940680	163.110000
1801.742094	165.280000
1803.544888	174.730000
1805.343776	167.570000
1807.144045	166.430000
1808.943932	164.710000
1810.741678	166.430000
1812.539043	166.940000
1814.336027	167.440000
1816.132631	170.710000
1817.927096	172.980000
1819.722940	180.030000
1821.513130	170.430000
1823.308216	175.600000
1825.097649	179.440000
1826.890219	170.810000
1828.680654	177.100000
1830.468955	175.170000
1832.260391	174.960000
1834.046181	177.770000
1835.833351	177.080000
1837.618389	177.360000
1839.406561	183.210000
1841.190847	180.000000
1842.973004	179.120000
1844.756539	182.370000
1846.537946	177.150000
1848.320732	184.830000
1850.099638	186.040000
1851.879922	182.500000
1853.658080	183.410000
1855.437617	181.830000
1857.215029	179.840000
1858.990317	172.920000
1860.766984	179.140000
1862.541527	177.710000
1864.317449	175.510000
1866.087751	176.810000
1867.861179	178.460000
1869.632488	165.740000
1871.403427	170.730000
1873.175742	174.840000
1874.942445	170.290000
1876.712272	169.010000
1878.478236	167.620000
1880.247324	166.130000
1882.012550	164.600000
1883.777407	170.870000
1885.543642	167.350000
1887.306018	169.500000
1889.068027	164.290000
1890.829668	170.560000
1892.590943	161.940000
1894.351850	161.240000
1896.112391	165.680000
1897.870822	163.540000
1899.628888	158.190000
1901.384845	160.880000
1903.142180	163.390000
1904.899148	163.580000
1906.654011	164.170000
1908.406768	156.380000
1910.159162	158.000000
1911.912931	157.770000
1913.664597	160.710000
1915.414161	166.310000
1917.165101	163.980000
1918.915677	158.870000
1920.662414	164.870000
1922.410528	163.500000
1924.156542	162.040000
1925.903932	166.450000
1927.649223	168.440000
1929.392417	165.500000
1931.136987	166.900000
1932.879460	165.540000
1934.621573	165.960000
1936.363326	169.690000
1938.104720	174.350000
1939.844020	175.270000
1941.582961	171.890000
1943.321543	171.960000
1945.058033	177.450000
1946.794166	173.975000
1948.531673	170.500000
1950.265358	164.230000
1952.000418	160.770000
1953.733390	164.400000
1955.466005	165.350000
1957.198263	165.970000
1958.930165	159.320000
1960.659981	166.730000
1962.387713	165.210000
1964.116818	165.310000
1965.845569	165.420000
1967.572236	163.950000
1969.298549	159.550000
1971.026235	161.710000
1972.748385	161.020000
1974.473636	159.860000
1976.195081	157.730000
1977.919625	161.260000
1979.642090	162.340000
1981.360751	161.840000
1983.082511	163.820000
1984.800469	163.080000
1986.519800	165.340000
1988.235332	164.610000
1989.955685	172.850000
1991.672238	169.450000
1993.384996	165.240000
1995.100849	165.230000
1996.814629	167.840000
1998.528060	166.870000
2000.239420	170.160000
2001.952153	173.080000
2003.661094	163.970000
2005.373129	168.990000
2007.079654	164.580000
2008.789272	167.080000
2010.496822	167.610000
2012.204025	167.540000
2013.909162	166.720000
2015.613952	166.290000
2017.320114	169.900000
2019.022494	171.020000
2020.726246	167.740000
2022.427934	169.530000
2024.129278	166.560000
2025.830276	167.780000
2027.529214	170.410000
2029.229522	168.500000
2030.926056	165.670000
2032.623961	164.810000
2034.319807	165.570000
2036.018739	165.260000
2037.712185	164.850000
2039.407003	153.230000
2041.101477	165.620000
2042.792183	153.280000
2044.485973	155.940000
2046.175996	157.140000
2047.867390	156.880000
2049.556731	152.650000
2051.247442	151.800000
2052.934391	150.610000
2054.620999	151.540000
2056.308978	157.150000
2057.993197	161.330000
2059.678786	157.160000
2061.364036	161.860000
2063.047238	160.630000
2064.731809	162.740000
2066.410918	161.110000
2068.094812	165.130000
2069.773246	155.610000
2071.454756	152.370000
2073.132516	150.240000
2074.809938	156.520000
2076.488731	162.350000
2078.165480	163.100000
2079.840188	158.720000
2081.516265	163.110000
2083.190302	155.490000
2084.864003	165.340000
2086.537369	159.940000
2088.208697	161.920000
2089.879690	165.340000
2091.550349	158.550000
2093.220673	152.040000
2094.890664	163.600000
2096.558619	157.050000
2098.226241	163.050000
2099.891829	157.610000
2101.558785	162.960000
2103.223707	157.700000
2104.888298	156.380000
2106.550857	154.960000
2108.214784	157.400000
2109.876681	153.700000
2111.538246	154.210000
2113.199480	154.910000
2114.858686	152.200000
2116.517562	152.330000
2118.176107	154.280000
2119.834323	146.660000
2121.488815	156.040000
2123.146372	152.320000
2124.803600	157.990000
2126.457106	154.390000
2128.111980	154.950000
2129.763136	150.270000
2131.417353	150.620000
2133.067854	143.470000
2134.719721	142.730000
2136.366180	141.140000
2138.017394	141.970000
2139.664894	142.580000
2141.313761	137.530000
2142.960610	138.310000
2144.607132	143.400000
2146.253329	150.770000
2147.895818	147.250000
2149.541365	140.980000
2151.183205	150.840000
2152.828102	153.230000
2154.469294	146.690000
2156.110162	150.270000
2157.750706	151.110000
2159.389239	150.470000
2161.029137	150.950000
2162.665335	152.820000
2164.302899	156.670000
2165.940140	156.370000
2167.575372	149.510000
2169.210283	153.230000
2170.844872	157.660000
2172.479139	156.290000
2174.109714	151.180000
2175.743339	157.400000
2177.373273	156.510000
2179.004572	159.230000
2180.633867	164.360000
2182.262841	151.630000
2183.891497	152.180000
2185.519833	152.430000
2187.146166	163.130000
2188.772181	145.970000
2190.396195	149.510000
2192.021573	150.800000
2193.644952	153.880000
2195.269694	153.850000
2196.890756	145.920000
2198.511501	150.860000
2200.133611	147.780000
2201.753723	149.090000
2203.371838	146.150000
2204.989638	149.290000
2206.607123	147.550000
2208.224292	145.530000
2209.841146	147.110000
2211.457685	143.130000
2213.072230	150.860000
2214.684783	144.280000
2216.298700	147.820000
2217.910626	141.090000
2219.523915	146.650000
2221.135214	145.480000
2222.744523	150.500000
2224.355196	151.920000
2225.963880	142.620000
2227.572252	145.540000
2229.178636	143.310000
2230.786384	148.930000
2232.392145	139.120000
2233.997595	146.630000
2235.601060	143.270000
2237.205889	142.280000
2238.808733	145.190000
2240.409594	140.600000
2242.011818	143.580000
2243.612059	140.990000
2245.213663	151.000000
2246.811615	141.130000
2248.410929	143.970000
2250.008263	143.020000
2251.605288	141.250000
2253.203676	144.540000
2254.798415	145.850000
2256.391177	151.870000
2257.985302	146.770000
2259.580788	152.740000
2261.172630	147.540000
2262.764165	145.330000
2264.357061	157.630000
2265.944648	157.200000
2267.536932	151.160000
2269.123908	152.450000
2270.713913	154.760000
2272.298613	147.790000
2273.888007	150.140000
2275.472098	153.580000
2277.057551	151.440000
2278.641034	147.710000
2280.227544	147.740000
2281.810420	148.580000
2283.392992	141.860000
2284.975261	144.810000
2286.553901	141.900000
2288.135564	142.380000
2289.713599	142.650000
2291.294657	145.410000
2292.872089	147.835000
2294.447556	150.260000
2296.026046	141.230000
2297.600912	142.670000
2299.175477	147.210000
2300.749742	143.550000
2302.323706	139.170000
2303.897370	141.270000
2305.470733	139.460000
2307.040478	139.040000
2308.609924	139.350000
2310.182389	140.370000
2311.749578	137.930000
2313.319786	142.020000
2314.886379	145.720000
2316.454332	147.550000
2318.020330	144.750000
2319.586029	141.500000
2321.151432	144.940000
2322.714881	147.610000
2324.279688	143.240000
2325.840888	143.980000
2327.405102	156.130000
2328.964055	153.180000
2330.526021	148.620000
2332.086037	144.430000
2333.645757	133.530000
2335.203528	135.010000
2336.761005	138.860000
2338.318186	135.030000
2339.873421	142.150000
2341.428361	131.180000
2342.983008	133.620000
2344.537361	138.600000
2346.091420	141.350000
2347.645185	140.760000
2349.197007	135.710000
2350.746885	137.030000
2352.299771	142.070000
2353.847415	137.630000
2355.398066	136.090000
2356.945127	139.330000
2358.493545	136.280000
2360.041671	139.930000
2361.586210	137.460000
2363.132106	131.750000
2364.676063	132.880000
2366.221378	137.910000
2367.763108	145.230000
2369.306195	138.840000
2370.847347	137.970000
2372.388209	131.850000
2373.928782	134.820000
2375.469066	134.150000
2377.009061	135.610000
2378.545477	133.620000
2380.084895	136.470000
2381.620736	136.590000
2383.157933	136.610000
2384.691555	128.530000
2386.228178	136.970000
2387.762869	130.730000
2389.295631	130.520000
2390.828107	131.050000
2392.358654	136.890000
2393.892199	136.970000
2395.420533	135.530000
2396.950223	132.540000
2398.479628	134.710000
2400.008747	128.520000
2401.537582	132.480000
2403.061211	130.570000
2404.589477	134.860000
2406.112539	130.010000
2407.640235	131.940000
2409.161092	139.850000
2410.686582	136.480000
2412.208511	142.410000
2413.731796	134.720000
2415.253160	138.410000
2416.772604	143.930000
2418.293403	142.110000
2419.812283	140.120000
2421.330881	143.850000
2422.847562	139.450000
2424.365597	143.910000
2425.883351	143.320000
2427.397554	145.100000
2428.911476	144.820000
2430.425118	149.240000
2431.940115	151.020000
2433.451563	150.320000
2434.964366	153.940000
2436.475256	156.450000
2437.985866	161.300000
2439.494565	164.140000
2441.006251	164.090000
2442.514392	172.880000
2444.022256	171.650000
2445.529842	172.480000
2447.033887	184.770000
2448.540918	187.100000
2450.046040	193.380000
2451.550885	190.180000
2453.053823	196.810000
2454.556484	194.010000
2456.058869	195.760000
2457.559349	188.500000
2459.061182	194.530000
2460.561111	185.740000
2462.060764	179.050000
2463.560141	177.950000
2465.057616	174.540000
2466.553190	166.410000
2468.051743	176.400000
2469.546767	165.940000
2471.043145	166.480000
2472.535996	167.990000
2474.030199	159.420000
2475.524129	161.410000
2477.014536	159.850000
2478.507919	152.560000
2479.999405	160.690000
2481.488994	154.720000
2482.978311	154.340000
2484.465733	145.140000
2485.956130	156.850000
2487.443008	149.380000
2488.931238	152.840000
2490.415952	146.540000
2491.900395	141.380000
2493.386190	145.170000
2494.870092	142.030000
2496.355346	142.650000
2497.835466	141.280000
2499.318558	138.470000
2500.799760	137.390000
2502.280693	133.350000
2503.759737	136.270000
2505.238512	130.980000
2506.717019	129.120000
2508.195258	135.080000
2509.673228	127.900000
2511.147694	127.610000
2512.625128	131.280000
2514.099059	127.900000
2515.574341	130.580000
2517.049355	130.860000
2518.520868	130.190000
2519.993732	126.310000
2521.464712	131.240000
2522.937043	136.640000
2524.404261	125.460000
2525.874444	122.520000
2527.342747	129.470000
2528.810785	131.540000
2530.278558	127.910000
2531.746066	125.710000
2533.213309	130.760000
2534.677060	129.820000
2536.142161	128.880000
2537.605385	134.560000
2539.069959	133.970000
2540.531043	129.740000
2541.993477	134.560000
2543.455648	129.000000
2544.914333	131.440000
2546.377590	130.170000
2547.835750	140.550000
2549.295259	129.970000
2550.749675	133.590000
2552.208660	130.500000
2553.665774	135.600000
2555.121017	139.160000
2556.575999	130.250000
2558.029111	134.250000
2559.483572	131.250000
2560.936164	127.790000
2562.388496	125.270000
2563.838960	135.050000
2565.292380	130.600000
2566.740718	130.280000
2568.192012	135.070000
2569.641439	141.010000
2571.087395	138.710000
2572.536305	139.310000
2573.981744	141.220000
2575.428532	142.500000
2576.873456	140.660000
2578.318123	146.120000
2579.764137	141.810000
2581.206684	140.460000
2582.650579	145.660000
2584.091009	140.620000
2585.532787	138.070000
2586.972704	141.000000
2588.413969	140.350000
2589.851773	145.140000
2591.292526	142.230000
2592.728216	138.390000
2594.166856	138.440000
2595.603639	144.710000
2597.038565	140.590000
2598.476440	148.520000
2599.909256	142.820000
2601.343420	146.660000
2602.775730	144.030000
2604.209386	142.530000
2605.641189	143.890000
2607.072739	145.420000
2608.504035	151.750000
2609.933479	150.610000
2611.362672	151.750000
2612.790013	150.830000
2614.218701	153.280000
2615.647136	153.540000
2617.072124	153.110000
2618.498459	155.150000
2619.922945	163.890000
2621.348777	161.760000
2622.771165	163.410000
2624.194899	167.390000
2625.616786	172.000000
2627.038424	173.750000
2628.458216	172.840000
2629.879354	178.070000
2631.300242	176.810000
2632.717692	180.560000
2634.138081	190.130000
2635.555033	188.020000
2636.971737	187.930000
2638.388192	191.200000
2639.804399	198.080000
2641.220357	205.510000
2642.634475	206.630000
2644.048346	210.490000
2645.460377	216.790000
2646.873753	220.580000
2648.283699	237.740000
2649.696580	240.420000
2651.106034	256.010000
2652.515241	275.700000
2653.922612	285.180000
2655.332917	302.870000
2656.741386	317.700000
2658.148020	341.150000
2659.554409	356.230000
2660.958964	391.160000
2662.364863	423.020000
2663.768929	447.170000
2665.172751	496.540000
2666.576328	538.220000
2667.978073	588.090000
2669.381162	643.200000
2670.780834	697.980000
2672.181848	749.870000
2673.579447	822.690000
2674.979976	868.540000
2676.377090	937.200000
2677.775547	979.680000
2679.172176	1036.450000
2680.568563	1067.200000
2681.964709	1092.350000
2683.359028	1099.390000
2684.754690	1105.180000
2686.146942	1107.150000
2687.540538	1083.140000
2688.932309	1064.260000
2690.325422	1020.200000
2691.716712	977.990000
2693.106179	943.550000
2694.495406	878.570000
2695.884394	826.720000
2697.274724	780.810000
2698.660069	728.820000
2700.048338	676.370000
2701.434787	628.020000
2702.820997	584.150000
2704.206969	541.690000
2705.589541	506.570000
2706.973456	466.170000
2708.357133	436.200000
2709.740572	404.890000
2711.120615	375.250000
2712.502000	362.350000
2713.881569	344.150000
2715.262480	321.100000
2716.641576	310.810000
2718.018857	293.330000
2719.397480	277.510000
2720.774290	265.090000
2722.150864	259.400000
2723.527202	247.870000
2724.901728	231.400000
2726.277595	231.370000
2727.650075	217.630000
2729.025472	208.490000
2730.395907	202.180000
2731.767684	201.230000
2733.139226	192.120000
2734.508960	188.300000
2735.880035	187.020000
2737.249302	185.800000
2738.618335	177.600000
2739.985561	172.600000
2741.352555	171.570000
2742.719316	160.470000
2744.085844	158.370000
2745.450567	161.350000
2746.815059	153.150000
2748.179318	153.880000
2749.543345	149.380000
2750.907141	150.960000
2752.267563	141.720000
2753.630896	144.020000
2754.989286	139.040000
2756.350586	131.510000
2757.708515	126.710000
2759.069354	134.750000
2760.428392	127.420000
2761.784062	134.700000
2763.142640	132.520000
2764.497852	133.780000
2765.852834	127.660000
2767.206019	118.120000
2768.562111	124.750000
2769.914839	130.100000
2771.267338	122.940000
2772.619609	125.570000
2773.973219	132.280000
2775.323467	128.560000
2776.671922	129.110000
2778.023281	129.210000
2779.371281	125.460000
2780.720620	132.310000
2782.068166	127.010000
2783.415485	125.400000
2784.762578	126.510000
2786.107880	124.390000
2787.452956	126.040000
2788.797806	127.630000
2790.142429	127.960000
2791.483701	127.210000
2792.826311	124.580000
2794.168695	125.180000
2795.510855	127.070000
2796.849665	124.180000
2798.191374	125.600000
2799.529736	128.740000
2800.869435	123.670000
2802.207348	130.060000
2803.543477	129.890000
2804.879382	131.400000
2806.216625	127.650000
2807.552084	130.090000
2808.887320	127.650000
2810.220773	130.360000
2811.555564	129.610000
2812.887013	132.260000
2814.221358	130.410000
2815.550805	132.240000
2816.881589	135.210000
2818.212151	130.240000
2819.540934	131.200000
2820.871053	129.890000
2822.199394	130.740000
2823.527514	129.840000
2824.853857	127.310000
2826.181535	126.280000
2827.505881	129.530000
2828.831562	123.870000
2830.155468	125.360000
2831.479155	124.240000
2832.804177	125.480000
2834.125869	121.210000
2835.447343	115.620000
2836.768598	120.120000
2838.089634	122.680000
2839.408898	122.330000
2840.729497	116.130000
2842.048324	124.670000
2843.366933	119.380000
2844.683772	117.330000
2846.000393	115.420000
2847.316796	118.830000
2848.631431	114.990000
2849.947400	117.460000
2851.260049	117.190000
2852.574034	121.580000
2853.887801	117.950000
2855.201353	113.700000
2856.513137	120.780000
2857.823156	124.800000
2859.134508	116.190000
2860.442546	119.930000
2861.751919	124.020000
2863.061076	118.950000
2864.370018	118.490000
2865.677197	123.280000
2866.982612	120.400000
2868.289362	117.410000
2869.594349	119.760000
2870.899123	118.670000
2872.202135	116.840000
2873.508029	116.260000
2874.809067	116.300000
2876.111440	121.630000
2877.412053	116.670000
2878.714000	112.840000
2880.015734	110.810000
2881.314163	107.930000
2882.613927	104.200000
2883.911932	113.370000
2885.209726	105.910000
2886.505764	106.810000
2887.803135	107.780000
2889.098750	107.910000
2890.394154	110.710000
2891.689348	105.840000
2892.981243	108.370000
2894.276015	106.360000
2895.567490	103.020000
2896.860298	101.640000
2898.152896	104.710000
2899.442200	109.310000
2900.732836	106.400000
2902.021721	110.400000
2903.311939	110.840000
2904.598865	105.570000
2905.887123	106.800000
2907.173631	102.580000
2908.459932	104.910000
2909.746024	104.540000
2911.030368	106.130000
2912.317584	102.120000
2913.599972	104.030000
2914.883693	101.470000
2916.165668	96.980000
2917.447436	96.900000
2918.727458	99.550000
2920.010350	106.580000
2921.291497	100.810000
2922.569362	102.390000
2923.850096	101.110000
2925.127549	105.210000
2926.404797	98.200000
2927.680302	97.510000
2928.958675	100.830000
2930.232233	100.790000
2931.508659	101.040000
2932.783344	101.450000
2934.056289	99.110000
2935.330564	105.220000
2936.603100	97.530000
2937.875432	95.540000
2939.144490	98.680000
2940.416414	96.890000
2941.686600	96.800000
2942.956583	101.140000
2944.226362	100.770000
2945.494404	99.030000
2946.760711	100.090000
2948.026815	99.460000
2949.294249	98.900000
2950.559949	98.460000
2951.825446	91.700000
2953.090741	93.240000
2954.352771	98.720000
2955.616132	97.040000
2956.879290	92.110000
2958.140717	97.670000
2959.403473	96.580000
2960.664498	105.120000
2961.923791	97.910000
2963.182885	96.620000
2964.441778	100.490000
2965.700471	94.450000
2966.958964	99.390000
2968.215728	96.800000
2969.472292	96.330000
2970.727129	95.540000
2971.983295	89.330000
2973.236205	100.330000
2974.490445	99.360000
2975.744486	93.990000
2976.996801	89.440000
2978.248918	89.990000
2979.499310	94.130000
2980.752557	91.380000
2982.001027	91.350000
2983.252351	92.680000
2984.500427	95.200000
2985.748305	91.810000
2986.995986	91.230000
2988.243471	90.370000
2989.489234	93.010000
2990.734800	93.000000
2991.981694	93.940000
2993.225344	96.780000
2994.470322	100.160000
2995.712057	96.830000
2996.956643	95.590000
2998.199509	94.710000
2999.439135	96.660000
3000.681612	101.480000
3001.920848	94.110000
3003.161412	93.620000
3004.400259	99.320000
3005.638912	87.630000
3006.875849	92.250000
3008.114113	89.000000
3009.350663	96.090000
3010.587018	96.050000
3011.823180	92.930000
3013.057629	96.680000
3014.291884	92.500000
3015.525946	88.150000
3016.758296	92.150000
3017.988934	88.910000
3019.222418	92.560000
3020.454190	89.950000
3021.684252	92.750000
3022.914122	90.050000
3024.142282	98.060000
3025.371768	93.590000
3026.599546	92.860000
3027.827132	92.250000
3029.056044	85.470000
3030.280214	85.260000
3031.507227	81.770000
3032.731016	89.300000
3033.956132	90.320000
3035.179541	86.440000
3036.402761	86.310000
3037.624275	83.940000
3038.848630	85.760000
3040.068250	86.310000
3041.289195	89.420000
3042.509952	88.820000
3043.729005	84.880000
3044.949384	80.410000
3046.166546	83.020000
3047.385033	83.120000
3048.601819	82.550000
3049.818416	83.910000
3051.034826	86.440000
3052.248022	85.440000
3053.464056	84.460000
3054.676878	83.390000
3055.892537	87.790000
3057.103473	97.060000
3058.315734	87.650000
3059.527809	88.790000
3060.739697	85.810000
3061.949887	85.630000
3063.159891	92.380000
3064.369710	80.660000
3065.577832	84.750000
3066.785768	84.520000
3067.992010	80.430000
3069.199575	85.500000
3070.405447	82.895000
3071.611133	80.290000
3072.816634	81.350000
3074.020442	85.240000
3075.225574	75.170000
3076.429014	80.370000
3077.630761	73.410000
3078.832325	75.770000
3080.033705	78.280000
3081.234901	79.610000
3082.434407	74.900000
3083.633729	77.960000
3084.834375	75.650000
3086.033332	71.480000
3087.229093	77.260000
3088.427684	77.540000
3089.623081	72.200000
3090.819801	81.310000
3092.013329	70.230000
3093.209686	75.280000
3094.404355	73.620000
3095.595834	75.590000
3096.791644	72.850000
3097.982761	72.660000
3099.175200	71.620000
3100.364452	74.300000
3101.556530	73.370000
3102.746923	71.700000
3103.934131	76.540000
3105.122662	81.160000
3106.312515	74.840000
3107.499183	73.640000
3108.685672	75.660000
3109.871981	77.660000
3111.059612	79.350000
3112.244062	78.020000
3113.426831	82.110000
3114.612424	78.050000
3115.796336	78.210000
3116.978570	84.330000
3118.160625	75.760000
3119.342503	77.660000
3120.524202	74.040000
3121.704223	74.520000
3122.882568	77.520000
3124.063734	75.140000
3125.241724	73.380000
3126.419537	69.350000
3127.597173	72.900000
3128.773134	74.260000
3129.948918	74.810000
3131.126024	81.350000
3132.301455	77.570000
3133.475213	77.400000
3134.647299	78.130000
3135.820705	73.860000
3136.993936	72.280000
3138.165494	78.760000
3139.338374	77.700000
3140.508086	72.920000
3141.679119	78.700000
3142.848481	78.880000
3144.016174	73.960000
3145.186682	79.990000
3146.352531	78.860000
3147.522690	76.720000
3148.688191	80.630000
3149.853519	90.440000
3151.018673	85.630000
3152.183653	84.810000
3153.349954	88.890000
3154.511601	79.280000
3155.674569	82.210000
3156.837363	85.230000
3157.999985	83.260000
3159.160942	86.110000
3160.321726	84.710000
3161.482338	83.430000
3162.641287	80.010000
3163.800063	76.230000
3164.958668	82.050000
3166.117101	79.240000
3167.275362	83.610000
3168.431961	87.800000
3169.586899	87.790000
3170.743156	87.590000
3171.897753	84.930000
3173.052178	79.920000
3174.204944	72.770000
3175.357540	75.900000
3176.509965	82.440000
3177.662221	77.520000
3178.814307	74.940000
3179.963246	77.170000
3181.114992	75.690000
3182.265080	72.840000
3183.413512	74.170000
3184.561775	75.880000
3185.709868	78.010000
3186.857793	75.370000
3188.004063	73.150000
3189.150164	75.900000
3190.294610	73.990000
3191.438889	71.650000
3192.583000	66.830000
3193.728429	67.890000
3194.870719	71.760000
3196.012841	77.920000
3197.154796	71.160000
3198.296585	67.810000
3199.438206	74.330000
3200.576691	74.310000
3201.716494	71.790000
3202.857615	78.310000
3203.995601	67.430000
3205.131938	74.190000
3206.268109	69.660000
3207.405598	70.840000
3208.541438	78.670000
3209.678594	73.190000
3210.811138	75.460000
3211.947964	72.180000
3213.080178	76.580000
3214.213710	74.290000
3215.347076	73.390000
3216.477315	72.600000
3217.610352	78.160000
3218.740263	81.360000
3219.871491	76.360000
3220.999593	76.330000
3222.130492	77.940000
3223.259748	83.250000
3224.387359	85.880000
3225.511849	81.470000
3226.640614	79.930000
3227.766257	82.360000
3228.891737	80.570000
3230.015576	90.000000
3231.142209	86.240000
3232.264245	96.250000
3233.387597	93.930000
3234.510787	95.110000
3235.633815	97.630000
3236.755203	105.990000
3237.876430	99.980000
3238.996018	98.310000
3240.115445	104.280000
3241.233234	106.940000
3242.353816	99.300000
3243.471283	109.830000
3244.588591	98.210000
3245.705737	97.150000
3246.821248	105.550000
3247.938074	97.210000
3249.051789	96.800000
3250.168295	94.870000
3251.283165	89.410000
3252.394927	91.760000
3253.506530	86.050000
3254.619447	81.010000
3255.732206	78.790000
3256.841858	77.300000
3257.952825	75.640000
3259.063632	72.790000
3260.172809	68.490000
3261.280354	71.860000
3262.389214	61.400000
3263.497915	71.620000
3264.603514	70.120000
3265.710428	68.600000
3266.815712	66.680000
3267.922310	66.830000
3269.025808	71.540000
3270.130620	63.130000
3271.235275	68.430000
3272.336831	67.820000
3273.438232	64.100000
3274.540946	67.560000
3275.643503	71.270000
3276.742965	67.500000
3277.845209	67.050000
3278.944359	67.800000
3280.041883	64.420000
3281.139252	70.370000
3282.239404	68.420000
3283.336462	66.380000
3284.433365	70.140000
3285.530114	66.260000
3286.622303	66.760000
3287.718741	64.030000
3288.813558	69.550000
3289.908219	69.080000
3291.001259	63.950000
3292.094145	66.550000
3293.185410	63.650000
3294.277988	63.970000
3295.368945	65.230000
3296.458283	67.420000
3297.547468	63.480000
3298.637966	65.850000
3299.725379	71.680000
3300.812640	66.160000
3301.901213	62.120000
3302.989633	69.090000
3304.073506	66.990000
3305.161621	71.220000
3306.246655	66.510000
3307.330072	71.460000
3308.414802	69.360000
3309.497917	65.260000
3310.582343	66.390000
3311.663691	67.290000
3312.746351	64.520000
3313.827397	63.420000
3314.908292	66.290000
3315.987574	70.520000
3317.066705	65.380000
3318.147147	64.840000
3319.224516	67.530000
3320.303196	63.890000
3321.380264	65.540000
3322.457182	62.900000
3323.532489	66.010000
3324.607647	65.320000
3325.684116	65.020000
3326.757515	66.710000
3327.830765	62.540000
3328.905326	58.520000
3329.978277	60.050000
3331.049621	63.650000
3332.122275	61.790000
3333.191862	60.250000
3334.262760	57.480000
3335.332051	63.590000
3336.402653	60.790000
3337.471648	64.310000
3338.539037	62.510000
3339.604821	63.360000
3340.674831	63.230000
3341.741778	64.370000
3342.805663	54.560000
3343.872316	64.130000
3344.937364	64.850000
3346.000810	63.150000
3347.064108	63.190000
3348.127261	61.000000
3349.190267	66.010000
3350.253126	65.720000
3351.314384	59.350000
3352.372585	61.920000
3353.435007	54.650000
3354.494372	62.810000
3355.553592	58.420000
3356.614122	64.760000
3357.670142	62.340000
3358.728927	63.080000
3359.783204	62.310000
3360.840244	58.610000
3361.895687	59.630000
3362.952438	63.870000
3364.007592	62.150000
3365.061148	57.280000
3366.113107	57.730000
3367.167828	58.720000
3368.219500	59.610000
3369.271029	65.110000
3370.323867	60.270000
3371.373657	57.650000
3372.424755	56.770000
3373.472808	60.630000
3374.523621	60.380000
3375.571388	60.190000
3376.619013	57.480000
3377.666495	60.900000
3378.712385	62.570000
3379.759583	61.890000
3380.803739	60.700000
3381.850653	63.040000
3382.895975	60.260000
3383.938257	64.670000
3384.980397	60.200000
3386.023845	58.300000
3387.067153	58.730000
3388.108870	62.570000
3389.150446	53.530000
3390.191882	60.370000
3391.231728	54.680000
3392.269987	58.840000
3393.309553	51.940000
3394.348978	51.700000
3395.386817	52.190000
3396.423068	56.220000
3397.459179	54.540000
3398.496598	59.260000
3399.530984	59.700000
3400.566677	59.600000
3401.602231	56.750000
3402.634754	51.530000
3403.670030	56.170000
3404.702275	59.070000
3405.734382	55.760000
3406.764905	56.130000
3407.796736	55.090000
3408.828427	51.000000
3409.857092	59.050000
3410.885618	52.210000
3411.915452	54.680000
3412.945147	51.020000
3413.971817	55.860000
3414.999794	50.450000
3416.024746	52.880000
3417.052448	58.360000
3418.077127	59.060000
3419.103112	59.460000
3420.127517	57.110000
3421.151786	53.910000
3422.174476	56.150000
3423.197030	53.840000
3424.220890	59.740000
3425.241730	61.350000
3426.262435	55.480000
3427.284445	61.440000
3428.303437	50.640000
3429.322294	55.280000
3430.342456	54.730000
3431.359602	56.840000
