-117.897011	-1.080000
-115.227411	10.530000
-112.560746	1.670000
-109.894833	2.960000
-107.231852	-2.580000
-104.567442	6.900000
-101.905962	-0.590000
-99.243052	5.890000
-96.585250	2.540000
-93.926017	0.410000
-91.267533	2.080000
-88.611974	7.550000
-85.954986	5.820000
-83.303095	3.890000
-80.649775	8.180000
-77.999375	7.720000
-75.347545	9.010000
-72.700806	6.180000
-70.052637	0.910000
-67.405212	3.040000
-64.760700	0.150000
-62.114760	0.620000
-59.473901	2.810000
-56.831613	7.010000
-54.192233	4.370000
-51.551425	4.100000
-48.911357	7.030000
-46.276361	4.170000
-43.639936	4.510000
-41.006415	6.110000
-38.371465	6.320000
-35.741580	13.720000
-33.108103	12.330000
-30.479688	7.330000
-27.852006	10.670000
-25.222897	15.050000
-22.598844	22.130000
-19.971202	17.780000
-17.348613	23.260000
-14.726755	38.040000
-12.105629	68.650000
-9.485232	160.410000
-6.867723	535.890000
-4.248786	1796.150000
-1.632735	5073.810000
0.982588	5794.240000
3.597184	3722.810000
6.208897	405.790000
8.822039	59.700000
11.430147	34.340000
14.041837	22.070000
16.648496	15.820000
19.256583	6.790000
21.863946	14.330000
24.466284	14.600000
27.072200	9.690000
29.673094	9.070000
32.275417	10.660000
34.872721	6.980000
37.473601	10.630000
40.069467	8.730000
42.666760	7.430000
45.263334	7.690000
47.854899	3.510000
50.447892	4.090000
53.038024	4.560000
55.629584	2.700000
58.218284	7.570000
60.808411	10.120000
63.393540	6.620000
65.980096	4.340000
68.565937	2.670000
71.148925	9.140000
73.733340	4.220000
76.310625	7.430000
78.891477	1.920000
81.469480	5.340000
84.046773	2.860000
86.625492	1.900000
89.199230	2.740000
91.774394	7.430000
94.346715	1.660000
96.918328	1.330000
99.487102	7.110000
102.057302	4.260000
104.624663	6.700000
107.193451	6.500000
109.759401	6.270000
112.322517	10.510000
114.889189	6.340000
117.446640	10.700000
120.009776	14.700000
122.567953	20.730000
125.129683	27.890000
127.686458	43.360000
130.244658	53.440000
132.797906	81.080000
135.350455	115.860000
137.906555	163.420000
140.457708	223.530000
143.008162	276.040000
145.557920	320.080000
148.104858	362.510000
150.651100	380.140000
153.198768	385.090000
155.745741	400.060000
158.287777	393.840000
160.829120	396.010000
163.369770	398.410000
165.911846	383.570000
168.451111	391.510000
170.987566	385.920000
173.523331	376.010000
176.060521	381.590000
178.597019	368.370000
181.130712	373.450000
183.661602	365.120000
186.191803	366.450000
188.723429	361.630000
191.252254	374.000000
193.778280	367.640000
196.303621	368.530000
198.830386	375.300000
201.354354	367.040000
203.877638	367.940000
206.400237	375.100000
208.920043	373.410000
211.439166	373.510000
213.957606	373.960000
216.477470	379.200000
218.990333	385.650000
221.506727	389.210000
224.022439	391.220000
226.533262	394.070000
229.045509	401.620000
231.554973	406.480000
234.063759	399.550000
236.571867	407.660000
239.081398	405.170000
241.586050	404.340000
244.090025	400.440000
246.595424	401.000000
249.095948	407.070000
251.599995	405.520000
254.097072	413.280000
256.597671	408.420000
259.095499	406.090000
261.592654	402.700000
264.089136	406.350000
266.580756	408.310000
269.075894	411.640000
271.568267	409.650000
274.059969	408.480000
276.548908	409.290000
279.039270	404.360000
281.526871	403.880000
284.011712	408.030000
286.500067	409.940000
288.981483	416.100000
291.466413	418.660000
293.946498	423.990000
296.430095	434.770000
298.908849	441.160000
301.389027	452.770000
303.866452	451.270000
306.343214	437.920000
308.819313	431.300000
311.292663	417.790000
313.765351	409.970000
316.237378	404.620000
318.708744	422.890000
321.177366	429.640000
323.645328	416.380000
326.114713	409.680000
328.579275	391.470000
331.047340	382.710000
333.510586	385.330000
335.973175	377.620000
338.435106	373.600000
340.896381	372.540000
343.354922	362.980000
345.814885	362.090000
348.272115	363.650000
350.728691	348.050000
353.184613	351.520000
355.637806	338.580000
358.092420	334.660000
360.542233	334.740000
362.995543	333.370000
365.444053	323.700000
367.891913	317.030000
370.341194	317.940000
372.785682	318.480000
375.231592	311.210000
377.676853	306.200000
380.119395	304.090000
382.561289	303.250000
385.002535	300.850000
387.441066	294.210000
389.881019	294.290000
392.318258	291.670000
394.752785	294.570000
397.190800	291.640000
399.624038	283.530000
402.058698	279.550000
404.488584	286.770000
406.921956	284.150000
409.350558	287.830000
411.778519	279.630000
414.207900	280.880000
416.632516	283.570000
419.058554	279.840000
421.483951	284.690000
423.908708	275.430000
426.328707	284.020000
428.750127	274.720000
431.168850	271.420000
433.588994	276.690000
436.006443	266.600000
438.425312	261.210000
440.841488	254.360000
443.252917	242.000000
445.667822	246.800000
448.080037	235.160000
450.491618	226.890000
452.902565	227.440000
455.310826	214.200000
457.718454	216.730000
460.125451	210.360000
462.531815	208.820000
464.935497	207.000000
467.338549	215.090000
469.740971	208.380000
472.142764	212.430000
474.541878	217.370000
476.942412	211.620000
479.342317	221.640000
481.737499	226.230000
484.136148	232.250000
486.530077	241.510000
488.923380	249.380000
491.316057	261.890000
493.708109	280.350000
496.101580	304.600000
498.490338	345.690000
500.876430	422.000000
503.263942	530.650000
505.650830	705.000000
508.035055	974.100000
510.420699	1363.040000
512.803680	1904.800000
515.184001	2488.740000
517.565741	2949.530000
519.944822	2966.690000
522.325322	2686.520000
524.703164	2227.410000
527.078351	1847.580000
529.452920	1514.720000
531.828908	1294.950000
534.202242	1115.440000
536.576994	992.990000
538.947061	891.290000
541.316512	813.250000
543.687381	747.160000
546.053570	692.200000
548.421177	654.500000
550.786138	602.340000
553.150486	565.190000
555.514222	535.010000
557.879375	513.830000
560.239855	488.220000
562.601754	470.390000
564.961013	452.660000
567.317633	442.240000
569.677698	434.290000
572.031073	416.470000
574.387892	410.260000
576.742075	395.220000
579.095651	389.310000
581.448618	380.860000
583.798954	364.140000
586.150706	364.960000
588.495782	359.170000
590.846322	345.920000
593.190189	340.150000
595.539516	336.570000
597.884196	329.570000
600.226250	330.530000
602.569722	315.040000
604.910571	315.690000
607.250818	313.270000
609.588444	331.690000
611.929505	342.030000
614.265929	361.040000
616.603769	370.050000
618.938991	373.700000
621.271598	358.600000
623.605621	348.230000
625.937031	333.920000
628.267842	330.770000
630.598055	313.880000
632.927670	309.440000
635.252663	305.640000
637.583097	309.450000
639.908909	298.410000
642.232115	308.800000
644.556736	299.010000
646.878753	291.100000
649.200175	286.230000
651.518994	289.760000
653.839229	277.630000
656.158871	281.720000
658.475912	273.460000
660.792361	273.730000
663.106213	272.040000
665.421479	270.390000
667.734149	266.120000
670.048234	264.070000
672.357719	267.580000
674.668620	255.760000
676.976928	260.440000
679.284648	256.970000
681.593783	256.950000
683.898325	260.700000
686.202280	251.470000
688.505650	248.350000
690.810434	244.590000
693.110632	238.220000
695.412244	240.520000
697.713272	233.330000
700.009717	228.730000
702.307578	226.490000
704.604855	219.950000
706.901549	216.690000
709.193667	214.120000
711.489196	207.300000
713.780152	211.300000
716.072522	204.470000
718.362316	206.770000
720.651531	209.370000
722.940165	205.490000
725.226228	209.400000
727.513704	208.610000
729.798610	207.290000
732.082937	213.550000
734.364696	206.540000
736.647869	198.760000
738.930465	204.520000
741.208506	206.410000
743.487960	210.130000
745.766839	205.510000
748.045142	204.280000
750.318896	204.990000
752.594064	201.590000
754.868658	199.220000
757.140693	197.000000
759.414140	196.330000
761.685030	201.590000
763.953364	198.350000
766.223111	201.570000
768.490304	198.170000
770.756926	204.570000
773.022979	197.000000
775.286479	201.290000
777.551393	202.000000
779.815737	195.700000
782.075552	204.950000
784.336780	203.090000
786.597440	204.070000
788.855553	208.730000
791.111122	211.350000
793.370082	200.050000
795.622543	203.390000
797.880371	202.610000
800.133679	206.940000
802.384448	203.420000
804.636629	204.880000
806.886272	202.810000
809.137326	210.060000
811.383869	206.450000
813.631825	207.030000
815.877245	204.680000
818.124077	208.460000
820.370348	205.860000
822.612115	203.450000
824.857264	201.040000
827.095941	193.990000
829.338001	187.520000
831.575562	187.540000
833.814534	192.270000
836.050980	186.470000
838.288837	183.100000
840.524170	182.800000
842.756978	182.180000
844.991198	181.240000
847.222896	181.620000
849.454039	193.030000
851.684627	190.270000
853.914661	193.030000
856.144140	186.670000
858.369138	190.620000
860.597511	180.670000
862.821405	180.640000
865.046709	186.360000
867.267538	182.290000
869.491739	184.730000
871.711467	182.070000
873.932606	183.260000
876.153194	180.410000
878.371272	185.030000
880.590761	176.900000
882.805783	179.380000
885.020257	178.270000
887.234184	183.040000
889.447563	180.410000
891.660395	177.990000
893.872681	176.100000
896.082464	178.300000
898.291702	173.550000
900.500395	176.990000
902.706589	177.330000
904.914192	179.280000
907.119298	179.270000
909.323860	177.560000
911.525926	190.310000
913.729402	188.000000
915.930384	196.500000
918.130825	200.670000
920.332674	205.170000
922.528131	211.290000
924.726948	224.060000
926.921327	245.760000
929.119062	268.420000
931.312362	304.250000
933.507071	330.760000
935.699294	359.320000
937.890979	393.770000
940.082126	425.220000
942.270790	428.700000
944.458917	433.090000
946.644564	431.040000
948.833563	427.470000
951.018139	429.990000
953.202180	433.370000
955.389571	440.560000
957.568658	433.950000
959.751096	436.150000
961.933000	427.910000
964.112430	430.580000
966.289387	436.100000
968.467751	431.810000
970.647523	436.670000
972.820946	435.430000
974.997715	432.730000
977.170078	431.250000
979.343847	435.610000
981.513213	420.500000
983.685924	410.720000
985.856168	384.300000
988.025884	356.600000
990.195071	328.700000
992.359861	296.500000
994.527992	281.680000
996.691729	267.910000
998.856872	251.980000
1001.019557	247.210000
1003.181715	236.370000
1005.341417	227.140000
1007.500595	218.860000
1009.661179	213.990000
1011.819308	209.310000
1013.976913	211.910000
1016.133995	208.180000
1018.290554	199.210000
1020.442733	196.830000
1022.596318	191.020000
1024.749382	192.640000
1026.899998	182.640000
1029.052019	182.410000
1031.199667	182.210000
1033.350647	176.990000
1035.497256	177.260000
1037.643347	174.920000
1039.788918	173.240000
1041.935895	168.220000
1044.076584	169.750000
1046.220601	169.460000
1048.362178	168.670000
1050.503239	171.480000
1052.645704	167.340000
1054.781890	175.830000
1056.921402	170.740000
1059.056558	172.470000
1061.195039	170.570000
1063.329166	167.830000
1065.462780	166.980000
1067.597799	166.420000
1069.728468	168.720000
1071.860542	168.870000
1073.990187	168.630000
1076.119320	165.750000
1078.247941	161.110000
1080.376051	170.110000
1082.501735	172.090000
1084.626909	168.970000
1086.753487	162.290000
1088.875728	157.980000
1090.999372	159.210000
1093.118683	158.680000
1095.243222	155.890000
1097.361516	160.770000
1099.481215	159.980000
1101.598495	157.720000
1103.715269	150.200000
1105.831536	153.930000
1107.945388	156.520000
1110.060643	151.190000
1112.171576	150.550000
1114.285820	150.990000
1116.395744	144.370000
1118.507072	148.370000
1120.617895	146.110000
1122.724403	149.210000
1124.834219	144.840000
1126.939721	143.420000
1129.046626	150.440000
1131.147316	139.520000
1133.253218	145.400000
1135.354811	134.510000
1137.457807	136.220000
1139.560302	135.170000
1141.656591	135.470000
1143.758086	132.940000
1145.855279	134.880000
1147.951973	130.310000
1150.048169	128.790000
1152.143868	133.330000
1154.239069	129.300000
1156.331873	129.670000
1158.426079	128.300000
1160.514094	133.630000
1162.607307	131.520000
1164.694332	127.680000
1166.784656	129.080000
1168.870693	138.060000
1170.960027	133.410000
1173.043180	134.990000
1175.127736	135.950000
1177.213692	130.480000
1179.295367	137.020000
1181.378444	136.730000
1183.459135	133.960000
1185.539334	137.290000
1187.619042	134.600000
1189.698259	135.740000
1191.775094	138.490000
1193.849548	138.740000
1195.927294	130.910000
1198.000769	135.530000
1200.075645	133.690000
1202.146254	136.820000
1204.218265	134.330000
1206.287899	137.710000
1208.358934	131.610000
1210.429481	131.900000
1212.495767	128.850000
1214.563454	131.900000
1216.628769	128.910000
1218.695484	123.650000
1220.757943	130.650000
1222.823687	126.890000
1224.885178	128.070000
1226.948068	132.440000
1229.008591	129.980000
1231.068630	126.710000
1233.128187	127.350000
1235.185378	131.160000
1237.242088	126.000000
1239.296435	127.340000
1241.354062	128.210000
1243.409327	127.300000
1245.460351	130.850000
1247.512775	132.330000
1249.564719	127.780000
1251.614305	129.100000
1253.663412	126.650000
1255.712041	128.030000
1257.760191	126.960000
1259.807863	131.350000
1261.851304	126.010000
1263.898020	129.060000
1265.942384	132.970000
1267.986270	132.620000
1270.027806	131.680000
1272.066992	126.470000
1274.109450	132.670000
1276.147686	130.580000
1278.187321	132.190000
1280.226481	136.220000
1282.261422	129.430000
1284.297763	131.430000
1286.331758	132.750000
1288.367152	127.840000
1290.398332	127.130000
1292.430911	129.780000
1294.463017	129.740000
1296.492783	132.650000
1298.523947	130.280000
1300.550903	129.730000
1302.579257	125.560000
1304.603407	126.020000
1306.630821	130.460000
1308.654033	128.780000
1310.678643	128.760000
1312.700919	126.550000
1314.724592	126.580000
1316.745932	124.940000
1318.766804	125.570000
1320.787210	126.480000
1322.803421	133.820000
1324.821031	132.490000
1326.836312	124.950000
1328.854851	129.840000
1330.869202	135.710000
1332.881227	134.410000
1334.896509	132.300000
1336.907606	136.790000
1338.920100	138.100000
1340.928411	140.220000
1342.939978	134.900000
1344.945505	141.410000
1346.954288	138.310000
1348.958893	135.500000
1350.966752	134.490000
1352.974149	126.900000
1354.975515	128.920000
1356.978278	127.150000
1358.980580	129.340000
1360.982423	122.780000
1362.983806	125.920000
1364.982876	128.320000
1366.981487	127.160000
1368.979640	126.720000
1370.977335	127.750000
1372.970866	123.860000
1374.965794	123.040000
1376.960265	120.700000
1378.954279	118.240000
1380.945986	119.900000
1382.937237	119.350000
1384.926183	116.120000
1386.916524	118.010000
1388.906410	118.190000
1390.893993	117.270000
1392.881121	118.840000
1394.865949	109.520000
1396.852170	112.530000
1398.836092	112.260000
1400.819561	113.280000
1402.802578	117.120000
1404.783296	108.720000
1406.765410	106.770000
1408.745226	113.260000
1410.724592	109.100000
1412.699818	108.000000
1414.678284	114.170000
1416.654455	113.340000
1418.630178	108.520000
1420.605451	113.210000
1422.578433	107.080000
1424.550967	110.400000
1426.523054	111.290000
1428.494692	113.760000
1430.462202	106.210000
1432.434787	111.640000
1434.399565	114.250000
1436.369416	121.010000
1438.335142	113.750000
1440.302261	104.340000
1442.267097	114.680000
1444.227814	110.720000
1446.193598	111.830000
1448.153427	110.640000
1450.114649	114.530000
1452.077264	115.320000
1454.035764	117.260000
1455.993822	112.910000
1457.951437	119.550000
1459.908611	113.200000
1461.863509	110.680000
1463.819799	114.480000
1465.773815	113.340000
1467.727391	115.080000
1469.678694	111.680000
1471.631389	117.180000
1473.581813	117.510000
1475.531798	117.070000
1477.481343	116.670000
1479.428620	121.880000
1481.373630	118.330000
1483.320031	117.470000
1485.265996	114.390000
1487.211522	115.530000
1489.154784	110.150000
1491.097609	110.800000
1493.038171	114.790000
1494.980124	108.590000
1496.919816	111.820000
1498.859072	108.400000
1500.797893	110.230000
1502.734455	108.580000
1504.672408	110.830000
1506.608103	105.970000
1508.543364	108.600000
1510.476368	108.320000
1512.408940	105.620000
1514.341080	109.080000
1516.272788	113.310000
1518.202242	113.290000
1520.133087	113.530000
1522.063501	112.170000
1523.989841	124.660000
1525.917573	116.140000
1527.843054	117.090000
1529.768106	114.620000
1531.692729	119.940000
1533.616923	116.450000
1535.538870	119.720000
1537.462206	125.080000
1539.383297	122.920000
1541.302143	127.210000
1543.222379	126.720000
1545.140371	129.300000
1547.057937	134.550000
1548.973261	135.400000
1550.889975	138.280000
1552.802634	144.950000
1554.718497	148.630000
1556.632120	159.340000
1558.543506	165.090000
1560.456280	175.210000
1562.365005	184.290000
1564.275120	209.760000
1566.184811	219.470000
1568.094078	248.650000
1570.001112	292.940000
1571.905913	339.000000
1573.812103	409.620000
1575.716061	480.000000
1577.619599	562.880000
1579.522715	632.400000
1581.423603	674.750000
1583.325878	654.950000
1585.225926	589.980000
1587.127361	509.940000
1589.024763	429.660000
1590.921746	353.240000
1592.818311	288.800000
1594.716264	247.860000
1596.608382	226.290000
1598.503693	200.580000
1600.398587	180.720000
1602.291259	167.900000
1604.183515	157.190000
1606.073551	155.870000
1607.963171	145.780000
1609.852375	145.900000
1611.741165	141.200000
1613.627738	139.510000
1615.515697	138.730000
1617.399640	147.000000
1619.284971	146.880000
1621.169887	145.000000
1623.052591	141.210000
1624.936680	142.570000
1626.816759	122.640000
1628.698224	118.530000
1630.577479	114.410000
1632.458120	116.680000
1634.332957	108.020000
1636.212776	113.160000
1638.088589	113.190000
1639.963992	113.020000
1641.840782	104.600000
1643.711774	108.830000
1645.585948	110.050000
1647.456124	102.210000
1649.329480	103.920000
1651.200633	102.550000
1653.069584	103.230000
1654.939921	104.830000
1656.806264	103.310000
1658.673993	101.340000
1660.539524	101.630000
1662.406439	96.130000
1664.269366	102.590000
1666.133678	97.590000
1667.995794	102.920000
1669.857506	97.920000
1671.720602	100.500000
1673.581504	97.820000
1675.440212	93.030000
1677.298517	96.570000
1679.158207	99.210000
1681.012130	94.220000
1682.869225	96.440000
1684.725918	98.340000
1686.578635	99.430000
1688.434523	95.730000
1690.286436	95.050000
1692.137949	100.540000
1693.989061	94.900000
1695.839773	97.350000
1697.690084	95.540000
1699.538211	99.710000
1701.387721	98.720000
1703.231483	98.000000
1705.080194	91.610000
1706.923160	91.780000
1708.769291	95.410000
1710.611461	93.090000
1712.456795	88.810000
1714.296389	94.160000
1716.137367	96.330000
1717.979728	90.510000
1719.818133	91.430000
1721.657921	87.390000
1723.495534	90.770000
1725.332751	88.990000
1727.167795	88.610000
1729.004222	85.530000
1730.838477	87.950000
1732.672337	91.790000
1734.505804	92.530000
1736.335324	87.420000
1738.168003	85.460000
1739.996738	87.270000
1741.828631	82.110000
1743.656581	84.240000
1745.484139	88.440000
1747.311305	86.880000
1749.138080	83.110000
1750.964464	87.080000
1752.786911	82.930000
1754.612512	82.810000
1756.434179	89.220000
1758.257228	81.740000
1760.078116	84.250000
1761.898614	82.220000
1763.720494	82.660000
1765.536674	90.500000
1767.356006	87.480000
1769.171411	88.020000
1770.989966	83.540000
1772.804596	82.120000
1774.618840	82.800000
1776.432696	89.770000
1778.246166	83.450000
1780.057483	83.460000
1781.870181	80.030000
1783.682492	85.080000
1785.490886	85.030000
1787.300661	80.190000
1789.106520	80.510000
1790.915526	84.620000
1792.720617	83.910000
1794.527090	83.500000
1796.333179	80.920000
1798.135358	87.570000
1799.940680	83.500000
1801.742094	86.820000
1803.544888	75.120000
1805.343776	82.330000
1807.144045	79.240000
1808.943932	82.220000
1810.741678	82.840000
1812.539043	83.280000
1814.336027	80.380000
1816.132631	77.650000
1817.927096	80.450000
1819.722940	78.540000
1821.513130	77.700000
1823.308216	81.630000
1825.097649	76.410000
1826.890219	76.840000
1828.680654	78.950000
1830.468955	83.550000
1832.260391	81.300000
1834.046181	79.890000
1835.833351	83.680000
1837.618389	77.020000
1839.406561	81.620000
1841.190847	75.960000
1842.973004	76.890000
1844.756539	85.310000
1846.537946	81.660000
1848.320732	88.480000
1850.099638	83.610000
1851.879922	83.660000
1853.658080	79.060000
1855.437617	81.850000
1857.215029	79.550000
1858.990317	86.980000
1860.766984	82.930000
1862.541527	83.600000
1864.317449	82.730000
1866.087751	88.880000
1867.861179	86.780000
1869.632488	86.000000
1871.403427	86.500000
1873.175742	78.780000
1874.942445	82.830000
1876.712272	84.880000
1878.478236	83.650000
1880.247324	81.100000
1882.012550	80.170000
1883.777407	80.350000
1885.543642	85.120000
1887.306018	83.510000
1889.068027	80.640000
1890.829668	79.300000
1892.590943	78.780000
1894.351850	82.000000
1896.112391	84.130000
1897.870822	80.160000
1899.628888	81.500000
1901.384845	83.190000
1903.142180	78.990000
1904.899148	81.410000
1906.654011	76.660000
1908.406768	78.330000
1910.159162	78.760000
1911.912931	76.060000
1913.664597	76.950000
1915.414161	77.380000
1917.165101	72.670000
1918.915677	75.270000
1920.662414	72.590000
1922.410528	73.360000
1924.156542	74.400000
1925.903932	77.860000
1927.649223	71.730000
1929.392417	73.780000
1931.136987	75.850000
1932.879460	79.020000
1934.621573	77.290000
1936.363326	74.580000
1938.104720	70.480000
1939.844020	74.240000
1941.582961	77.890000
1943.321543	79.010000
1945.058033	74.930000
1946.794166	74.860000
1948.531673	74.790000
1950.265358	71.640000
1952.000418	76.160000
1953.733390	69.740000
1955.466005	72.810000
1957.198263	78.160000
1958.930165	76.390000
1960.659981	76.930000
1962.387713	80.130000
1964.116818	74.250000
1965.845569	73.930000
1967.572236	80.100000
1969.298549	74.850000
1971.026235	71.310000
1972.748385	77.770000
1974.473636	76.090000
1976.195081	79.700000
1977.919625	80.850000
1979.642090	75.850000
1981.360751	77.310000
1983.082511	75.350000
1984.800469	74.130000
1986.519800	73.300000
1988.235332	79.450000
1989.955685	78.900000
1991.672238	74.150000
1993.384996	79.350000
1995.100849	74.260000
1996.814629	73.830000
1998.528060	82.600000
2000.239420	82.010000
2001.952153	78.400000
2003.661094	78.780000
2005.373129	76.110000
2007.079654	78.780000
2008.789272	75.880000
2010.496822	77.710000
2012.204025	77.440000
2013.909162	79.230000
2015.613952	73.120000
2017.320114	78.760000
2019.022494	80.490000
2020.726246	76.020000
2022.427934	78.220000
2024.129278	76.590000
2025.830276	75.580000
2027.529214	82.150000
2029.229522	76.550000
2030.926056	78.340000
2032.623961	77.800000
2034.319807	71.100000
2036.018739	79.410000
2037.712185	75.890000
2039.407003	75.230000
2041.101477	74.060000
2042.792183	73.260000
2044.485973	73.980000
2046.175996	71.140000
2047.867390	74.700000
2049.556731	73.160000
2051.247442	74.430000
2052.934391	74.590000
2054.620999	75.880000
2056.308978	69.680000
2057.993197	71.360000
2059.678786	69.580000
2061.364036	70.460000
2063.047238	77.520000
2064.731809	74.830000
2066.410918	68.460000
2068.094812	75.620000
2069.773246	72.650000
2071.454756	68.790000
2073.132516	74.050000
2074.809938	73.050000
2076.488731	72.930000
2078.165480	70.570000
2079.840188	72.050000
2081.516265	70.230000
2083.190302	70.640000
2084.864003	71.240000
2086.537369	72.240000
2088.208697	77.430000
2089.879690	69.550000
2091.550349	71.060000
2093.220673	72.250000
2094.890664	70.870000
2096.558619	63.620000
2098.226241	65.720000
2099.891829	71.000000
2101.558785	67.870000
2103.223707	69.500000
2104.888298	66.500000
2106.550857	69.100000
2108.214784	72.190000
2109.876681	70.490000
2111.538246	75.460000
2113.199480	73.960000
2114.858686	69.640000
2116.517562	75.420000
2118.176107	74.140000
2119.834323	74.850000
2121.488815	71.070000
2123.146372	63.910000
2124.803600	71.510000
2126.457106	72.230000
2128.111980	72.640000
2129.763136	68.960000
2131.417353	74.620000
2133.067854	67.720000
2134.719721	68.150000
2136.366180	69.110000
2138.017394	72.970000
2139.664894	73.560000
2141.313761	66.500000
2142.960610	65.770000
2144.607132	66.290000
2146.253329	69.310000
2147.895818	67.120000
2149.541365	64.850000
2151.183205	69.430000
2152.828102	62.600000
2154.469294	68.460000
2156.110162	68.510000
2157.750706	66.690000
2159.389239	70.810000
2161.029137	64.120000
2162.665335	66.920000
2164.302899	62.830000
2165.940140	65.570000
2167.575372	63.350000
2169.210283	66.040000
2170.844872	70.290000
2172.479139	65.490000
2174.109714	62.470000
2175.743339	68.550000
2177.373273	66.090000
2179.004572	68.720000
2180.633867	72.310000
2182.262841	65.310000
2183.891497	63.310000
2185.519833	72.020000
2187.146166	62.920000
2188.772181	64.520000
2190.396195	66.510000
2192.021573	72.740000
2193.644952	73.250000
2195.269694	65.010000
2196.890756	69.010000
2198.511501	65.810000
2200.133611	68.820000
2201.753723	62.110000
2203.371838	60.950000
2204.989638	71.790000
2206.607123	61.640000
2208.224292	66.060000
2209.841146	67.550000
2211.457685	73.100000
2213.072230	67.260000
2214.684783	63.150000
2216.298700	71.820000
2217.910626	70.460000
2219.523915	66.890000
2221.135214	67.590000
2222.744523	62.330000
2224.355196	70.490000
2225.963880	66.070000
2227.572252	60.200000
2229.178636	65.030000
2230.786384	64.180000
2232.392145	62.570000
2233.997595	72.380000
2235.601060	69.390000
2237.205889	73.340000
2238.808733	61.180000
2240.409594	66.450000
2242.011818	59.630000
2243.612059	65.510000
2245.213663	65.120000
2246.811615	62.400000
2248.410929	68.280000
2250.008263	63.220000
2251.605288	71.680000
2253.203676	67.620000
2254.798415	65.620000
2256.391177	67.770000
2257.985302	70.630000
2259.580788	64.760000
2261.172630	63.520000
2262.764165	69.930000
2264.357061	66.880000
2265.944648	65.490000
2267.536932	72.630000
2269.123908	64.630000
2270.713913	66.630000
2272.298613	66.250000
2273.888007	63.400000
2275.472098	66.580000
2277.057551	63.810000
2278.641034	66.430000
2280.227544	66.690000
2281.810420	61.230000
2283.392992	60.650000
2284.975261	68.180000
2286.553901	64.500000
2288.135564	66.460000
2289.713599	68.120000
2291.294657	66.670000
2292.872089	64.185000
2294.447556	61.700000
2296.026046	64.890000
2297.600912	62.260000
2299.175477	61.100000
2300.749742	66.130000
2302.323706	59.820000
2303.897370	62.850000
2305.470733	67.720000
2307.040478	62.120000
2308.609924	59.130000
2310.182389	64.630000
2311.749578	61.140000
2313.319786	64.150000
2314.886379	63.190000
2316.454332	71.420000
2318.020330	62.240000
2319.586029	62.870000
2321.151432	68.370000
2322.714881	65.450000
2324.279688	68.760000
2325.840888	69.430000
2327.405102	79.570000
2328.964055	80.080000
2330.526021	73.660000
2332.086037	66.910000
2333.645757	70.480000
2335.203528	67.300000
2336.761005	69.840000
2338.318186	62.890000
2339.873421	64.910000
2341.428361	69.740000
2342.983008	64.420000
2344.537361	63.390000
2346.091420	64.600000
2347.645185	68.320000
2349.197007	66.560000
2350.746885	62.540000
2352.299771	71.270000
2353.847415	65.820000
2355.398066	69.230000
2356.945127	62.710000
2358.493545	72.790000
2360.041671	68.440000
2361.586210	64.080000
2363.132106	64.220000
2364.676063	66.310000
2366.221378	63.200000
2367.763108	66.800000
2369.306195	59.020000
2370.847347	72.270000
2372.388209	65.850000
2373.928782	62.790000
2375.469066	60.140000
2377.009061	67.650000
2378.545477	67.160000
2380.084895	66.760000
2381.620736	58.460000
2383.157933	70.530000
2384.691555	72.320000
2386.228178	69.870000
2387.762869	66.680000
2389.295631	65.210000
2390.828107	70.280000
2392.358654	64.910000
2393.892199	68.570000
2395.420533	63.670000
2396.950223	65.450000
2398.479628	68.850000
2400.008747	63.440000
2401.537582	67.140000
2403.061211	64.910000
2404.589477	66.570000
2406.112539	65.130000
2407.640235	70.290000
2409.161092	62.250000
2410.686582	69.320000
2412.208511	68.810000
2413.731796	64.360000
2415.253160	67.690000
2416.772604	66.390000
2418.293403	66.280000
2419.812283	68.130000
2421.330881	70.130000
2422.847562	69.690000
2424.365597	78.130000
2425.883351	71.870000
2427.397554	74.720000
2428.911476	73.370000
2430.425118	73.380000
2431.940115	78.180000
2433.451563	74.670000
2434.964366	82.350000
2436.475256	78.940000
2437.985866	83.490000
2439.494565	81.930000
2441.006251	85.460000
2442.514392	90.840000
2444.022256	93.170000
2445.529842	91.740000
2447.033887	107.430000
2448.540918	101.750000
2450.046040	96.300000
2451.550885	100.760000
2453.053823	101.300000
2454.556484	105.060000
2456.058869	98.890000
2457.559349	102.420000
2459.061182	102.980000
2460.561111	90.270000
2462.060764	91.780000
2463.560141	98.850000
2465.057616	91.540000
2466.553190	95.100000
2468.051743	88.130000
2469.546767	89.780000
2471.043145	90.100000
2472.535996	88.240000
2474.030199	79.020000
2475.524129	83.070000
2477.014536	82.340000
2478.507919	75.660000
2479.999405	79.050000
2481.488994	83.620000
2482.978311	77.460000
2484.465733	74.970000
2485.956130	73.790000
2487.443008	77.520000
2488.931238	71.750000
2490.415952	74.000000
2491.900395	70.420000
2493.386190	75.360000
2494.870092	71.860000
2496.355346	76.710000
2497.835466	69.350000
2499.318558	76.500000
2500.799760	71.360000
2502.280693	71.140000
2503.759737	72.220000
2505.238512	68.750000
2506.717019	64.020000
2508.195258	66.990000
2509.673228	75.960000
2511.147694	70.760000
2512.625128	67.520000
2514.099059	72.900000
2515.574341	68.120000
2517.049355	67.600000
2518.520868	69.170000
2519.993732	67.980000
2521.464712	66.580000
2522.937043	72.590000
2524.404261	73.000000
2525.874444	67.590000
2527.342747	69.400000
2528.810785	65.030000
2530.278558	68.790000
2531.746066	68.680000
2533.213309	68.370000
2534.677060	66.890000
2536.142161	66.820000
2537.605385	71.850000
2539.069959	62.420000
2540.531043	71.270000
2541.993477	64.750000
2543.455648	67.600000
2544.914333	68.470000
2546.377590	67.260000
2547.835750	66.980000
2549.295259	72.440000
2550.749675	62.130000
2552.208660	66.820000
2553.665774	66.760000
2555.121017	64.660000
2556.575999	66.480000
2558.029111	71.690000
2559.483572	71.070000
2560.936164	69.150000
2562.388496	65.500000
2563.838960	66.960000
2565.292380	66.800000
2566.740718	73.540000
2568.192012	68.500000
2569.641439	71.360000
2571.087395	68.650000
2572.536305	70.130000
2573.981744	72.460000
2575.428532	74.300000
2576.873456	68.400000
2578.318123	69.430000
2579.764137	70.380000
2581.206684	75.110000
2582.650579	75.730000
2584.091009	72.060000
2585.532787	73.120000
2586.972704	76.830000
2588.413969	69.720000
2589.851773	72.090000
2591.292526	68.830000
2592.728216	72.010000
2594.166856	72.450000
2595.603639	70.090000
2597.038565	70.550000
2598.476440	71.940000
2599.909256	74.500000
2601.343420	72.840000
2602.775730	77.090000
2604.209386	71.450000
2605.641189	79.260000
2607.072739	80.470000
2608.504035	72.910000
2609.933479	74.010000
2611.362672	78.940000
2612.790013	79.830000
2614.218701	78.160000
2615.647136	81.060000
2617.072124	75.650000
2618.498459	86.460000
2619.922945	85.560000
2621.348777	79.990000
2622.771165	88.380000
2624.194899	89.590000
2625.616786	90.560000
2627.038424	92.920000
2628.458216	96.300000
2629.879354	93.930000
2631.300242	97.570000
2632.717692	105.050000
2634.138081	98.630000
2635.555033	101.350000
2636.971737	109.900000
2638.388192	112.060000
2639.804399	115.880000
2641.220357	118.110000
2642.634475	126.610000
2644.048346	131.500000
2645.460377	131.690000
2646.873753	135.200000
2648.283699	142.660000
2649.696580	150.680000
2651.106034	159.200000
2652.515241	172.800000
2653.922612	171.680000
2655.332917	184.890000
2656.741386	199.030000
2658.148020	209.720000
2659.554409	222.950000
2660.958964	240.970000
2662.364863	258.690000
2663.768929	275.430000
2665.172751	304.520000
2666.576328	331.960000
2667.978073	362.890000
2669.381162	415.550000
2670.780834	456.550000
2672.181848	495.090000
2673.579447	532.970000
2674.979976	577.900000
2676.377090	628.980000
2677.775547	670.310000
2679.172176	709.440000
2680.568563	761.230000
2681.964709	787.460000
2683.359028	814.320000
2684.754690	817.780000
2686.146942	823.390000
2687.540538	819.450000
2688.932309	799.100000
2690.325422	761.720000
2691.716712	728.560000
2693.106179	697.370000
2694.495406	635.940000
2695.884394	595.870000
2697.274724	547.910000
2698.660069	492.080000
2700.048338	449.730000
2701.434787	404.610000
2702.820997	367.120000
2704.206969	335.020000
2705.589541	301.950000
2706.973456	281.830000
2708.357133	246.880000
2709.740572	232.400000
2711.120615	209.770000
2712.502000	203.490000
2713.881569	184.040000
2715.262480	175.130000
2716.641576	166.550000
2718.018857	154.310000
2719.397480	142.340000
2720.774290	135.410000
2722.150864	129.370000
2723.527202	128.010000
2724.901728	118.220000
2726.277595	118.150000
2727.650075	115.920000
2729.025472	102.940000
2730.395907	108.260000
2731.767684	107.580000
2733.139226	103.320000
2734.508960	99.350000
2735.880035	96.180000
2737.249302	95.630000
2738.618335	90.660000
2739.985561	89.030000
2741.352555	88.020000
2742.719316	83.430000
2744.085844	80.700000
2745.450567	84.840000
2746.815059	78.680000
2748.179318	77.490000
2749.543345	80.470000
2750.907141	77.260000
2752.267563	73.740000
2753.630896	72.010000
2754.989286	76.510000
2756.350586	74.120000
2757.708515	70.690000
2759.069354	71.340000
2760.428392	65.970000
2761.784062	69.520000
2763.142640	72.280000
2764.497852	67.690000
2765.852834	66.060000
2767.206019	62.870000
2768.562111	65.210000
2769.914839	64.770000
2771.267338	61.470000
2772.619609	65.470000
2773.973219	64.390000
2775.323467	65.900000
2776.671922	60.470000
2778.023281	63.930000
2779.371281	65.030000
2780.720620	62.540000
2782.068166	58.150000
2783.415485	60.200000
2784.762578	59.090000
2786.107880	60.260000
2787.452956	62.800000
2788.797806	56.190000
2790.142429	61.370000
2791.483701	58.910000
2792.826311	58.100000
2794.168695	54.300000
2795.510855	58.840000
2796.849665	59.650000
2798.191374	64.360000
2799.529736	60.270000
2800.869435	57.840000
2802.207348	60.700000
2803.543477	55.260000
2804.879382	52.030000
2806.216625	57.800000
2807.552084	62.300000
2808.887320	58.590000
2810.220773	60.290000
2811.555564	57.360000
2812.887013	58.250000
2814.221358	57.710000
2815.550805	58.450000
2816.881589	56.560000
2818.212151	59.560000
2819.540934	59.390000
2820.871053	57.190000
2822.199394	58.650000
2823.527514	53.910000
2824.853857	55.850000
2826.181535	57.390000
2827.505881	53.260000
2828.831562	51.050000
2830.155468	57.330000
2831.479155	55.840000
2832.804177	49.170000
2834.125869	60.490000
2835.447343	58.740000
2836.768598	58.160000
2838.089634	61.300000
2839.408898	54.650000
2840.729497	60.680000
2842.048324	57.720000
2843.366933	56.480000
2844.683772	56.670000
2846.000393	60.290000
2847.316796	56.110000
2848.631431	54.720000
2849.947400	53.790000
2851.260049	55.030000
2852.574034	57.140000
2853.887801	58.360000
2855.201353	58.040000
2856.513137	57.150000
2857.823156	52.460000
2859.134508	52.220000
2860.442546	54.140000
2861.751919	51.620000
2863.061076	50.240000
2864.370018	50.040000
2865.677197	49.250000
2866.982612	53.310000
2868.289362	54.710000
2869.594349	47.560000
2870.899123	50.300000
2872.202135	51.130000
2873.508029	53.530000
2874.809067	58.250000
2876.111440	54.070000
2877.412053	55.430000
2878.714000	50.340000
2880.015734	55.420000
2881.314163	52.300000
2882.613927	55.470000
2883.911932	52.010000
2885.209726	53.630000
2886.505764	55.880000
2887.803135	51.280000
2889.098750	49.950000
2890.394154	51.040000
2891.689348	52.840000
2892.981243	52.100000
2894.276015	52.130000
2895.567490	46.430000
2896.860298	49.010000
2898.152896	49.150000
2899.442200	43.230000
2900.732836	50.580000
2902.021721	42.550000
2903.311939	45.450000
2904.598865	51.640000
2905.887123	42.580000
2907.173631	50.050000
2908.459932	48.730000
2909.746024	49.130000
2911.030368	44.650000
2912.317584	44.470000
2913.599972	48.750000
2914.883693	40.930000
2916.165668	44.390000
2917.447436	50.820000
2918.727458	46.740000
2920.010350	46.020000
2921.291497	51.470000
2922.569362	49.790000
2923.850096	54.710000
2925.127549	50.590000
2926.404797	44.580000
2927.680302	48.320000
2928.958675	48.650000
2930.232233	53.300000
2931.508659	41.700000
2932.783344	44.240000
2934.056289	44.430000
2935.330564	48.000000
2936.603100	47.370000
2937.875432	44.010000
2939.144490	43.120000
2940.416414	47.180000
2941.686600	48.420000
2942.956583	48.140000
2944.226362	45.700000
2945.494404	47.330000
2946.760711	43.810000
2948.026815	47.870000
2949.294249	42.030000
2950.559949	47.870000
2951.825446	42.570000
2953.090741	46.160000
2954.352771	46.110000
2955.616132	48.230000
2956.879290	45.720000
2958.140717	47.200000
2959.403473	41.180000
2960.664498	45.770000
2961.923791	49.350000
2963.182885	42.760000
2964.441778	42.470000
2965.700471	44.460000
2966.958964	43.800000
2968.215728	44.710000
2969.472292	43.110000
2970.727129	49.120000
2971.983295	41.540000
2973.236205	44.730000
2974.490445	42.410000
2975.744486	45.410000
2976.996801	40.520000
2978.248918	43.700000
2979.499310	45.120000
2980.752557	48.870000
2982.001027	43.060000
2983.252351	43.180000
2984.500427	44.540000
2985.748305	41.830000
2986.995986	42.490000
2988.243471	40.530000
2989.489234	42.790000
2990.734800	43.940000
2991.981694	39.240000
2993.225344	43.410000
2994.470322	44.660000
2995.712057	46.900000
2996.956643	42.550000
2998.199509	47.240000
2999.439135	43.430000
3000.681612	47.240000
3001.920848	42.270000
3003.161412	46.850000
3004.400259	43.610000
3005.638912	43.550000
3006.875849	48.850000
3008.114113	43.470000
3009.350663	48.960000
3010.587018	43.580000
3011.823180	45.890000
3013.057629	42.230000
3014.291884	43.650000
3015.525946	39.690000
3016.758296	44.400000
3017.988934	44.230000
3019.222418	42.410000
3020.454190	46.840000
3021.684252	42.720000
3022.914122	51.640000
3024.142282	39.360000
3025.371768	41.300000
3026.599546	40.310000
3027.827132	45.990000
3029.056044	42.670000
3030.280214	43.600000
3031.507227	41.930000
3032.731016	41.980000
3033.956132	44.300000
3035.179541	39.660000
3036.402761	46.450000
3037.624275	45.310000
3038.848630	41.300000
3040.068250	40.530000
3041.289195	44.630000
3042.509952	40.740000
3043.729005	43.450000
3044.949384	40.360000
3046.166546	41.860000
3047.385033	43.680000
3048.601819	40.350000
3049.818416	38.910000
3051.034826	41.020000
3052.248022	40.380000
3053.464056	45.930000
3054.676878	38.850000
3055.892537	39.670000
3057.103473	41.690000
3058.315734	39.400000
3059.527809	37.130000
3060.739697	41.900000
3061.949887	41.310000
3063.159891	41.210000
3064.369710	38.750000
3065.577832	41.840000
3066.785768	42.760000
3067.992010	42.340000
3069.199575	40.020000
3070.405447	42.175000
3071.611133	44.330000
3072.816634	37.440000
3074.020442	39.970000
3075.225574	40.450000
3076.429014	40.630000
3077.630761	34.440000
3078.832325	37.930000
3080.033705	36.580000
3081.234901	33.150000
3082.434407	42.310000
3083.633729	41.660000
3084.834375	40.130000
3086.033332	37.740000
3087.229093	41.890000
3088.427684	36.150000
3089.623081	34.000000
3090.819801	36.430000
3092.013329	38.450000
3093.209686	34.830000
3094.404355	39.670000
3095.595834	37.660000
3096.791644	41.600000
3097.982761	36.210000
3099.175200	37.000000
3100.364452	37.730000
3101.556530	34.300000
3102.746923	37.030000
3103.934131	38.070000
3105.122662	38.860000
3106.312515	35.470000
3107.499183	38.330000
3108.685672	38.820000
3109.871981	38.480000
3111.059612	42.480000
3112.244062	34.850000
3113.426831	38.610000
3114.612424	35.120000
3115.796336	37.440000
3116.978570	38.000000
3118.160625	37.200000
3119.342503	35.510000
3120.524202	40.540000
3121.704223	36.670000
3122.882568	37.230000
3124.063734	38.080000
3125.241724	40.900000
3126.419537	32.510000
3127.597173	36.430000
3128.773134	39.310000
3129.948918	36.520000
3131.126024	39.020000
3132.301455	36.600000
3133.475213	33.320000
3134.647299	33.540000
3135.820705	41.230000
3136.993936	38.610000
3138.165494	33.370000
3139.338374	36.290000
3140.508086	36.640000
3141.679119	36.110000
3142.848481	39.170000
3144.016174	35.320000
3145.186682	33.610000
3146.352531	34.100000
3147.522690	34.330000
3148.688191	35.720000
3149.853519	34.520000
3151.018673	38.810000
3152.183653	38.040000
3153.349954	35.150000
3154.511601	40.510000
3155.674569	38.270000
3156.837363	36.810000
3157.999985	38.230000
3159.160942	31.860000
3160.321726	35.700000
3161.482338	36.670000
3162.641287	33.050000
3163.800063	32.930000
3164.958668	37.840000
3166.117101	33.750000
3167.275362	40.180000
3168.431961	31.740000
3169.586899	42.420000
3170.743156	34.860000
3171.897753	35.330000
3173.052178	37.090000
3174.204944	33.310000
3175.357540	39.540000
3176.509965	35.600000
3177.662221	37.860000
3178.814307	33.370000
3179.963246	33.160000
3181.114992	35.870000
3182.265080	34.180000
3183.413512	38.620000
3184.561775	31.350000
3185.709868	35.910000
3186.857793	36.320000
3188.004063	31.430000
3189.150164	34.030000
3190.294610	30.770000
3191.438889	33.720000
3192.583000	34.550000
3193.728429	36.520000
3194.870719	33.730000
3196.012841	36.420000
3197.154796	34.890000
3198.296585	38.210000
3199.438206	34.070000
3200.576691	40.470000
3201.716494	41.070000
3202.857615	31.930000
3203.995601	38.550000
3205.131938	38.800000
3206.268109	36.070000
3207.405598	33.090000
3208.541438	39.460000
3209.678594	42.860000
3210.811138	33.050000
3211.947964	39.980000
3213.080178	37.840000
3214.213710	35.180000
3215.347076	36.770000
3216.477315	41.010000
3217.610352	33.620000
3218.740263	39.670000
3219.871491	35.750000
3220.999593	31.670000
3222.130492	35.390000
3223.259748	38.640000
3224.387359	34.950000
3225.511849	39.420000
3226.640614	41.680000
3227.766257	37.540000
3228.891737	47.800000
3230.015576	46.110000
3231.142209	44.280000
3232.264245	45.600000
3233.387597	47.520000
3234.510787	54.150000
3235.633815	56.600000
3236.755203	55.120000
3237.876430	59.100000
3238.996018	62.990000
3240.115445	66.150000
3241.233234	66.510000
3242.353816	62.080000
3243.471283	64.760000
3244.588591	64.420000
3245.705737	66.250000
3246.821248	58.820000
3247.938074	62.030000
3249.051789	54.020000
3250.168295	54.790000
3251.283165	51.060000
3252.394927	44.090000
3253.506530	47.240000
3254.619447	42.410000
3255.732206	45.540000
3256.841858	42.180000
3257.952825	37.470000
3259.063632	36.690000
3260.172809	34.340000
3261.280354	30.540000
3262.389214	30.570000
3263.497915	32.490000
3264.603514	38.330000
3265.710428	33.070000
3266.815712	35.110000
3267.922310	30.010000
3269.025808	37.470000
3270.130620	25.930000
3271.235275	37.260000
3272.336831	29.490000
3273.438232	34.650000
3274.540946	33.010000
3275.643503	38.570000
3276.742965	34.550000
3277.845209	39.990000
3278.944359	31.630000
3280.041883	31.150000
3281.139252	32.700000
3282.239404	31.740000
3283.336462	29.530000
3284.433365	32.320000
3285.530114	25.790000
3286.622303	26.820000
3287.718741	31.930000
3288.813558	30.970000
3289.908219	34.800000
3291.001259	29.860000
3292.094145	30.160000
3293.185410	33.180000
3294.277988	34.380000
3295.368945	34.610000
3296.458283	29.860000
3297.547468	33.980000
3298.637966	38.070000
3299.725379	30.260000
3300.812640	27.220000
3301.901213	33.740000
3302.989633	32.160000
3304.073506	30.580000
3305.161621	28.770000
3306.246655	33.310000
3307.330072	27.840000
3308.414802	27.480000
3309.497917	29.630000
3310.582343	34.570000
3311.663691	31.430000
3312.746351	32.100000
3313.827397	26.060000
3314.908292	28.610000
3315.987574	29.690000
3317.066705	29.500000
3318.147147	27.740000
3319.224516	28.290000
3320.303196	27.920000
3321.380264	25.460000
3322.457182	32.140000
3323.532489	33.660000
3324.607647	31.340000
3325.684116	30.850000
3326.757515	24.580000
3327.830765	32.440000
3328.905326	24.150000
3329.978277	29.070000
3331.049621	28.620000
3332.122275	32.170000
3333.191862	27.180000
3334.262760	26.710000
3335.332051	24.510000
3336.402653	27.010000
3337.471648	23.430000
3338.539037	31.600000
3339.604821	30.110000
3340.674831	29.040000
3341.741778	33.630000
3342.805663	35.540000
3343.872316	30.100000
3344.937364	27.360000
3346.000810	29.290000
3347.064108	30.280000
3348.127261	29.220000
3349.190267	25.130000
3350.253126	32.120000
3351.314384	27.860000
3352.372585	29.280000
3353.435007	31.030000
3354.494372	24.860000
3355.553592	32.720000
3356.614122	29.410000
3357.670142	33.770000
3358.728927	29.560000
3359.783204	28.510000
3360.840244	27.260000
3361.895687	28.450000
3362.952438	28.080000
3364.007592	31.830000
3365.061148	29.530000
3366.113107	25.130000
3367.167828	29.900000
3368.219500	25.630000
3369.271029	25.450000
3370.323867	27.140000
3371.373657	28.080000
3372.424755	30.760000
3373.472808	32.200000
3374.523621	33.020000
3375.571388	33.390000
3376.619013	26.570000
3377.666495	28.480000
3378.712385	24.680000
3379.759583	28.280000
3380.803739	26.710000
3381.850653	28.040000
3382.895975	27.540000
3383.938257	28.350000
3384.980397	23.790000
3386.023845	29.630000
3387.067153	26.170000
3388.108870	24.160000
3389.150446	30.610000
3390.191882	25.150000
3391.231728	33.760000
3392.269987	33.040000
3393.309553	33.060000
3394.348978	27.770000
3395.386817	31.210000
3396.423068	24.580000
3397.459179	29.160000
3398.496598	27.770000
3399.530984	31.810000
3400.566677	27.900000
3401.602231	30.790000
3402.634754	27.750000
3403.670030	30.170000
3404.702275	26.300000
3405.734382	26.740000
3406.764905	32.060000
3407.796736	25.450000
3408.828427	24.150000
3409.857092	31.880000
3410.885618	25.650000
3411.915452	30.380000
3412.945147	29.640000
3413.971817	23.600000
3414.999794	24.230000
3416.024746	30.230000
3417.052448	28.950000
3418.077127	26.490000
3419.103112	28.100000
3420.127517	29.330000
3421.151786	26.000000
3422.174476	23.670000
3423.197030	25.060000
3424.220890	23.180000
3425.241730	27.940000
3426.262435	30.630000
3427.284445	29.370000
3428.303437	23.970000
3429.322294	23.510000
3430.342456	28.290000
3431.359602	29.110000
