-117.897011	-2.210000
-115.227411	5.610000
-112.560746	0.520000
-109.894833	1.670000
-107.231852	4.360000
-104.567442	-1.470000
-101.905962	4.420000
-99.243052	0.160000
-96.585250	-4.210000
-93.926017	2.090000
-91.267533	1.750000
-88.611974	4.780000
-85.954986	3.960000
-83.303095	2.030000
-80.649775	0.140000
-77.999375	3.990000
-75.347545	3.340000
-72.700806	-1.450000
-70.052637	0.170000
-67.405212	0.140000
-64.760700	2.290000
-62.114760	3.380000
-59.473901	-4.200000
-56.831613	-3.140000
-54.192233	1.690000
-51.551425	2.470000
-48.911357	2.570000
-46.276361	7.560000
-43.639936	4.730000
-41.006415	0.290000
-38.371465	3.620000
-35.741580	6.480000
-33.108103	10.310000
-30.479688	9.340000
-27.852006	14.730000
-25.222897	7.390000
-22.598844	8.140000
-19.971202	13.240000
-17.348613	22.310000
-14.726755	37.080000
-12.105629	57.840000
-9.485232	151.610000
-6.867723	553.840000
-4.248786	1958.720000
-1.632735	4770.180000
0.982588	5328.520000
3.597184	3147.530000
6.208897	420.420000
8.822039	49.290000
11.430147	26.560000
14.041837	17.960000
16.648496	16.830000
19.256583	3.080000
21.863946	15.740000
24.466284	6.720000
27.072200	7.210000
29.673094	5.270000
32.275417	6.170000
34.872721	3.620000
37.473601	9.240000
40.069467	6.600000
42.666760	6.310000
45.263334	3.540000
47.854899	1.990000
50.447892	4.880000
53.038024	1.850000
55.629584	6.790000
58.218284	3.550000
60.808411	1.070000
63.393540	0.930000
65.980096	-0.630000
68.565937	5.500000
71.148925	3.600000
73.733340	3.290000
76.310625	5.420000
78.891477	2.590000
81.469480	4.730000
84.046773	-1.920000
86.625492	6.510000
89.199230	0.880000
91.774394	-2.390000
94.346715	9.860000
96.918328	4.090000
99.487102	6.280000
102.057302	0.300000
104.624663	3.140000
107.193451	2.730000
109.759401	4.280000
112.322517	13.880000
114.889189	9.800000
117.446640	10.160000
120.009776	9.090000
122.567953	21.720000
125.129683	29.280000
127.686458	37.890000
130.244658	56.830000
132.797906	84.340000
135.350455	122.460000
137.906555	170.220000
140.457708	227.230000
143.008162	283.760000
145.557920	332.640000
148.104858	372.350000
150.651100	395.900000
153.198768	411.070000
155.745741	421.220000
158.287777	420.760000
160.829120	410.660000
163.369770	410.690000
165.911846	404.710000
168.451111	412.900000
170.987566	397.800000
173.523331	403.600000
176.060521	390.640000
178.597019	388.800000
181.130712	390.710000
183.661602	381.840000
186.191803	389.840000
188.723429	393.740000
191.252254	377.560000
193.778280	382.450000
196.303621	385.780000
198.830386	388.600000
201.354354	390.870000
203.877638	396.240000
206.400237	399.550000
208.920043	394.630000
211.439166	399.060000
213.957606	399.580000
216.477470	399.020000
218.990333	403.870000
221.506727	401.520000
224.022439	414.600000
226.533262	423.240000
229.045509	426.350000
231.554973	420.350000
234.063759	418.520000
236.571867	423.160000
239.081398	423.900000
241.586050	423.570000
244.090025	415.410000
246.595424	425.950000
249.095948	436.490000
251.599995	435.310000
254.097072	428.180000
256.597671	429.150000
259.095499	437.320000
261.592654	426.980000
264.089136	432.020000
266.580756	427.050000
269.075894	434.030000
271.568267	421.700000
274.059969	422.490000
276.548908	417.630000
279.039270	425.660000
281.526871	419.560000
284.011712	423.370000
286.500067	431.260000
288.981483	432.920000
291.466413	432.820000
293.946498	444.290000
296.430095	443.400000
298.908849	459.970000
301.389027	471.220000
303.866452	475.640000
306.343214	461.950000
308.819313	447.230000
311.292663	430.970000
313.765351	427.350000
316.237378	429.250000
318.708744	435.570000
321.177366	453.140000
323.645328	445.270000
326.114713	422.430000
328.579275	416.640000
331.047340	408.710000
333.510586	397.820000
335.973175	394.760000
338.435106	387.040000
340.896381	390.530000
343.354922	391.420000
345.814885	382.540000
348.272115	384.050000
350.728691	378.970000
353.184613	366.830000
355.637806	360.380000
358.092420	355.240000
360.542233	353.030000
362.995543	353.410000
365.444053	346.400000
367.891913	342.020000
370.341194	338.850000
372.785682	332.060000
375.231592	336.060000
377.676853	329.780000
380.119395	332.370000
382.561289	325.220000
385.002535	325.570000
387.441066	318.910000
389.881019	311.770000
392.318258	312.450000
394.752785	306.740000
397.190800	315.560000
399.624038	306.210000
402.058698	306.900000
404.488584	305.040000
406.921956	307.530000
409.350558	302.700000
411.778519	299.150000
414.207900	297.050000
416.632516	308.150000
419.058554	301.530000
421.483951	307.690000
423.908708	301.410000
426.328707	297.940000
428.750127	303.870000
431.168850	296.270000
433.588994	292.120000
436.006443	293.100000
438.425312	280.500000
440.841488	280.000000
443.252917	272.620000
445.667822	266.400000
448.080037	254.540000
450.491618	257.510000
452.902565	248.670000
455.310826	243.680000
457.718454	241.150000
460.125451	235.440000
462.531815	234.290000
464.935497	239.610000
467.338549	237.950000
469.740971	232.430000
472.142764	241.430000
474.541878	244.040000
476.942412	240.770000
479.342317	244.530000
481.737499	252.610000
484.136148	252.660000
486.530077	265.290000
488.923380	276.310000
491.316057	290.960000
493.708109	310.400000
496.101580	332.510000
498.490338	385.060000
500.876430	462.650000
503.263942	561.870000
505.650830	745.960000
508.035055	1007.460000
510.420699	1395.190000
512.803680	1943.090000
515.184001	2523.400000
517.565741	2968.900000
519.944822	2992.100000
522.325322	2704.240000
524.703164	2247.810000
527.078351	1864.250000
529.452920	1536.770000
531.828908	1306.600000
534.202242	1135.580000
536.576994	1016.890000
538.947061	920.270000
541.316512	840.120000
543.687381	778.010000
546.053570	720.230000
548.421177	675.450000
550.786138	629.500000
553.150486	594.900000
555.514222	564.260000
557.879375	542.150000
560.239855	515.710000
562.601754	493.650000
564.961013	471.910000
567.317633	465.050000
569.677698	455.990000
572.031073	448.020000
574.387892	435.400000
576.742075	422.880000
579.095651	415.930000
581.448618	400.840000
583.798954	390.610000
586.150706	391.240000
588.495782	382.500000
590.846322	370.700000
593.190189	365.640000
595.539516	364.890000
597.884196	354.860000
600.226250	349.280000
602.569722	347.850000
604.910571	342.500000
607.250818	346.850000
609.588444	350.480000
611.929505	366.270000
614.265929	387.180000
616.603769	390.280000
618.938991	394.990000
621.271598	385.860000
623.605621	368.720000
625.937031	359.130000
628.267842	344.660000
630.598055	331.770000
632.927670	333.710000
635.252663	329.570000
637.583097	331.640000
639.908909	335.500000
642.232115	330.580000
644.556736	322.980000
646.878753	319.400000
649.200175	309.800000
651.518994	310.470000
653.839229	300.640000
656.158871	299.190000
658.475912	305.770000
660.792361	299.200000
663.106213	293.750000
665.421479	292.520000
667.734149	292.240000
670.048234	290.030000
672.357719	288.800000
674.668620	283.770000
676.976928	289.860000
679.284648	290.310000
681.593783	277.070000
683.898325	275.170000
686.202280	276.930000
688.505650	278.120000
690.810434	273.710000
693.110632	269.360000
695.412244	258.440000
697.713272	257.130000
700.009717	250.040000
702.307578	243.180000
704.604855	242.060000
706.901549	236.660000
709.193667	230.880000
711.489196	229.090000
713.780152	233.760000
716.072522	233.780000
718.362316	229.820000
720.651531	223.310000
722.940165	230.600000
725.226228	227.840000
727.513704	227.230000
729.798610	230.960000
732.082937	228.640000
734.364696	229.340000
736.647869	233.820000
738.930465	230.240000
741.208506	239.260000
743.487960	229.660000
745.766839	229.680000
748.045142	226.750000
750.318896	231.300000
752.594064	226.250000
754.868658	225.330000
757.140693	217.290000
759.414140	225.880000
761.685030	225.140000
763.953364	219.700000
766.223111	216.730000
768.490304	230.290000
770.756926	221.080000
773.022979	219.760000
775.286479	223.670000
777.551393	226.920000
779.815737	225.090000
782.075552	222.440000
784.336780	228.900000
786.597440	234.200000
788.855553	230.110000
791.111122	232.420000
793.370082	231.410000
795.622543	232.560000
797.880371	229.020000
800.133679	235.920000
802.384448	234.220000
804.636629	225.740000
806.886272	233.780000
809.137326	232.850000
811.383869	234.580000
813.631825	233.710000
815.877245	237.360000
818.124077	229.950000
820.370348	230.550000
822.612115	230.970000
824.857264	222.850000
827.095941	226.420000
829.338001	216.980000
831.575562	220.370000
833.814534	212.710000
836.050980	205.770000
838.288837	202.680000
840.524170	206.280000
842.756978	210.560000
844.991198	207.450000
847.222896	218.990000
849.454039	211.050000
851.684627	211.030000
853.914661	210.440000
856.144140	207.030000
858.369138	221.730000
860.597511	214.270000
862.821405	205.230000
865.046709	206.500000
867.267538	206.850000
869.491739	212.950000
871.711467	202.830000
873.932606	206.990000
876.153194	210.370000
878.371272	207.680000
880.590761	206.300000
882.805783	208.740000
885.020257	210.810000
887.234184	206.420000
889.447563	209.490000
891.660395	201.600000
893.872681	204.630000
896.082464	208.960000
898.291702	203.190000
900.500395	204.570000
902.706589	207.150000
904.914192	202.610000
907.119298	206.080000
909.323860	211.440000
911.525926	209.360000
913.729402	213.000000
915.930384	218.400000
918.130825	229.390000
920.332674	230.490000
922.528131	242.950000
924.726948	250.220000
926.921327	276.820000
929.119062	294.370000
931.312362	334.300000
933.507071	358.610000
935.699294	394.350000
937.890979	425.590000
940.082126	452.080000
942.270790	464.990000
944.458917	454.860000
946.644564	459.950000
948.833563	468.530000
951.018139	461.870000
953.202180	464.710000
955.389571	465.650000
957.568658	469.780000
959.751096	468.610000
961.933000	457.550000
964.112430	468.460000
966.289387	465.220000
968.467751	467.270000
970.647523	466.280000
972.820946	467.430000
974.997715	460.620000
977.170078	464.620000
979.343847	466.470000
981.513213	452.090000
983.685924	440.070000
985.856168	406.110000
988.025884	386.200000
990.195071	354.660000
992.359861	322.940000
994.527992	310.370000
996.691729	289.490000
998.856872	284.950000
1001.019557	273.870000
1003.181715	264.980000
1005.341417	259.980000
1007.500595	255.800000
1009.661179	252.570000
1011.819308	241.920000
1013.976913	234.360000
1016.133995	231.160000
1018.290554	224.790000
1020.442733	226.910000
1022.596318	216.940000
1024.749382	215.800000
1026.899998	202.250000
1029.052019	205.830000
1031.199667	204.480000
1033.350647	204.980000
1035.497256	204.440000
1037.643347	197.990000
1039.788918	200.360000
1041.935895	199.530000
1044.076584	195.420000
1046.220601	196.170000
1048.362178	200.070000
1050.503239	195.210000
1052.645704	193.680000
1054.781890	192.330000
1056.921402	196.300000
1059.056558	198.500000
1061.195039	195.910000
1063.329166	200.190000
1065.462780	194.240000
1067.597799	199.630000
1069.728468	196.430000
1071.860542	186.430000
1073.990187	195.370000
1076.119320	192.050000
1078.247941	196.770000
1080.376051	190.950000
1082.501735	191.160000
1084.626909	190.750000
1086.753487	187.410000
1088.875728	180.450000
1090.999372	196.740000
1093.118683	188.810000
1095.243222	189.310000
1097.361516	183.910000
1099.481215	187.500000
1101.598495	178.320000
1103.715269	179.840000
1105.831536	184.180000
1107.945388	187.470000
1110.060643	185.350000
1112.171576	186.850000
1114.285820	182.100000
1116.395744	183.370000
1118.507072	183.170000
1120.617895	176.770000
1122.724403	173.240000
1124.834219	177.230000
1126.939721	175.140000
1129.046626	174.100000
1131.147316	170.480000
1133.253218	171.610000
1135.354811	170.110000
1137.457807	168.120000
1139.560302	161.180000
1141.656591	162.030000
1143.758086	159.890000
1145.855279	166.240000
1147.951973	162.750000
1150.048169	161.320000
1152.143868	162.620000
1154.239069	161.580000
1156.331873	158.570000
1158.426079	162.380000
1160.514094	154.550000
1162.607307	159.610000
1164.694332	166.200000
1166.784656	166.560000
1168.870693	161.970000
1170.960027	161.570000
1173.043180	165.870000
1175.127736	163.670000
1177.213692	166.950000
1179.295367	165.080000
1181.378444	165.590000
1183.459135	171.790000
1185.539334	173.850000
1187.619042	170.670000
1189.698259	171.450000
1191.775094	167.890000
1193.849548	174.780000
1195.927294	169.520000
1198.000769	172.100000
1200.075645	171.600000
1202.146254	171.450000
1204.218265	171.270000
1206.287899	168.190000
1208.358934	170.370000
1210.429481	164.380000
1212.495767	158.780000
1214.563454	163.620000
1216.628769	160.120000
1218.695484	160.270000
1220.757943	158.790000
1222.823687	156.640000
1224.885178	155.820000
1226.948068	159.320000
1229.008591	154.150000
1231.068630	157.210000
1233.128187	160.190000
1235.185378	158.240000
1237.242088	154.610000
1239.296435	156.470000
1241.354062	152.380000
1243.409327	157.710000
1245.460351	158.910000
1247.512775	162.250000
1249.564719	154.780000
1251.614305	161.410000
1253.663412	159.910000
1255.712041	161.410000
1257.760191	163.320000
1259.807863	161.950000
1261.851304	166.230000
1263.898020	163.670000
1265.942384	165.300000
1267.986270	168.620000
1270.027806	158.540000
1272.066992	161.910000
1274.109450	165.960000
1276.147686	161.710000
1278.187321	165.460000
1280.226481	165.630000
1282.261422	168.450000
1284.297763	168.420000
1286.331758	166.650000
1288.367152	170.480000
1290.398332	168.590000
1292.430911	165.610000
1294.463017	170.120000
1296.492783	165.320000
1298.523947	170.730000
1300.550903	171.470000
1302.579257	168.020000
1304.603407	168.100000
1306.630821	168.470000
1308.654033	165.430000
1310.678643	164.520000
1312.700919	161.930000
1314.724592	167.500000
1316.745932	166.810000
1318.766804	168.710000
1320.787210	162.790000
1322.803421	165.960000
1324.821031	168.230000
1326.836312	168.170000
1328.854851	173.640000
1330.869202	169.790000
1332.881227	174.550000
1334.896509	180.160000
1336.907606	171.940000
1338.920100	175.290000
1340.928411	173.710000
1342.939978	174.470000
1344.945505	173.950000
1346.954288	175.550000
1348.958893	169.490000
1350.966752	169.410000
1352.974149	168.430000
1354.975515	164.130000
1356.978278	158.060000
1358.980580	159.520000
1360.982423	159.470000
1362.983806	160.730000
1364.982876	162.790000
1366.981487	150.960000
1368.979640	159.440000
1370.977335	161.190000
1372.970866	158.120000
1374.965794	154.590000
1376.960265	162.300000
1378.954279	155.650000
1380.945986	153.590000
1382.937237	158.430000
1384.926183	155.150000
1386.916524	156.460000
1388.906410	144.020000
1390.893993	148.350000
1392.881121	143.760000
1394.865949	151.630000
1396.852170	138.600000
1398.836092	138.270000
1400.819561	138.510000
1402.802578	138.260000
1404.783296	141.960000
1406.765410	144.880000
1408.745226	146.930000
1410.724592	138.020000
1412.699818	144.230000
1414.678284	142.410000
1416.654455	144.140000
1418.630178	142.260000
1420.605451	144.330000
1422.578433	145.120000
1424.550967	149.520000
1426.523054	146.680000
1428.494692	145.900000
1430.462202	147.920000
1432.434787	151.390000
1434.399565	145.250000
1436.369416	149.180000
1438.335142	154.880000
1440.302261	153.310000
1442.267097	140.720000
1444.227814	151.940000
1446.193598	142.750000
1448.153427	147.330000
1450.114649	151.160000
1452.077264	148.410000
1454.035764	148.810000
1455.993822	149.990000
1457.951437	148.310000
1459.908611	152.900000
1461.863509	150.340000
1463.819799	157.300000
1465.773815	153.570000
1467.727391	156.540000
1469.678694	158.680000
1471.631389	154.080000
1473.581813	153.950000
1475.531798	162.490000
1477.481343	152.780000
1479.428620	150.200000
1481.373630	151.860000
1483.320031	158.860000
1485.265996	154.710000
1487.211522	151.340000
1489.154784	144.430000
1491.097609	148.910000
1493.038171	148.970000
1494.980124	146.860000
1496.919816	143.110000
1498.859072	144.030000
1500.797893	144.090000
1502.734455	142.670000
1504.672408	147.320000
1506.608103	145.550000
1508.543364	136.080000
1510.476368	136.860000
1512.408940	140.890000
1514.341080	144.710000
1516.272788	148.820000
1518.202242	141.610000
1520.133087	140.230000
1522.063501	149.290000
1523.989841	147.700000
1525.917573	152.720000
1527.843054	154.440000
1529.768106	149.140000
1531.692729	154.260000
1533.616923	156.480000
1535.538870	154.700000
1537.462206	159.410000
1539.383297	159.190000
1541.302143	161.880000
1543.222379	162.560000
1545.140371	165.500000
1547.057937	169.460000
1548.973261	179.500000
1550.889975	181.400000
1552.802634	187.280000
1554.718497	193.990000
1556.632120	210.150000
1558.543506	217.750000
1560.456280	224.760000
1562.365005	235.990000
1564.275120	259.250000
1566.184811	284.840000
1568.094078	322.330000
1570.001112	357.160000
1571.905913	413.340000
1573.812103	477.910000
1575.716061	553.360000
1577.619599	640.730000
1579.522715	713.690000
1581.423603	770.700000
1583.325878	758.140000
1585.225926	710.600000
1587.127361	630.770000
1589.024763	545.190000
1590.921746	457.920000
1592.818311	388.150000
1594.716264	334.840000
1596.608382	293.260000
1598.503693	262.230000
1600.398587	246.440000
1602.291259	224.110000
1604.183515	212.590000
1606.073551	203.660000
1607.963171	199.530000
1609.852375	195.580000
1611.741165	186.040000
1613.627738	183.420000
1615.515697	187.190000
1617.399640	186.200000
1619.284971	184.540000
1621.169887	180.380000
1623.052591	181.850000
1624.936680	168.370000
1626.816759	165.580000
1628.698224	154.470000
1630.577479	159.560000
1632.458120	148.960000
1634.332957	148.590000
1636.212776	143.070000
1638.088589	148.930000
1639.963992	137.380000
1641.840782	140.070000
1643.711774	137.830000
1645.585948	137.670000
1647.456124	147.840000
1649.329480	139.910000
1651.200633	133.850000
1653.069584	136.790000
1654.939921	140.010000
1656.806264	132.560000
1658.673993	138.440000
1660.539524	134.130000
1662.406439	128.830000
1664.269366	134.040000
1666.133678	125.850000
1667.995794	135.570000
1669.857506	127.040000
1671.720602	125.460000
1673.581504	127.460000
1675.440212	129.130000
1677.298517	126.350000
1679.158207	129.180000
1681.012130	125.790000
1682.869225	125.510000
1684.725918	128.700000
1686.578635	129.200000
1688.434523	122.090000
1690.286436	125.510000
1692.137949	123.700000
1693.989061	121.460000
1695.839773	131.120000
1697.690084	129.940000
1699.538211	121.070000
1701.387721	125.370000
1703.231483	120.990000
1705.080194	121.670000
1706.923160	120.780000
1708.769291	116.910000
1710.611461	123.860000
1712.456795	121.140000
1714.296389	128.190000
1716.137367	121.300000
1717.979728	123.490000
1719.818133	116.990000
1721.657921	126.100000
1723.495534	114.350000
1725.332751	121.500000
1727.167795	118.680000
1729.004222	120.460000
1730.838477	117.580000
1732.672337	117.280000
1734.505804	117.440000
1736.335324	118.790000
1738.168003	111.710000
1739.996738	116.410000
1741.828631	115.400000
1743.656581	118.370000
1745.484139	118.010000
1747.311305	116.290000
1749.138080	113.350000
1750.964464	112.470000
1752.786911	105.230000
1754.612512	109.900000
1756.434179	110.890000
1758.257228	102.630000
1760.078116	109.370000
1761.898614	114.820000
1763.720494	110.690000
1765.536674	110.170000
1767.356006	110.550000
1769.171411	104.170000
1770.989966	110.290000
1772.804596	116.840000
1774.618840	108.190000
1776.432696	110.830000
1778.246166	112.200000
1780.057483	109.830000
1781.870181	109.960000
1783.682492	111.480000
1785.490886	109.030000
1787.300661	114.170000
1789.106520	112.510000
1790.915526	105.420000
1792.720617	105.970000
1794.527090	115.570000
1796.333179	112.290000
1798.135358	112.040000
1799.940680	110.040000
1801.742094	111.250000
1803.544888	114.890000
1805.343776	108.140000
1807.144045	102.260000
1808.943932	111.560000
1810.741678	106.170000
1812.539043	102.410000
1814.336027	108.050000
1816.132631	102.880000
1817.927096	105.490000
1819.722940	104.440000
1821.513130	107.300000
1823.308216	102.260000
1825.097649	104.750000
1826.890219	104.350000
1828.680654	103.320000
1830.468955	105.190000
1832.260391	108.070000
1834.046181	101.320000
1835.833351	106.340000
1837.618389	107.490000
1839.406561	107.840000
1841.190847	105.980000
1842.973004	111.200000
1844.756539	102.840000
1846.537946	108.620000
1848.320732	106.630000
1850.099638	105.440000
1851.879922	107.250000
1853.658080	112.720000
1855.437617	110.910000
1857.215029	112.290000
1858.990317	110.030000
1860.766984	111.770000
1862.541527	110.990000
1864.317449	111.680000
1866.087751	105.330000
1867.861179	118.130000
1869.632488	112.660000
1871.403427	112.410000
1873.175742	109.540000
1874.942445	109.620000
1876.712272	108.880000
1878.478236	110.570000
1880.247324	110.340000
1882.012550	107.920000
1883.777407	109.200000
1885.543642	108.650000
1887.306018	109.550000
1889.068027	110.590000
1890.829668	110.030000
1892.590943	104.900000
1894.351850	111.410000
1896.112391	111.370000
1897.870822	111.610000
1899.628888	104.670000
1901.384845	108.220000
1903.142180	111.380000
1904.899148	103.140000
1906.654011	112.410000
1908.406768	104.480000
1910.159162	105.410000
1911.912931	112.270000
1913.664597	103.890000
1915.414161	104.810000
1917.165101	100.400000
1918.915677	101.620000
1920.662414	99.930000
1922.410528	106.810000
1924.156542	101.420000
1925.903932	108.010000
1927.649223	97.980000
1929.392417	100.780000
1931.136987	105.280000
1932.879460	99.580000
1934.621573	100.470000
1936.363326	98.330000
1938.104720	102.830000
1939.844020	97.330000
1941.582961	94.320000
1943.321543	103.030000
1945.058033	96.820000
1946.794166	100.620000
1948.531673	104.420000
1950.265358	99.140000
1952.000418	97.920000
1953.733390	98.780000
1955.466005	101.140000
1957.198263	103.730000
1958.930165	100.450000
1960.659981	91.450000
1962.387713	100.990000
1964.116818	97.460000
1965.845569	99.900000
1967.572236	105.260000
1969.298549	103.600000
1971.026235	99.400000
1972.748385	103.020000
1974.473636	102.650000
1976.195081	102.620000
1977.919625	98.780000
1979.642090	95.760000
1981.360751	93.460000
1983.082511	99.400000
1984.800469	101.580000
1986.519800	103.460000
1988.235332	100.500000
1989.955685	101.030000
1991.672238	99.660000
1993.384996	97.430000
1995.100849	95.090000
1996.814629	99.000000
1998.528060	92.590000
2000.239420	99.970000
2001.952153	102.510000
2003.661094	96.640000
2005.373129	100.790000
2007.079654	94.590000
2008.789272	96.660000
2010.496822	97.050000
2012.204025	100.330000
2013.909162	104.150000
2015.613952	106.680000
2017.320114	100.020000
2019.022494	100.120000
2020.726246	97.410000
2022.427934	101.500000
2024.129278	104.530000
2025.830276	101.640000
2027.529214	99.380000
2029.229522	101.520000
2030.926056	104.440000
2032.623961	102.700000
2034.319807	95.390000
2036.018739	96.260000
2037.712185	94.790000
2039.407003	99.510000
2041.101477	97.960000
2042.792183	93.820000
2044.485973	98.270000
2046.175996	94.960000
2047.867390	93.710000
2049.556731	93.080000
2051.247442	94.980000
2052.934391	87.130000
2054.620999	101.680000
2056.308978	98.630000
2057.993197	92.420000
2059.678786	92.860000
2061.364036	99.740000
2063.047238	92.550000
2064.731809	100.790000
2066.410918	98.050000
2068.094812	96.150000
2069.773246	95.840000
2071.454756	94.800000
2073.132516	94.260000
2074.809938	97.380000
2076.488731	94.620000
2078.165480	95.650000
2079.840188	105.430000
2081.516265	98.230000
2083.190302	95.540000
2084.864003	95.400000
2086.537369	97.870000
2088.208697	97.050000
2089.879690	90.140000
2091.550349	94.750000
2093.220673	98.790000
2094.890664	95.340000
2096.558619	93.220000
2098.226241	94.740000
2099.891829	98.190000
2101.558785	101.580000
2103.223707	92.350000
2104.888298	98.850000
2106.550857	93.790000
2108.214784	89.540000
2109.876681	99.010000
2111.538246	99.890000
2113.199480	100.900000
2114.858686	102.340000
2116.517562	103.530000
2118.176107	94.400000
2119.834323	98.030000
2121.488815	99.760000
2123.146372	93.340000
2124.803600	102.460000
2126.457106	95.700000
2128.111980	94.610000
2129.763136	96.000000
2131.417353	97.510000
2133.067854	91.990000
2134.719721	90.220000
2136.366180	98.910000
2138.017394	90.450000
2139.664894	91.010000
2141.313761	87.750000
2142.960610	85.830000
2144.607132	90.060000
2146.253329	89.140000
2147.895818	92.990000
2149.541365	86.320000
2151.183205	88.300000
2152.828102	89.520000
2154.469294	85.050000
2156.110162	87.510000
2157.750706	90.200000
2159.389239	90.020000
2161.029137	87.620000
2162.665335	92.160000
2164.302899	82.860000
2165.940140	87.600000
2167.575372	86.520000
2169.210283	86.300000
2170.844872	91.230000
2172.479139	89.960000
2174.109714	85.910000
2175.743339	89.670000
2177.373273	90.050000
2179.004572	88.680000
2180.633867	92.640000
2182.262841	94.370000
2183.891497	89.990000
2185.519833	90.800000
2187.146166	89.030000
2188.772181	87.470000
2190.396195	95.740000
2192.021573	89.470000
2193.644952	88.070000
2195.269694	87.610000
2196.890756	87.400000
2198.511501	88.160000
2200.133611	85.750000
2201.753723	92.240000
2203.371838	86.830000
2204.989638	86.820000
2206.607123	90.660000
2208.224292	89.940000
2209.841146	90.700000
2211.457685	94.440000
2213.072230	90.720000
2214.684783	92.490000
2216.298700	90.280000
2217.910626	87.640000
2219.523915	93.660000
2221.135214	92.100000
2222.744523	87.990000
2224.355196	89.220000
2225.963880	88.830000
2227.572252	89.700000
2229.178636	88.830000
2230.786384	88.450000
2232.392145	86.680000
2233.997595	89.770000
2235.601060	86.310000
2237.205889	85.140000
2238.808733	86.420000
2240.409594	90.010000
2242.011818	80.430000
2243.612059	83.730000
2245.213663	85.130000
2246.811615	80.180000
2248.410929	84.990000
2250.008263	89.770000
2251.605288	82.990000
2253.203676	85.300000
2254.798415	78.460000
2256.391177	82.840000
2257.985302	84.740000
2259.580788	92.220000
2261.172630	88.140000
2262.764165	91.290000
2264.357061	91.700000
2265.944648	89.940000
2267.536932	82.490000
2269.123908	84.720000
2270.713913	90.130000
2272.298613	89.040000
2273.888007	88.280000
2275.472098	84.020000
2277.057551	88.940000
2278.641034	89.410000
2280.227544	92.410000
2281.810420	86.050000
2283.392992	92.370000
2284.975261	88.780000
2286.553901	91.500000
2288.135564	87.610000
2289.713599	82.980000
2291.294657	91.630000
2292.872089	89.385000
2294.447556	87.140000
2296.026046	84.370000
2297.600912	90.630000
2299.175477	82.030000
2300.749742	88.620000
2302.323706	86.530000
2303.897370	84.460000
2305.470733	85.560000
2307.040478	83.810000
2308.609924	82.130000
2310.182389	82.770000
2311.749578	84.110000
2313.319786	78.010000
2314.886379	85.060000
2316.454332	86.190000
2318.020330	84.450000
2319.586029	82.170000
2321.151432	84.500000
2322.714881	87.580000
2324.279688	84.990000
2325.840888	95.670000
2327.405102	98.530000
2328.964055	90.060000
2330.526021	101.130000
2332.086037	86.740000
2333.645757	83.000000
2335.203528	88.770000
2336.761005	87.930000
2338.318186	87.670000
2339.873421	85.790000
2341.428361	84.060000
2342.983008	85.100000
2344.537361	83.630000
2346.091420	84.650000
2347.645185	85.480000
2349.197007	83.180000
2350.746885	86.280000
2352.299771	87.170000
2353.847415	85.610000
2355.398066	88.280000
2356.945127	89.310000
2358.493545	86.030000
2360.041671	88.370000
2361.586210	82.060000
2363.132106	92.590000
2364.676063	85.750000
2366.221378	89.610000
2367.763108	89.750000
2369.306195	85.500000
2370.847347	87.140000
2372.388209	86.850000
2373.928782	86.410000
2375.469066	82.650000
2377.009061	88.080000
2378.545477	86.400000
2380.084895	84.420000
2381.620736	89.160000
2383.157933	85.800000
2384.691555	82.630000
2386.228178	85.100000
2387.762869	84.350000
2389.295631	86.130000
2390.828107	83.880000
2392.358654	85.390000
2393.892199	82.830000
2395.420533	83.240000
2396.950223	80.100000
2398.479628	87.390000
2400.008747	85.650000
2401.537582	83.350000
2403.061211	84.030000
2404.589477	86.340000
2406.112539	86.260000
2407.640235	89.080000
2409.161092	87.890000
2410.686582	84.800000
2412.208511	82.770000
2413.731796	85.920000
2415.253160	85.320000
2416.772604	89.570000
2418.293403	88.350000
2419.812283	91.790000
2421.330881	87.830000
2422.847562	87.570000
2424.365597	89.540000
2425.883351	93.170000
2427.397554	90.540000
2428.911476	88.010000
2430.425118	94.650000
2431.940115	90.490000
2433.451563	93.830000
2434.964366	97.720000
2436.475256	97.860000
2437.985866	99.560000
2439.494565	101.950000
2441.006251	101.840000
2442.514392	107.270000
2444.022256	109.510000
2445.529842	108.270000
2447.033887	106.520000
2448.540918	107.680000
2450.046040	111.930000
2451.550885	108.290000
2453.053823	112.740000
2454.556484	111.360000
2456.058869	111.330000
2457.559349	113.130000
2459.061182	113.150000
2460.561111	109.170000
2462.060764	111.520000
2463.560141	112.240000
2465.057616	113.260000
2466.553190	109.480000
2468.051743	107.760000
2469.546767	107.390000
2471.043145	103.520000
2472.535996	103.450000
2474.030199	105.070000
2475.524129	100.950000
2477.014536	98.090000
2478.507919	95.830000
2479.999405	93.900000
2481.488994	92.210000
2482.978311	87.310000
2484.465733	86.810000
2485.956130	90.730000
2487.443008	95.010000
2488.931238	92.970000
2490.415952	93.950000
2491.900395	94.300000
2493.386190	87.380000
2494.870092	95.320000
2496.355346	93.790000
2497.835466	92.660000
2499.318558	89.780000
2500.799760	85.210000
2502.280693	83.950000
2503.759737	89.330000
2505.238512	90.130000
2506.717019	88.990000
2508.195258	90.790000
2509.673228	90.690000
2511.147694	86.080000
2512.625128	88.580000
2514.099059	86.620000
2515.574341	94.730000
2517.049355	82.170000
2518.520868	83.990000
2519.993732	91.800000
2521.464712	89.710000
2522.937043	84.080000
2524.404261	90.040000
2525.874444	86.310000
2527.342747	85.780000
2528.810785	83.090000
2530.278558	85.990000
2531.746066	84.840000
2533.213309	85.990000
2534.677060	83.250000
2536.142161	83.160000
2537.605385	87.700000
2539.069959	84.850000
2540.531043	88.840000
2541.993477	86.870000
2543.455648	84.710000
2544.914333	84.440000
2546.377590	86.910000
2547.835750	83.880000
2549.295259	85.130000
2550.749675	88.000000
2552.208660	82.410000
2553.665774	82.370000
2555.121017	83.910000
2556.575999	83.150000
2558.029111	86.760000
2559.483572	82.330000
2560.936164	91.370000
2562.388496	86.350000
2563.838960	88.760000
2565.292380	92.390000
2566.740718	87.620000
2568.192012	83.090000
2569.641439	91.430000
2571.087395	93.350000
2572.536305	88.180000
2573.981744	87.180000
2575.428532	81.840000
2576.873456	86.750000
2578.318123	91.400000
2579.764137	87.620000
2581.206684	89.130000
2582.650579	91.600000
2584.091009	85.750000
2585.532787	90.830000
2586.972704	99.490000
2588.413969	97.190000
2589.851773	90.310000
2591.292526	97.130000
2592.728216	93.360000
2594.166856	91.380000
2595.603639	88.770000
2597.038565	98.370000
2598.476440	89.190000
2599.909256	97.460000
2601.343420	94.420000
2602.775730	95.060000
2604.209386	96.930000
2605.641189	94.680000
2607.072739	92.250000
2608.504035	87.660000
2609.933479	94.300000
2611.362672	91.930000
2612.790013	92.600000
2614.218701	97.330000
2615.647136	93.650000
2617.072124	100.090000
2618.498459	96.310000
2619.922945	102.030000
2621.348777	96.720000
2622.771165	101.970000
2624.194899	97.510000
2625.616786	106.460000
2627.038424	103.500000
2628.458216	111.300000
2629.879354	107.630000
2631.300242	109.760000
2632.717692	117.290000
2634.138081	115.860000
2635.555033	116.350000
2636.971737	123.610000
2638.388192	125.710000
2639.804399	125.380000
2641.220357	128.000000
2642.634475	134.270000
2644.048346	134.060000
2645.460377	145.380000
2646.873753	144.840000
2648.283699	148.360000
2649.696580	149.680000
2651.106034	160.050000
2652.515241	165.550000
2653.922612	170.530000
2655.332917	184.780000
2656.741386	188.870000
2658.148020	195.230000
2659.554409	203.280000
2660.958964	222.310000
2662.364863	240.850000
2663.768929	254.810000
2665.172751	266.920000
2666.576328	284.250000
2667.978073	313.990000
2669.381162	342.250000
2670.780834	363.940000
2672.181848	392.050000
2673.579447	420.910000
2674.979976	444.240000
2676.377090	475.210000
2677.775547	493.750000
2679.172176	518.370000
2680.568563	534.660000
2681.964709	557.500000
2683.359028	552.470000
2684.754690	560.920000
2686.146942	563.050000
2687.540538	554.450000
2688.932309	542.900000
2690.325422	526.750000
2691.716712	501.200000
2693.106179	487.570000
2694.495406	452.390000
2695.884394	431.520000
2697.274724	405.160000
2698.660069	381.650000
2700.048338	350.190000
2701.434787	329.520000
2702.820997	310.380000
2704.206969	283.670000
2705.589541	270.640000
2706.973456	250.990000
2708.357133	234.440000
2709.740572	220.060000
2711.120615	205.590000
2712.502000	190.160000
2713.881569	186.560000
2715.262480	175.650000
2716.641576	171.570000
2718.018857	164.070000
2719.397480	152.660000
2720.774290	145.890000
2722.150864	134.090000
2723.527202	134.620000
2724.901728	136.980000
2726.277595	126.750000
2727.650075	123.350000
2729.025472	122.770000
2730.395907	115.470000
2731.767684	119.850000
2733.139226	116.790000
2734.508960	113.210000
2735.880035	106.120000
2737.249302	108.680000
2738.618335	105.010000
2739.985561	103.510000
2741.352555	99.540000
2742.719316	94.730000
2744.085844	95.260000
2745.450567	96.830000
2746.815059	94.650000
2748.179318	93.160000
2749.543345	94.290000
2750.907141	90.770000
2752.267563	91.960000
2753.630896	88.330000
2754.989286	87.130000
2756.350586	88.910000
2757.708515	85.190000
2759.069354	84.600000
2760.428392	83.880000
2761.784062	81.930000
2763.142640	79.500000
2764.497852	76.470000
2765.852834	78.230000
2767.206019	84.380000
2768.562111	81.040000
2769.914839	79.820000
2771.267338	80.220000
2772.619609	76.250000
2773.973219	79.070000
2775.323467	77.140000
2776.671922	74.280000
2778.023281	75.770000
2779.371281	78.300000
2780.720620	69.450000
2782.068166	74.320000
2783.415485	77.950000
2784.762578	78.120000
2786.107880	73.120000
2787.452956	71.880000
2788.797806	68.660000
2790.142429	69.150000
2791.483701	70.630000
2792.826311	72.340000
2794.168695	75.040000
2795.510855	75.020000
2796.849665	73.670000
2798.191374	77.790000
2799.529736	73.460000
2800.869435	74.120000
2802.207348	70.780000
2803.543477	73.570000
2804.879382	76.350000
2806.216625	74.570000
2807.552084	73.450000
2808.887320	60.460000
2810.220773	72.160000
2811.555564	67.990000
2812.887013	75.760000
2814.221358	70.130000
2815.550805	75.390000
2816.881589	65.330000
2818.212151	70.470000
2819.540934	71.310000
2820.871053	69.660000
2822.199394	66.580000
2823.527514	71.180000
2824.853857	80.750000
2826.181535	74.360000
2827.505881	70.310000
2828.831562	74.770000
2830.155468	71.870000
2831.479155	75.500000
2832.804177	74.330000
2834.125869	72.440000
2835.447343	70.270000
2836.768598	76.750000
2838.089634	66.630000
2839.408898	76.140000
2840.729497	69.560000
2842.048324	72.510000
2843.366933	72.890000
2844.683772	68.610000
2846.000393	67.510000
2847.316796	64.670000
2848.631431	77.720000
2849.947400	70.400000
2851.260049	73.810000
2852.574034	68.500000
2853.887801	70.850000
2855.201353	65.310000
2856.513137	72.050000
2857.823156	65.150000
2859.134508	63.310000
2860.442546	66.400000
2861.751919	69.340000
2863.061076	70.740000
2864.370018	66.590000
2865.677197	66.170000
2866.982612	73.050000
2868.289362	65.020000
2869.594349	67.530000
2870.899123	72.450000
2872.202135	69.290000
2873.508029	67.860000
2874.809067	69.500000
2876.111440	72.270000
2877.412053	66.410000
2878.714000	68.660000
2880.015734	68.580000
2881.314163	64.290000
2882.613927	64.870000
2883.911932	63.150000
2885.209726	67.990000
2886.505764	69.870000
2887.803135	68.640000
2889.098750	67.420000
2890.394154	63.910000
2891.689348	64.180000
2892.981243	62.170000
2894.276015	63.540000
2895.567490	63.630000
2896.860298	63.820000
2898.152896	61.800000
2899.442200	65.550000
2900.732836	58.650000
2902.021721	70.080000
2903.311939	68.550000
2904.598865	65.270000
2905.887123	60.590000
2907.173631	63.590000
2908.459932	58.450000
2909.746024	64.770000
2911.030368	64.310000
2912.317584	61.980000
2913.599972	62.060000
2914.883693	59.430000
2916.165668	61.210000
2917.447436	61.300000
2918.727458	60.200000
2920.010350	56.790000
2921.291497	60.470000
2922.569362	64.040000
2923.850096	63.670000
2925.127549	61.220000
2926.404797	62.100000
2927.680302	63.890000
2928.958675	63.870000
2930.232233	57.110000
2931.508659	62.040000
2932.783344	59.890000
2934.056289	59.790000
2935.330564	59.070000
2936.603100	58.020000
2937.875432	62.810000
2939.144490	62.080000
2940.416414	56.060000
2941.686600	61.310000
2942.956583	62.290000
2944.226362	60.530000
2945.494404	57.490000
2946.760711	63.330000
2948.026815	63.210000
2949.294249	54.650000
2950.559949	64.330000
2951.825446	57.800000
2953.090741	61.300000
2954.352771	58.760000
2955.616132	59.890000
2956.879290	55.630000
2958.140717	59.780000
2959.403473	60.070000
2960.664498	61.130000
2961.923791	60.200000
2963.182885	53.920000
2964.441778	57.370000
2965.700471	55.370000
2966.958964	55.230000
2968.215728	55.770000
2969.472292	55.300000
2970.727129	53.620000
2971.983295	57.310000
2973.236205	54.110000
2974.490445	59.280000
2975.744486	58.070000
2976.996801	52.280000
2978.248918	50.410000
2979.499310	54.930000
2980.752557	53.580000
2982.001027	59.730000
2983.252351	55.960000
2984.500427	58.790000
2985.748305	58.590000
2986.995986	57.360000
2988.243471	56.290000
2989.489234	55.740000
2990.734800	59.480000
2991.981694	59.480000
2993.225344	52.000000
2994.470322	59.910000
2995.712057	56.110000
2996.956643	55.830000
2998.199509	62.620000
2999.439135	54.580000
3000.681612	59.620000
3001.920848	56.660000
3003.161412	56.710000
3004.400259	60.170000
3005.638912	58.860000
3006.875849	62.480000
3008.114113	58.010000
3009.350663	56.940000
3010.587018	56.000000
3011.823180	58.930000
3013.057629	56.130000
3014.291884	56.760000
3015.525946	58.190000
3016.758296	51.390000
3017.988934	57.130000
3019.222418	50.930000
3020.454190	55.030000
3021.684252	55.630000
3022.914122	57.420000
3024.142282	56.630000
3025.371768	60.200000
3026.599546	55.030000
3027.827132	56.260000
3029.056044	57.420000
3030.280214	56.360000
3031.507227	58.090000
3032.731016	56.250000
3033.956132	54.450000
3035.179541	58.010000
3036.402761	57.380000
3037.624275	58.130000
3038.848630	57.700000
3040.068250	60.000000
3041.289195	52.700000
3042.509952	57.610000
3043.729005	56.220000
3044.949384	52.080000
3046.166546	54.300000
3047.385033	59.810000
3048.601819	59.340000
3049.818416	50.180000
3051.034826	52.880000
3052.248022	58.700000
3053.464056	52.490000
3054.676878	53.620000
3055.892537	53.280000
3057.103473	50.380000
3058.315734	48.170000
3059.527809	52.460000
3060.739697	48.650000
3061.949887	55.930000
3063.159891	53.270000
3064.369710	52.850000
3065.577832	54.150000
3066.785768	55.270000
3067.992010	50.330000
3069.199575	55.060000
3070.405447	53.635000
3071.611133	52.210000
3072.816634	56.130000
3074.020442	57.440000
3075.225574	57.200000
3076.429014	53.730000
3077.630761	58.090000
3078.832325	50.610000
3080.033705	51.810000
3081.234901	58.030000
3082.434407	49.860000
3083.633729	50.580000
3084.834375	55.570000
3086.033332	48.590000
3087.229093	52.790000
3088.427684	57.790000
3089.623081	44.610000
3090.819801	48.230000
3092.013329	49.880000
3093.209686	54.790000
3094.404355	53.720000
3095.595834	43.460000
3096.791644	50.990000
3097.982761	50.510000
3099.175200	50.930000
3100.364452	53.610000
3101.556530	49.950000
3102.746923	50.290000
3103.934131	51.630000
3105.122662	48.100000
3106.312515	51.360000
3107.499183	51.650000
3108.685672	44.210000
3109.871981	48.460000
3111.059612	48.680000
3112.244062	38.820000
3113.426831	45.210000
3114.612424	50.730000
3115.796336	48.480000
3116.978570	46.790000
3118.160625	47.250000
3119.342503	49.590000
3120.524202	47.370000
3121.704223	43.650000
3122.882568	45.600000
3124.063734	43.780000
3125.241724	54.870000
3126.419537	43.250000
3127.597173	47.860000
3128.773134	51.790000
3129.948918	48.020000
3131.126024	47.520000
3132.301455	49.650000
3133.475213	48.210000
3134.647299	46.210000
3135.820705	47.510000
3136.993936	45.490000
3138.165494	48.340000
3139.338374	46.210000
3140.508086	46.260000
3141.679119	44.940000
3142.848481	40.450000
3144.016174	44.460000
3145.186682	47.000000
3146.352531	45.820000
3147.522690	47.970000
3148.688191	48.190000
3149.853519	49.900000
3151.018673	45.840000
3152.183653	44.920000
3153.349954	48.600000
3154.511601	40.710000
3155.674569	43.870000
3156.837363	45.530000
3157.999985	45.600000
3159.160942	49.400000
3160.321726	44.650000
3161.482338	43.230000
3162.641287	49.180000
3163.800063	51.640000
3164.958668	47.700000
3166.117101	41.560000
3167.275362	47.760000
3168.431961	50.410000
3169.586899	48.140000
3170.743156	43.910000
3171.897753	44.590000
3173.052178	42.520000
3174.204944	42.890000
3175.357540	41.870000
3176.509965	46.590000
3177.662221	45.560000
3178.814307	46.140000
3179.963246	47.120000
3181.114992	47.470000
3182.265080	46.820000
3183.413512	44.130000
3184.561775	46.320000
3185.709868	46.760000
3186.857793	48.260000
3188.004063	45.920000
3189.150164	48.040000
3190.294610	47.250000
3191.438889	44.650000
3192.583000	47.440000
3193.728429	47.360000
3194.870719	48.640000
3196.012841	41.440000
3197.154796	45.640000
3198.296585	48.710000
3199.438206	43.340000
3200.576691	48.070000
3201.716494	44.270000
3202.857615	49.000000
3203.995601	44.490000
3205.131938	42.060000
3206.268109	42.210000
3207.405598	51.350000
3208.541438	46.070000
3209.678594	48.020000
3210.811138	43.960000
3211.947964	47.220000
3213.080178	41.440000
3214.213710	47.130000
3215.347076	45.110000
3216.477315	44.320000
3217.610352	47.660000
3218.740263	41.380000
3219.871491	46.430000
3220.999593	45.310000
3222.130492	49.420000
3223.259748	48.640000
3224.387359	45.900000
3225.511849	43.800000
3226.640614	50.500000
3227.766257	48.570000
3228.891737	53.900000
3230.015576	49.780000
3231.142209	50.330000
3232.264245	51.250000
3233.387597	53.810000
3234.510787	56.540000
3235.633815	55.110000
3236.755203	59.720000
3237.876430	63.880000
3238.996018	54.980000
3240.115445	59.150000
3241.233234	63.770000
3242.353816	63.410000
3243.471283	64.700000
3244.588591	68.630000
3245.705737	64.900000
3246.821248	58.920000
3247.938074	64.240000
3249.051789	63.670000
3250.168295	52.630000
3251.283165	59.340000
3252.394927	57.640000
3253.506530	52.020000
3254.619447	49.090000
3255.732206	44.780000
3256.841858	44.740000
3257.952825	45.210000
3259.063632	46.900000
3260.172809	45.320000
3261.280354	46.300000
3262.389214	45.040000
3263.497915	44.960000
3264.603514	43.370000
3265.710428	48.320000
3266.815712	39.550000
3267.922310	45.420000
3269.025808	44.220000
3270.130620	45.480000
3271.235275	40.960000
3272.336831	46.060000
3273.438232	41.330000
3274.540946	38.760000
3275.643503	37.560000
3276.742965	46.260000
3277.845209	41.050000
3278.944359	41.400000
3280.041883	43.060000
3281.139252	45.550000
3282.239404	37.500000
3283.336462	44.670000
3284.433365	40.660000
3285.530114	45.520000
3286.622303	47.320000
3287.718741	37.850000
3288.813558	38.190000
3289.908219	36.270000
3291.001259	39.850000
3292.094145	41.200000
3293.185410	43.460000
3294.277988	37.340000
3295.368945	42.340000
3296.458283	33.130000
3297.547468	36.350000
3298.637966	35.790000
3299.725379	37.680000
3300.812640	38.780000
3301.901213	42.410000
3302.989633	40.830000
3304.073506	38.920000
3305.161621	38.010000
3306.246655	36.680000
3307.330072	40.540000
3308.414802	39.490000
3309.497917	42.150000
3310.582343	43.230000
3311.663691	41.700000
3312.746351	39.110000
3313.827397	37.720000
3314.908292	36.700000
3315.987574	39.980000
3317.066705	38.370000
3318.147147	36.520000
3319.224516	43.820000
3320.303196	38.540000
3321.380264	38.570000
3322.457182	39.620000
3323.532489	38.290000
3324.607647	33.240000
3325.684116	30.380000
3326.757515	44.220000
3327.830765	35.060000
3328.905326	37.050000
3329.978277	37.550000
3331.049621	35.490000
3332.122275	34.660000
3333.191862	31.280000
3334.262760	34.690000
3335.332051	37.940000
3336.402653	35.520000
3337.471648	38.120000
3338.539037	34.140000
3339.604821	37.200000
3340.674831	35.530000
3341.741778	31.390000
3342.805663	39.500000
3343.872316	36.280000
3344.937364	40.270000
3346.000810	37.190000
3347.064108	39.290000
3348.127261	38.800000
3349.190267	37.880000
3350.253126	30.980000
3351.314384	37.040000
3352.372585	39.620000
3353.435007	38.150000
3354.494372	39.880000
3355.553592	38.850000
3356.614122	35.600000
3357.670142	37.220000
3358.728927	41.730000
3359.783204	36.480000
3360.840244	34.120000
3361.895687	33.480000
3362.952438	36.210000
3364.007592	36.770000
3365.061148	39.460000
3366.113107	35.760000
3367.167828	35.380000
3368.219500	40.720000
3369.271029	34.340000
3370.323867	40.310000
3371.373657	31.980000
3372.424755	37.610000
3373.472808	35.420000
3374.523621	35.800000
3375.571388	32.470000
3376.619013	34.890000
3377.666495	37.050000
3378.712385	34.370000
3379.759583	33.080000
3380.803739	36.340000
3381.850653	33.130000
3382.895975	34.780000
3383.938257	40.170000
3384.980397	33.410000
3386.023845	34.880000
3387.067153	32.750000
3388.108870	38.950000
3389.150446	38.250000
3390.191882	37.200000
3391.231728	36.940000
3392.269987	38.590000
3393.309553	33.330000
3394.348978	35.470000
3395.386817	40.710000
3396.423068	38.320000
3397.459179	38.740000
3398.496598	36.330000
3399.530984	33.970000
3400.566677	33.300000
3401.602231	37.560000
3402.634754	31.140000
3403.670030	31.330000
3404.702275	31.430000
3405.734382	31.500000
3406.764905	32.400000
3407.796736	34.860000
3408.828427	38.710000
3409.857092	31.900000
3410.885618	37.170000
3411.915452	35.590000
3412.945147	35.600000
3413.971817	28.670000
3414.999794	33.770000
3416.024746	29.750000
3417.052448	33.280000
3418.077127	35.580000
3419.103112	38.460000
3420.127517	33.170000
3421.151786	32.650000
3422.174476	34.050000
3423.197030	36.710000
3424.220890	37.650000
3425.241730	36.400000
3426.262435	33.370000
3427.284445	35.640000
3428.303437	35.100000
3429.322294	32.980000
3430.342456	28.970000
3431.359602	34.700000
