-117.897011	3.540000
-115.227411	4.330000
-112.560746	3.600000
-109.894833	-8.390000
-107.231852	1.410000
-104.567442	2.130000
-101.905962	4.460000
-99.243052	3.050000
-96.585250	2.330000
-93.926017	7.190000
-91.267533	4.370000
-88.611974	-0.450000
-85.954986	4.230000
-83.303095	2.010000
-80.649775	2.880000
-77.999375	4.660000
-75.347545	2.930000
-72.700806	-2.530000
-70.052637	3.990000
-67.405212	1.460000
-64.760700	5.180000
-62.114760	3.310000
-59.473901	0.170000
-56.831613	2.780000
-54.192233	4.180000
-51.551425	0.750000
-48.911357	4.800000
-46.276361	6.350000
-43.639936	4.750000
-41.006415	6.640000
-38.371465	2.660000
-35.741580	3.950000
-33.108103	2.300000
-30.479688	11.840000
-27.852006	10.680000
-25.222897	10.980000
-22.598844	15.250000
-19.971202	18.870000
-17.348613	23.380000
-14.726755	31.170000
-12.105629	55.970000
-9.485232	141.370000
-6.867723	491.550000
-4.248786	1692.980000
-1.632735	4454.390000
0.982588	6235.200000
3.597184	4489.490000
6.208897	626.240000
8.822039	66.320000
11.430147	25.650000
14.041837	24.700000
16.648496	16.920000
19.256583	16.030000
21.863946	14.740000
24.466284	9.440000
27.072200	12.780000
29.673094	12.170000
32.275417	10.120000
34.872721	8.310000
37.473601	3.010000
40.069467	9.280000
42.666760	5.660000
45.263334	3.580000
47.854899	6.370000
50.447892	11.780000
53.038024	5.070000
55.629584	4.320000
58.218284	3.070000
60.808411	4.990000
63.393540	2.410000
65.980096	6.440000
68.565937	6.500000
71.148925	5.180000
73.733340	5.020000
76.310625	2.060000
78.891477	1.060000
81.469480	5.860000
84.046773	5.690000
86.625492	1.570000
89.199230	5.900000
91.774394	5.810000
94.346715	2.980000
96.918328	6.800000
99.487102	4.870000
102.057302	7.810000
104.624663	3.950000
107.193451	3.940000
109.759401	4.330000
112.322517	10.270000
114.889189	9.630000
117.446640	9.800000
120.009776	16.530000
122.567953	17.690000
125.129683	34.110000
127.686458	44.150000
130.244658	58.360000
132.797906	90.940000
135.350455	134.560000
137.906555	194.520000
140.457708	249.290000
143.008162	324.370000
145.557920	369.800000
148.104858	407.020000
150.651100	429.030000
153.198768	446.620000
155.745741	441.500000
158.287777	436.310000
160.829120	434.930000
163.369770	436.770000
165.911846	440.920000
168.451111	441.220000
170.987566	437.790000
173.523331	446.310000
176.060521	439.680000
178.597019	425.320000
181.130712	430.310000
183.661602	421.340000
186.191803	416.630000
188.723429	419.330000
191.252254	419.890000
193.778280	421.300000
196.303621	417.450000
198.830386	415.850000
201.354354	426.840000
203.877638	417.950000
206.400237	421.540000
208.920043	423.940000
211.439166	430.860000
213.957606	420.860000
216.477470	430.450000
218.990333	424.850000
221.506727	430.770000
224.022439	439.330000
226.533262	447.100000
229.045509	458.470000
231.554973	460.340000
234.063759	459.990000
236.571867	466.460000
239.081398	460.620000
241.586050	462.110000
244.090025	464.340000
246.595424	459.830000
249.095948	457.930000
251.599995	454.280000
254.097072	456.680000
256.597671	453.460000
259.095499	454.320000
261.592654	443.390000
264.089136	447.000000
266.580756	448.910000
269.075894	445.160000
271.568267	453.030000
274.059969	455.410000
276.548908	451.810000
279.039270	470.140000
281.526871	459.410000
284.011712	473.060000
286.500067	471.210000
288.981483	479.410000
291.466413	482.110000
293.946498	494.300000
296.430095	504.700000
298.908849	524.720000
301.389027	535.350000
303.866452	533.380000
306.343214	524.960000
308.819313	506.670000
311.292663	478.010000
313.765351	478.620000
316.237378	488.030000
318.708744	497.760000
321.177366	499.930000
323.645328	494.450000
326.114713	476.310000
328.579275	456.320000
331.047340	451.890000
333.510586	434.330000
335.973175	439.580000
338.435106	428.410000
340.896381	426.150000
343.354922	425.780000
345.814885	412.550000
348.272115	421.750000
350.728691	409.890000
353.184613	405.430000
355.637806	400.790000
358.092420	393.740000
360.542233	392.180000
362.995543	385.300000
365.444053	381.450000
367.891913	377.500000
370.341194	378.000000
372.785682	372.170000
375.231592	367.650000
377.676853	363.180000
380.119395	360.390000
382.561289	358.690000
385.002535	357.020000
387.441066	348.840000
389.881019	346.800000
392.318258	342.080000
394.752785	347.220000
397.190800	350.380000
399.624038	346.680000
402.058698	344.480000
404.488584	351.990000
406.921956	354.520000
409.350558	341.520000
411.778519	345.010000
414.207900	341.310000
416.632516	338.010000
419.058554	332.210000
421.483951	337.320000
423.908708	327.180000
426.328707	333.480000
428.750127	325.390000
431.168850	319.400000
433.588994	315.580000
436.006443	314.400000
438.425312	312.920000
440.841488	300.230000
443.252917	291.570000
445.667822	288.840000
448.080037	282.240000
450.491618	278.560000
452.902565	265.000000
455.310826	265.620000
457.718454	267.370000
460.125451	258.500000
462.531815	258.480000
464.935497	261.120000
467.338549	260.610000
469.740971	261.690000
472.142764	263.900000
474.541878	261.770000
476.942412	262.150000
479.342317	266.010000
481.737499	271.450000
484.136148	291.480000
486.530077	295.840000
488.923380	304.030000
491.316057	315.980000
493.708109	338.270000
496.101580	361.850000
498.490338	416.100000
500.876430	492.690000
503.263942	617.650000
505.650830	811.700000
508.035055	1115.340000
510.420699	1582.410000
512.803680	2232.840000
515.184001	2912.180000
517.565741	3420.170000
519.944822	3410.530000
522.325322	3057.890000
524.703164	2563.760000
527.078351	2141.440000
529.452920	1786.620000
531.828908	1520.650000
534.202242	1327.540000
536.576994	1176.230000
538.947061	1063.590000
541.316512	957.720000
543.687381	877.840000
546.053570	808.950000
548.421177	765.800000
550.786138	712.420000
553.150486	681.300000
555.514222	645.720000
557.879375	621.420000
560.239855	595.210000
562.601754	583.420000
564.961013	566.460000
567.317633	540.960000
569.677698	521.880000
572.031073	504.210000
574.387892	490.630000
576.742075	479.310000
579.095651	470.510000
581.448618	456.630000
583.798954	447.770000
586.150706	430.620000
588.495782	420.250000
590.846322	408.160000
593.190189	402.160000
595.539516	391.550000
597.884196	389.820000
600.226250	386.480000
602.569722	379.200000
604.910571	372.730000
607.250818	382.000000
609.588444	389.800000
611.929505	406.130000
614.265929	423.060000
616.603769	440.860000
618.938991	428.930000
621.271598	414.600000
623.605621	398.770000
625.937031	392.550000
628.267842	370.290000
630.598055	366.180000
632.927670	354.100000
635.252663	357.460000
637.583097	362.350000
639.908909	355.800000
642.232115	356.150000
644.556736	354.320000
646.878753	341.400000
649.200175	340.360000
651.518994	339.660000
653.839229	332.170000
656.158871	330.430000
658.475912	328.580000
660.792361	331.960000
663.106213	332.800000
665.421479	334.980000
667.734149	336.920000
670.048234	329.780000
672.357719	330.620000
674.668620	324.910000
676.976928	326.080000
679.284648	318.970000
681.593783	316.070000
683.898325	303.170000
686.202280	297.250000
688.505650	298.610000
690.810434	290.620000
693.110632	286.010000
695.412244	278.830000
697.713272	273.200000
700.009717	277.950000
702.307578	269.020000
704.604855	267.990000
706.901549	264.470000
709.193667	265.900000
711.489196	263.550000
713.780152	268.890000
716.072522	268.320000
718.362316	268.860000
720.651531	263.280000
722.940165	268.860000
725.226228	268.450000
727.513704	270.400000
729.798610	258.890000
732.082937	259.900000
734.364696	257.670000
736.647869	257.940000
738.930465	258.200000
741.208506	259.350000
743.487960	254.360000
745.766839	251.920000
748.045142	257.620000
750.318896	257.520000
752.594064	256.710000
754.868658	261.710000
757.140693	252.560000
759.414140	257.700000
761.685030	254.440000
763.953364	249.920000
766.223111	243.820000
768.490304	245.470000
770.756926	252.350000
773.022979	251.540000
775.286479	252.590000
777.551393	253.400000
779.815737	252.710000
782.075552	251.930000
784.336780	249.570000
786.597440	261.510000
788.855553	257.820000
791.111122	253.660000
793.370082	255.600000
795.622543	254.700000
797.880371	253.570000
800.133679	259.140000
802.384448	255.490000
804.636629	253.030000
806.886272	259.100000
809.137326	255.010000
811.383869	251.430000
813.631825	256.500000
815.877245	254.840000
818.124077	250.050000
820.370348	250.470000
822.612115	254.620000
824.857264	245.740000
827.095941	253.490000
829.338001	253.190000
831.575562	253.780000
833.814534	257.970000
836.050980	252.020000
838.288837	255.090000
840.524170	252.250000
842.756978	257.770000
844.991198	248.480000
847.222896	252.430000
849.454039	255.400000
851.684627	250.730000
853.914661	246.100000
856.144140	248.340000
858.369138	245.520000
860.597511	244.240000
862.821405	243.360000
865.046709	241.670000
867.267538	237.500000
869.491739	238.890000
871.711467	244.220000
873.932606	243.070000
876.153194	241.820000
878.371272	239.110000
880.590761	241.920000
882.805783	241.700000
885.020257	232.370000
887.234184	231.890000
889.447563	225.740000
891.660395	228.190000
893.872681	233.210000
896.082464	228.440000
898.291702	227.930000
900.500395	232.930000
902.706589	233.170000
904.914192	235.420000
907.119298	237.770000
909.323860	244.040000
911.525926	245.760000
913.729402	248.970000
915.930384	256.260000
918.130825	264.230000
920.332674	265.470000
922.528131	277.310000
924.726948	298.890000
926.921327	315.670000
929.119062	350.610000
931.312362	380.880000
933.507071	422.540000
935.699294	452.010000
937.890979	496.200000
940.082126	518.520000
942.270790	536.660000
944.458917	531.340000
946.644564	528.420000
948.833563	531.820000
951.018139	532.890000
953.202180	533.150000
955.389571	537.720000
957.568658	539.410000
959.751096	542.120000
961.933000	545.020000
964.112430	554.040000
966.289387	555.250000
968.467751	562.700000
970.647523	556.230000
972.820946	568.820000
974.997715	568.440000
977.170078	566.660000
979.343847	561.250000
981.513213	545.390000
983.685924	533.020000
985.856168	495.600000
988.025884	456.220000
990.195071	423.110000
992.359861	390.360000
994.527992	371.680000
996.691729	348.320000
998.856872	338.870000
1001.019557	330.510000
1003.181715	318.260000
1005.341417	316.280000
1007.500595	306.650000
1009.661179	295.840000
1011.819308	287.070000
1013.976913	277.950000
1016.133995	267.800000
1018.290554	255.930000
1020.442733	255.490000
1022.596318	252.680000
1024.749382	247.330000
1026.899998	242.730000
1029.052019	239.470000
1031.199667	229.920000
1033.350647	232.330000
1035.497256	228.070000
1037.643347	233.050000
1039.788918	221.660000
1041.935895	221.720000
1044.076584	227.270000
1046.220601	218.090000
1048.362178	225.870000
1050.503239	224.840000
1052.645704	224.430000
1054.781890	225.420000
1056.921402	225.600000
1059.056558	222.170000
1061.195039	229.400000
1063.329166	222.440000
1065.462780	223.760000
1067.597799	220.720000
1069.728468	221.620000
1071.860542	224.020000
1073.990187	211.520000
1076.119320	220.050000
1078.247941	218.510000
1080.376051	217.820000
1082.501735	217.480000
1084.626909	218.190000
1086.753487	217.770000
1088.875728	212.750000
1090.999372	214.740000
1093.118683	215.650000
1095.243222	215.570000
1097.361516	213.470000
1099.481215	212.640000
1101.598495	211.250000
1103.715269	207.500000
1105.831536	205.180000
1107.945388	207.580000
1110.060643	204.740000
1112.171576	200.370000
1114.285820	202.300000
1116.395744	198.540000
1118.507072	197.840000
1120.617895	203.600000
1122.724403	191.710000
1124.834219	197.290000
1126.939721	199.840000
1129.046626	202.630000
1131.147316	190.540000
1133.253218	190.550000
1135.354811	199.230000
1137.457807	199.530000
1139.560302	195.160000
1141.656591	191.680000
1143.758086	188.310000
1145.855279	192.010000
1147.951973	190.320000
1150.048169	189.250000
1152.143868	198.980000
1154.239069	197.410000
1156.331873	195.500000
1158.426079	188.570000
1160.514094	201.080000
1162.607307	195.520000
1164.694332	199.690000
1166.784656	195.200000
1168.870693	191.610000
1170.960027	200.530000
1173.043180	194.820000
1175.127736	194.380000
1177.213692	194.770000
1179.295367	193.930000
1181.378444	188.560000
1183.459135	196.110000
1185.539334	193.930000
1187.619042	197.910000
1189.698259	197.780000
1191.775094	196.010000
1193.849548	190.380000
1195.927294	190.260000
1198.000769	191.690000
1200.075645	192.150000
1202.146254	189.030000
1204.218265	187.670000
1206.287899	186.950000
1208.358934	185.200000
1210.429481	188.040000
1212.495767	189.420000
1214.563454	185.990000
1216.628769	183.580000
1218.695484	183.560000
1220.757943	185.030000
1222.823687	183.160000
1224.885178	178.410000
1226.948068	181.620000
1229.008591	185.760000
1231.068630	188.980000
1233.128187	178.630000
1235.185378	186.150000
1237.242088	184.260000
1239.296435	189.530000
1241.354062	187.280000
1243.409327	187.340000
1245.460351	190.390000
1247.512775	187.810000
1249.564719	188.500000
1251.614305	183.800000
1253.663412	185.450000
1255.712041	187.810000
1257.760191	195.030000
1259.807863	188.750000
1261.851304	187.780000
1263.898020	187.140000
1265.942384	188.020000
1267.986270	196.320000
1270.027806	197.750000
1272.066992	195.030000
1274.109450	194.040000
1276.147686	197.730000
1278.187321	194.070000
1280.226481	198.410000
1282.261422	194.960000
1284.297763	186.740000
1286.331758	190.750000
1288.367152	187.160000
1290.398332	185.820000
1292.430911	187.110000
1294.463017	192.500000
1296.492783	191.450000
1298.523947	191.300000
1300.550903	191.870000
1302.579257	192.690000
1304.603407	189.800000
1306.630821	193.470000
1308.654033	190.990000
1310.678643	189.870000
1312.700919	199.480000
1314.724592	192.630000
1316.745932	193.150000
1318.766804	191.940000
1320.787210	190.440000
1322.803421	188.500000
1324.821031	187.450000
1326.836312	189.310000
1328.854851	189.830000
1330.869202	186.640000
1332.881227	193.360000
1334.896509	191.460000
1336.907606	193.260000
1338.920100	193.260000
1340.928411	200.990000
1342.939978	189.130000
1344.945505	187.470000
1346.954288	195.360000
1348.958893	202.940000
1350.966752	198.760000
1352.974149	201.220000
1354.975515	198.870000
1356.978278	206.790000
1358.980580	198.340000
1360.982423	200.900000
1362.983806	198.940000
1364.982876	194.450000
1366.981487	189.970000
1368.979640	198.290000
1370.977335	187.390000
1372.970866	190.910000
1374.965794	191.010000
1376.960265	189.810000
1378.954279	192.110000
1380.945986	186.300000
1382.937237	176.740000
1384.926183	182.330000
1386.916524	178.790000
1388.906410	177.390000
1390.893993	172.150000
1392.881121	173.550000
1394.865949	173.570000
1396.852170	172.260000
1398.836092	176.790000
1400.819561	174.550000
1402.802578	172.820000
1404.783296	175.990000
1406.765410	172.210000
1408.745226	175.930000
1410.724592	168.930000
1412.699818	177.990000
1414.678284	173.560000
1416.654455	172.320000
1418.630178	176.920000
1420.605451	178.120000
1422.578433	176.000000
1424.550967	179.410000
1426.523054	171.730000
1428.494692	167.960000
1430.462202	172.190000
1432.434787	176.310000
1434.399565	173.780000
1436.369416	173.920000
1438.335142	178.660000
1440.302261	180.490000
1442.267097	176.420000
1444.227814	181.980000
1446.193598	178.560000
1448.153427	181.840000
1450.114649	183.200000
1452.077264	180.850000
1454.035764	191.000000
1455.993822	192.680000
1457.951437	186.490000
1459.908611	189.910000
1461.863509	186.190000
1463.819799	178.860000
1465.773815	176.200000
1467.727391	186.290000
1469.678694	188.590000
1471.631389	180.840000
1473.581813	181.840000
1475.531798	181.980000
1477.481343	184.300000
1479.428620	178.050000
1481.373630	174.970000
1483.320031	173.170000
1485.265996	180.680000
1487.211522	177.760000
1489.154784	175.430000
1491.097609	173.740000
1493.038171	171.060000
1494.980124	178.490000
1496.919816	172.080000
1498.859072	176.080000
1500.797893	175.980000
1502.734455	182.430000
1504.672408	182.370000
1506.608103	190.690000
1508.543364	181.430000
1510.476368	185.400000
1512.408940	184.210000
1514.341080	190.700000
1516.272788	187.110000
1518.202242	188.890000
1520.133087	188.860000
1522.063501	189.610000
1523.989841	191.110000
1525.917573	192.210000
1527.843054	186.910000
1529.768106	191.270000
1531.692729	188.580000
1533.616923	197.140000
1535.538870	193.240000
1537.462206	199.000000
1539.383297	206.320000
1541.302143	208.820000
1543.222379	219.610000
1545.140371	218.450000
1547.057937	221.290000
1548.973261	230.310000
1550.889975	242.260000
1552.802634	243.590000
1554.718497	257.100000
1556.632120	264.490000
1558.543506	280.430000
1560.456280	298.260000
1562.365005	308.680000
1564.275120	351.160000
1566.184811	373.040000
1568.094078	414.770000
1570.001112	479.140000
1571.905913	547.040000
1573.812103	647.470000
1575.716061	749.190000
1577.619599	852.710000
1579.522715	929.120000
1581.423603	965.560000
1583.325878	932.080000
1585.225926	839.630000
1587.127361	728.150000
1589.024763	603.590000
1590.921746	517.780000
1592.818311	444.050000
1594.716264	401.860000
1596.608382	355.410000
1598.503693	326.790000
1600.398587	311.960000
1602.291259	289.300000
1604.183515	278.770000
1606.073551	265.950000
1607.963171	256.800000
1609.852375	250.090000
1611.741165	243.820000
1613.627738	237.880000
1615.515697	232.580000
1617.399640	231.510000
1619.284971	226.730000
1621.169887	222.190000
1623.052591	224.510000
1624.936680	213.610000
1626.816759	206.130000
1628.698224	197.010000
1630.577479	189.410000
1632.458120	190.790000
1634.332957	188.180000
1636.212776	187.970000
1638.088589	183.530000
1639.963992	183.980000
1641.840782	181.840000
1643.711774	176.970000
1645.585948	179.020000
1647.456124	182.250000
1649.329480	176.260000
1651.200633	176.840000
1653.069584	180.690000
1654.939921	179.320000
1656.806264	170.530000
1658.673993	164.390000
1660.539524	165.850000
1662.406439	159.030000
1664.269366	163.360000
1666.133678	164.680000
1667.995794	162.260000
1669.857506	158.860000
1671.720602	159.200000
1673.581504	160.560000
1675.440212	152.710000
1677.298517	156.020000
1679.158207	156.720000
1681.012130	148.380000
1682.869225	154.390000
1684.725918	155.580000
1686.578635	147.340000
1688.434523	150.630000
1690.286436	149.130000
1692.137949	157.520000
1693.989061	149.960000
1695.839773	153.640000
1697.690084	154.710000
1699.538211	148.600000
1701.387721	150.850000
1703.231483	146.500000
1705.080194	146.710000
1706.923160	150.810000
1708.769291	147.150000
1710.611461	148.420000
1712.456795	148.940000
1714.296389	146.480000
1716.137367	143.550000
1717.979728	143.160000
1719.818133	141.460000
1721.657921	148.010000
1723.495534	146.310000
1725.332751	141.380000
1727.167795	138.400000
1729.004222	141.300000
1730.838477	135.470000
1732.672337	145.560000
1734.505804	146.830000
1736.335324	143.730000
1738.168003	141.590000
1739.996738	142.920000
1741.828631	139.530000
1743.656581	142.910000
1745.484139	138.290000
1747.311305	143.140000
1749.138080	143.150000
1750.964464	141.570000
1752.786911	142.130000
1754.612512	140.910000
1756.434179	147.890000
1758.257228	141.680000
1760.078116	142.320000
1761.898614	143.080000
1763.720494	134.350000
1765.536674	135.480000
1767.356006	142.690000
1769.171411	141.950000
1770.989966	137.590000
1772.804596	139.780000
1774.618840	139.590000
1776.432696	140.060000
1778.246166	137.050000
1780.057483	140.890000
1781.870181	141.040000
1783.682492	139.100000
1785.490886	133.830000
1787.300661	136.910000
1789.106520	140.860000
1790.915526	137.180000
1792.720617	132.830000
1794.527090	137.600000
1796.333179	132.720000
1798.135358	132.730000
1799.940680	129.010000
1801.742094	133.950000
1803.544888	129.710000
1805.343776	133.220000
1807.144045	134.370000
1808.943932	133.980000
1810.741678	130.930000
1812.539043	132.050000
1814.336027	132.900000
1816.132631	135.290000
1817.927096	132.530000
1819.722940	137.400000
1821.513130	135.940000
1823.308216	142.650000
1825.097649	139.760000
1826.890219	143.330000
1828.680654	136.280000
1830.468955	141.290000
1832.260391	140.960000
1834.046181	142.740000
1835.833351	136.600000
1837.618389	140.920000
1839.406561	137.090000
1841.190847	139.750000
1842.973004	140.240000
1844.756539	138.750000
1846.537946	141.100000
1848.320732	143.470000
1850.099638	141.690000
1851.879922	144.700000
1853.658080	140.820000
1855.437617	137.060000
1857.215029	136.540000
1858.990317	140.120000
1860.766984	144.770000
1862.541527	140.880000
1864.317449	144.140000
1866.087751	144.570000
1867.861179	143.250000
1869.632488	142.930000
1871.403427	140.090000
1873.175742	142.300000
1874.942445	145.430000
1876.712272	134.800000
1878.478236	134.810000
1880.247324	136.770000
1882.012550	136.400000
1883.777407	141.320000
1885.543642	129.990000
1887.306018	136.150000
1889.068027	139.900000
1890.829668	136.300000
1892.590943	133.730000
1894.351850	134.750000
1896.112391	127.080000
1897.870822	129.860000
1899.628888	127.430000
1901.384845	128.620000
1903.142180	133.120000
1904.899148	130.720000
1906.654011	134.210000
1908.406768	129.170000
1910.159162	121.300000
1911.912931	135.270000
1913.664597	124.060000
1915.414161	133.270000
1917.165101	127.630000
1918.915677	130.800000
1920.662414	126.500000
1922.410528	128.150000
1924.156542	131.840000
1925.903932	125.410000
1927.649223	126.960000
1929.392417	129.650000
1931.136987	128.340000
1932.879460	127.810000
1934.621573	129.420000
1936.363326	134.150000
1938.104720	136.460000
1939.844020	135.420000
1941.582961	131.880000
1943.321543	133.510000
1945.058033	134.730000
1946.794166	133.685000
1948.531673	132.640000
1950.265358	131.920000
1952.000418	124.610000
1953.733390	127.810000
1955.466005	124.920000
1957.198263	127.540000
1958.930165	121.010000
1960.659981	130.200000
1962.387713	129.260000
1964.116818	129.750000
1965.845569	129.410000
1967.572236	125.550000
1969.298549	125.470000
1971.026235	129.130000
1972.748385	120.910000
1974.473636	124.310000
1976.195081	129.110000
1977.919625	133.960000
1979.642090	126.910000
1981.360751	125.690000
1983.082511	127.970000
1984.800469	137.310000
1986.519800	130.250000
1988.235332	137.770000
1989.955685	131.440000
1991.672238	133.370000
1993.384996	133.860000
1995.100849	134.290000
1996.814629	134.020000
1998.528060	134.480000
2000.239420	135.000000
2001.952153	134.480000
2003.661094	135.950000
2005.373129	135.070000
2007.079654	132.180000
2008.789272	131.060000
2010.496822	123.740000
2012.204025	139.720000
2013.909162	132.320000
2015.613952	134.650000
2017.320114	126.940000
2019.022494	136.040000
2020.726246	134.430000
2022.427934	132.340000
2024.129278	131.380000
2025.830276	131.040000
2027.529214	133.270000
2029.229522	133.880000
2030.926056	122.630000
2032.623961	130.310000
2034.319807	130.050000
2036.018739	128.720000
2037.712185	128.790000
2039.407003	129.620000
2041.101477	131.030000
2042.792183	122.230000
2044.485973	124.740000
2046.175996	125.710000
2047.867390	123.810000
2049.556731	122.020000
2051.247442	118.720000
2052.934391	123.250000
2054.620999	126.100000
2056.308978	128.400000
2057.993197	128.660000
2059.678786	123.880000
2061.364036	124.060000
2063.047238	128.210000
2064.731809	124.690000
2066.410918	130.240000
2068.094812	125.750000
2069.773246	126.640000
2071.454756	117.350000
2073.132516	123.810000
2074.809938	127.320000
2076.488731	124.630000
2078.165480	124.210000
2079.840188	122.600000
2081.516265	122.120000
2083.190302	119.760000
2084.864003	126.180000
2086.537369	125.800000
2088.208697	129.930000
2089.879690	118.780000
2091.550349	119.880000
2093.220673	123.020000
2094.890664	122.750000
2096.558619	128.560000
2098.226241	124.160000
2099.891829	120.110000
2101.558785	125.870000
2103.223707	119.360000
2104.888298	119.120000
2106.550857	121.290000
2108.214784	115.610000
2109.876681	115.160000
2111.538246	120.020000
2113.199480	121.080000
2114.858686	119.760000
2116.517562	124.240000
2118.176107	120.210000
2119.834323	123.930000
2121.488815	122.560000
2123.146372	119.440000
2124.803600	120.590000
2126.457106	122.080000
2128.111980	125.540000
2129.763136	118.730000
2131.417353	119.550000
2133.067854	119.560000
2134.719721	117.200000
2136.366180	120.660000
2138.017394	115.530000
2139.664894	121.840000
2141.313761	124.690000
2142.960610	115.060000
2144.607132	124.390000
2146.253329	113.140000
2147.895818	115.690000
2149.541365	118.870000
2151.183205	125.960000
2152.828102	125.040000
2154.469294	117.390000
2156.110162	131.530000
2157.750706	121.960000
2159.389239	120.210000
2161.029137	118.780000
2162.665335	126.340000
2164.302899	122.200000
2165.940140	125.060000
2167.575372	120.610000
2169.210283	127.800000
2170.844872	122.110000
2172.479139	127.670000
2174.109714	121.510000
2175.743339	125.420000
2177.373273	119.930000
2179.004572	124.310000
2180.633867	120.230000
2182.262841	120.390000
2183.891497	124.330000
2185.519833	124.620000
2187.146166	120.540000
2188.772181	127.350000
2190.396195	122.360000
2192.021573	126.270000
2193.644952	124.860000
2195.269694	118.240000
2196.890756	120.410000
2198.511501	124.940000
2200.133611	118.390000
2201.753723	126.280000
2203.371838	120.510000
2204.989638	120.980000
2206.607123	125.170000
2208.224292	121.220000
2209.841146	116.590000
2211.457685	121.870000
2213.072230	115.880000
2214.684783	119.680000
2216.298700	124.330000
2217.910626	125.960000
2219.523915	120.620000
2221.135214	120.170000
2222.744523	121.650000
2224.355196	121.280000
2225.963880	117.920000
2227.572252	120.350000
2229.178636	116.270000
2230.786384	112.600000
2232.392145	112.700000
2233.997595	109.740000
2235.601060	112.250000
2237.205889	111.910000
2238.808733	108.610000
2240.409594	118.950000
2242.011818	107.990000
2243.612059	116.150000
2245.213663	110.350000
2246.811615	113.900000
2248.410929	118.620000
2250.008263	115.130000
2251.605288	113.920000
2253.203676	112.780000
2254.798415	118.960000
2256.391177	119.320000
2257.985302	118.550000
2259.580788	120.780000
2261.172630	120.030000
2262.764165	120.480000
2264.357061	120.410000
2265.944648	120.600000
2267.536932	121.290000
2269.123908	120.090000
2270.713913	123.510000
2272.298613	121.250000
2273.888007	121.630000
2275.472098	122.100000
2277.057551	118.460000
2278.641034	118.880000
2280.227544	116.200000
2281.810420	111.730000
2283.392992	113.950000
2284.975261	114.920000
2286.553901	110.600000
2288.135564	115.720000
2289.713599	112.330000
2291.294657	116.560000
2292.872089	117.670000
2294.447556	118.780000
2296.026046	109.910000
2297.600912	112.890000
2299.175477	103.510000
2300.749742	106.750000
2302.323706	110.650000
2303.897370	109.000000
2305.470733	111.870000
2307.040478	107.780000
2308.609924	104.900000
2310.182389	111.570000
2311.749578	109.130000
2313.319786	108.550000
2314.886379	110.500000
2316.454332	110.450000
2318.020330	109.310000
2319.586029	111.020000
2321.151432	113.050000
2322.714881	114.970000
2324.279688	108.790000
2325.840888	117.080000
2327.405102	120.610000
2328.964055	120.570000
2330.526021	118.850000
2332.086037	110.580000
2333.645757	106.070000
2335.203528	108.440000
2336.761005	103.100000
2338.318186	107.210000
2339.873421	110.340000
2341.428361	112.910000
2342.983008	109.520000
2344.537361	113.720000
2346.091420	116.330000
2347.645185	110.010000
2349.197007	111.930000
2350.746885	106.300000
2352.299771	108.100000
2353.847415	112.300000
2355.398066	113.300000
2356.945127	107.360000
2358.493545	115.670000
2360.041671	113.670000
2361.586210	112.020000
2363.132106	107.380000
2364.676063	112.130000
2366.221378	107.470000
2367.763108	111.600000
2369.306195	111.130000
2370.847347	111.260000
2372.388209	109.620000
2373.928782	107.660000
2375.469066	102.470000
2377.009061	108.150000
2378.545477	109.060000
2380.084895	104.380000
2381.620736	105.010000
2383.157933	105.250000
2384.691555	107.550000
2386.228178	108.910000
2387.762869	112.510000
2389.295631	102.380000
2390.828107	107.160000
2392.358654	108.010000
2393.892199	109.030000
2395.420533	111.840000
2396.950223	107.230000
2398.479628	109.780000
2400.008747	106.910000
2401.537582	110.180000
2403.061211	107.340000
2404.589477	106.090000
2406.112539	108.440000
2407.640235	112.390000
2409.161092	115.430000
2410.686582	110.390000
2412.208511	111.260000
2413.731796	115.850000
2415.253160	113.720000
2416.772604	111.390000
2418.293403	115.230000
2419.812283	116.960000
2421.330881	111.840000
2422.847562	113.910000
2424.365597	118.890000
2425.883351	117.460000
2427.397554	119.390000
2428.911476	114.720000
2430.425118	119.500000
2431.940115	117.250000
2433.451563	120.690000
2434.964366	121.830000
2436.475256	124.800000
2437.985866	127.640000
2439.494565	129.020000
2441.006251	133.310000
2442.514392	141.220000
2444.022256	134.090000
2445.529842	143.330000
2447.033887	139.800000
2448.540918	143.530000
2450.046040	143.850000
2451.550885	148.300000
2453.053823	142.600000
2454.556484	145.850000
2456.058869	141.300000
2457.559349	137.730000
2459.061182	139.340000
2460.561111	136.540000
2462.060764	137.970000
2463.560141	129.360000
2465.057616	129.760000
2466.553190	133.630000
2468.051743	131.030000
2469.546767	123.070000
2471.043145	123.350000
2472.535996	126.230000
2474.030199	123.290000
2475.524129	126.260000
2477.014536	118.130000
2478.507919	121.660000
2479.999405	115.680000
2481.488994	119.180000
2482.978311	123.180000
2484.465733	110.640000
2485.956130	114.170000
2487.443008	108.960000
2488.931238	110.140000
2490.415952	116.750000
2491.900395	113.390000
2493.386190	116.880000
2494.870092	111.320000
2496.355346	110.980000
2497.835466	107.640000
2499.318558	106.140000
2500.799760	102.990000
2502.280693	107.750000
2503.759737	107.360000
2505.238512	102.580000
2506.717019	104.700000
2508.195258	103.630000
2509.673228	103.700000
2511.147694	106.610000
2512.625128	103.520000
2514.099059	106.790000
2515.574341	100.540000
2517.049355	109.820000
2518.520868	105.350000
2519.993732	104.600000
2521.464712	101.660000
2522.937043	104.640000
2524.404261	100.970000
2525.874444	100.020000
2527.342747	106.630000
2528.810785	106.110000
2530.278558	98.900000
2531.746066	102.660000
2533.213309	105.230000
2534.677060	103.610000
2536.142161	111.220000
2537.605385	107.610000
2539.069959	105.310000
2540.531043	109.350000
2541.993477	105.140000
2543.455648	104.110000
2544.914333	104.870000
2546.377590	110.310000
2547.835750	109.470000
2549.295259	110.780000
2550.749675	107.140000
2552.208660	106.580000
2553.665774	108.240000
2555.121017	109.150000
2556.575999	105.070000
2558.029111	108.420000
2559.483572	105.750000
2560.936164	109.100000
2562.388496	111.340000
2563.838960	108.050000
2565.292380	99.980000
2566.740718	107.850000
2568.192012	112.460000
2569.641439	108.640000
2571.087395	110.540000
2572.536305	112.290000
2573.981744	118.670000
2575.428532	115.900000
2576.873456	114.460000
2578.318123	113.990000
2579.764137	113.140000
2581.206684	115.930000
2582.650579	116.490000
2584.091009	116.210000
2585.532787	114.320000
2586.972704	119.850000
2588.413969	120.070000
2589.851773	116.980000
2591.292526	116.620000
2592.728216	118.330000
2594.166856	117.420000
2595.603639	117.500000
2597.038565	113.980000
2598.476440	118.130000
2599.909256	114.750000
2601.343420	112.720000
2602.775730	116.390000
2604.209386	114.930000
2605.641189	112.750000
2607.072739	117.560000
2608.504035	121.970000
2609.933479	122.260000
2611.362672	119.440000
2612.790013	121.890000
2614.218701	119.500000
2615.647136	125.470000
2617.072124	127.850000
2618.498459	126.040000
2619.922945	131.980000
2621.348777	136.620000
2622.771165	140.210000
2624.194899	137.400000
2625.616786	146.640000
2627.038424	143.600000
2628.458216	145.870000
2629.879354	155.490000
2631.300242	154.450000
2632.717692	155.000000
2634.138081	159.680000
2635.555033	163.000000
2636.971737	169.510000
2638.388192	171.490000
2639.804399	172.820000
2641.220357	182.810000
2642.634475	180.260000
2644.048346	193.340000
2645.460377	198.580000
2646.873753	198.570000
2648.283699	209.040000
2649.696580	218.840000
2651.106034	225.830000
2652.515241	244.770000
2653.922612	247.330000
2655.332917	264.100000
2656.741386	276.400000
2658.148020	290.190000
2659.554409	306.310000
2660.958964	327.950000
2662.364863	347.750000
2663.768929	371.350000
2665.172751	395.010000
2666.576328	420.290000
2667.978073	448.790000
2669.381162	490.670000
2670.780834	532.580000
2672.181848	568.600000
2673.579447	602.050000
2674.979976	639.420000
2676.377090	662.430000
2677.775547	680.630000
2679.172176	702.600000
2680.568563	720.500000
2681.964709	721.560000
2683.359028	716.390000
2684.754690	705.990000
2686.146942	696.870000
2687.540538	673.850000
2688.932309	652.180000
2690.325422	619.690000
2691.716712	584.930000
2693.106179	552.740000
2694.495406	517.780000
2695.884394	487.820000
2697.274724	455.640000
2698.660069	431.240000
2700.048338	396.540000
2701.434787	369.930000
2702.820997	351.510000
2704.206969	329.840000
2705.589541	308.520000
2706.973456	293.470000
2708.357133	276.560000
2709.740572	263.380000
2711.120615	246.870000
2712.502000	232.990000
2713.881569	227.110000
2715.262480	211.230000
2716.641576	207.090000
2718.018857	194.020000
2719.397480	190.910000
2720.774290	186.080000
2722.150864	176.260000
2723.527202	176.180000
2724.901728	166.670000
2726.277595	161.950000
2727.650075	154.060000
2729.025472	151.060000
2730.395907	144.920000
2731.767684	141.710000
2733.139226	141.730000
2734.508960	134.760000
2735.880035	131.310000
2737.249302	132.820000
2738.618335	126.920000
2739.985561	125.260000
2741.352555	126.340000
2742.719316	114.710000
2744.085844	117.350000
2745.450567	120.160000
2746.815059	127.280000
2748.179318	119.090000
2749.543345	122.740000
2750.907141	115.750000
2752.267563	109.920000
2753.630896	113.370000
2754.989286	105.450000
2756.350586	102.470000
2757.708515	103.920000
2759.069354	103.510000
2760.428392	104.150000
2761.784062	102.330000
2763.142640	104.610000
2764.497852	105.260000
2765.852834	102.940000
2767.206019	97.630000
2768.562111	101.440000
2769.914839	101.050000
2771.267338	100.640000
2772.619609	99.810000
2773.973219	101.930000
2775.323467	99.760000
2776.671922	104.850000
2778.023281	100.840000
2779.371281	100.600000
2780.720620	95.850000
2782.068166	100.650000
2783.415485	100.930000
2784.762578	101.580000
2786.107880	102.190000
2787.452956	96.790000
2788.797806	94.320000
2790.142429	97.900000
2791.483701	96.870000
2792.826311	98.200000
2794.168695	91.550000
2795.510855	95.570000
2796.849665	97.320000
2798.191374	99.380000
2799.529736	99.550000
2800.869435	96.190000
2802.207348	94.450000
2803.543477	102.940000
2804.879382	92.360000
2806.216625	104.740000
2807.552084	95.890000
2808.887320	97.300000
2810.220773	93.040000
2811.555564	103.930000
2812.887013	103.330000
2814.221358	104.430000
2815.550805	96.700000
2816.881589	101.180000
2818.212151	96.180000
2819.540934	100.910000
2820.871053	93.980000
2822.199394	100.600000
2823.527514	95.350000
2824.853857	92.940000
2826.181535	93.460000
2827.505881	93.470000
2828.831562	91.780000
2830.155468	99.830000
2831.479155	90.250000
2832.804177	94.210000
2834.125869	87.430000
2835.447343	92.850000
2836.768598	91.550000
2838.089634	87.160000
2839.408898	88.040000
2840.729497	84.960000
2842.048324	84.130000
2843.366933	93.050000
2844.683772	89.750000
2846.000393	88.910000
2847.316796	87.770000
2848.631431	85.430000
2849.947400	85.840000
2851.260049	87.760000
2852.574034	91.880000
2853.887801	87.120000
2855.201353	86.580000
2856.513137	86.000000
2857.823156	85.580000
2859.134508	89.830000
2860.442546	88.960000
2861.751919	92.590000
2863.061076	89.440000
2864.370018	89.680000
2865.677197	83.200000
2866.982612	88.770000
2868.289362	88.950000
2869.594349	91.850000
2870.899123	88.490000
2872.202135	92.630000
2873.508029	89.970000
2874.809067	93.760000
2876.111440	87.660000
2877.412053	89.860000
2878.714000	82.370000
2880.015734	87.990000
2881.314163	84.890000
2882.613927	84.960000
2883.911932	86.320000
2885.209726	74.300000
2886.505764	83.760000
2887.803135	89.110000
2889.098750	84.120000
2890.394154	81.230000
2891.689348	75.590000
2892.981243	78.800000
2894.276015	82.570000
2895.567490	78.970000
2896.860298	79.730000
2898.152896	78.650000
2899.442200	84.980000
2900.732836	76.040000
2902.021721	77.280000
2903.311939	90.890000
2904.598865	84.110000
2905.887123	85.070000
2907.173631	81.430000
2908.459932	83.730000
2909.746024	79.210000
2911.030368	82.070000
2912.317584	84.230000
2913.599972	87.410000
2914.883693	85.640000
2916.165668	79.530000
2917.447436	78.200000
2918.727458	82.330000
2920.010350	75.400000
2921.291497	75.820000
2922.569362	79.180000
2923.850096	79.520000
2925.127549	79.410000
2926.404797	76.980000
2927.680302	74.710000
2928.958675	76.470000
2930.232233	80.970000
2931.508659	78.830000
2932.783344	76.410000
2934.056289	75.530000
2935.330564	77.200000
2936.603100	74.000000
2937.875432	74.500000
2939.144490	80.920000
2940.416414	79.700000
2941.686600	77.780000
2942.956583	74.910000
2944.226362	79.860000
2945.494404	72.130000
2946.760711	72.690000
2948.026815	73.950000
2949.294249	73.660000
2950.559949	72.910000
2951.825446	77.680000
2953.090741	77.150000
2954.352771	73.280000
2955.616132	76.810000
2956.879290	76.280000
2958.140717	72.810000
2959.403473	74.100000
2960.664498	74.380000
2961.923791	76.260000
2963.182885	73.370000
2964.441778	75.490000
2965.700471	77.830000
2966.958964	75.600000
2968.215728	69.520000
2969.472292	75.560000
2970.727129	71.710000
2971.983295	75.260000
2973.236205	69.970000
2974.490445	71.660000
2975.744486	77.030000
2976.996801	74.370000
2978.248918	71.860000
2979.499310	78.310000
2980.752557	72.930000
2982.001027	76.550000
2983.252351	75.770000
2984.500427	68.990000
2985.748305	77.190000
2986.995986	73.630000
2988.243471	74.620000
2989.489234	72.130000
2990.734800	69.410000
2991.981694	72.310000
2993.225344	73.330000
2994.470322	75.430000
2995.712057	75.710000
2996.956643	80.110000
2998.199509	74.850000
2999.439135	74.560000
3000.681612	78.750000
3001.920848	70.250000
3003.161412	76.590000
3004.400259	72.900000
3005.638912	71.800000
3006.875849	75.740000
3008.114113	72.420000
3009.350663	72.250000
3010.587018	74.540000
3011.823180	76.800000
3013.057629	72.040000
3014.291884	70.660000
3015.525946	70.510000
3016.758296	73.260000
3017.988934	69.260000
3019.222418	72.330000
3020.454190	68.180000
3021.684252	72.480000
3022.914122	71.400000
3024.142282	72.400000
3025.371768	68.220000
3026.599546	68.530000
3027.827132	69.180000
3029.056044	67.460000
3030.280214	71.650000
3031.507227	71.170000
3032.731016	69.490000
3033.956132	72.470000
3035.179541	70.600000
3036.402761	72.230000
3037.624275	63.720000
3038.848630	71.520000
3040.068250	64.710000
3041.289195	70.720000
3042.509952	68.450000
3043.729005	65.020000
3044.949384	68.340000
3046.166546	69.760000
3047.385033	65.480000
3048.601819	72.680000
3049.818416	66.950000
3051.034826	69.260000
3052.248022	65.580000
3053.464056	67.050000
3054.676878	67.240000
3055.892537	66.340000
3057.103473	66.980000
3058.315734	70.530000
3059.527809	64.570000
3060.739697	70.300000
3061.949887	71.050000
3063.159891	60.220000
3064.369710	70.090000
3065.577832	67.280000
3066.785768	75.760000
3067.992010	60.980000
3069.199575	65.950000
3070.405447	66.525000
3071.611133	67.100000
3072.816634	65.510000
3074.020442	65.060000
3075.225574	60.560000
3076.429014	63.130000
3077.630761	59.800000
3078.832325	59.520000
3080.033705	63.620000
3081.234901	63.260000
3082.434407	61.580000
3083.633729	55.750000
3084.834375	63.330000
3086.033332	69.250000
3087.229093	59.780000
3088.427684	60.420000
3089.623081	57.110000
3090.819801	66.030000
3092.013329	59.750000
3093.209686	57.280000
3094.404355	65.690000
3095.595834	64.290000
3096.791644	64.270000
3097.982761	64.740000
3099.175200	56.140000
3100.364452	56.990000
3101.556530	63.280000
3102.746923	55.800000
3103.934131	63.980000
3105.122662	61.440000
3106.312515	65.510000
3107.499183	61.380000
3108.685672	62.640000
3109.871981	60.610000
3111.059612	66.110000
3112.244062	63.530000
3113.426831	64.110000
3114.612424	61.190000
3115.796336	59.940000
3116.978570	64.290000
3118.160625	63.930000
3119.342503	65.650000
3120.524202	60.400000
3121.704223	54.900000
3122.882568	60.730000
3124.063734	59.130000
3125.241724	66.310000
3126.419537	62.980000
3127.597173	63.980000
3128.773134	61.940000
3129.948918	59.370000
3131.126024	65.120000
3132.301455	55.650000
3133.475213	55.880000
3134.647299	58.560000
3135.820705	59.540000
3136.993936	59.570000
3138.165494	67.070000
3139.338374	60.360000
3140.508086	57.940000
3141.679119	61.230000
3142.848481	62.800000
3144.016174	60.120000
3145.186682	62.810000
3146.352531	61.710000
3147.522690	60.430000
3148.688191	56.940000
3149.853519	67.830000
3151.018673	62.950000
3152.183653	61.370000
3153.349954	64.030000
3154.511601	59.650000
3155.674569	66.030000
3156.837363	60.380000
3157.999985	65.550000
3159.160942	61.130000
3160.321726	61.620000
3161.482338	62.750000
3162.641287	58.870000
3163.800063	61.790000
3164.958668	62.680000
3166.117101	60.050000
3167.275362	62.400000
3168.431961	59.080000
3169.586899	63.720000
3170.743156	67.520000
3171.897753	63.570000
3173.052178	67.470000
3174.204944	62.430000
3175.357540	60.920000
3176.509965	65.420000
3177.662221	65.630000
3178.814307	59.100000
3179.963246	61.260000
3181.114992	63.940000
3182.265080	52.030000
3183.413512	62.720000
3184.561775	60.760000
3185.709868	63.000000
3186.857793	57.420000
3188.004063	59.520000
3189.150164	61.350000
3190.294610	61.990000
3191.438889	61.040000
3192.583000	61.730000
3193.728429	56.760000
3194.870719	61.630000
3196.012841	56.840000
3197.154796	60.810000
3198.296585	56.450000
3199.438206	62.930000
3200.576691	58.430000
3201.716494	61.810000
3202.857615	57.540000
3203.995601	55.620000
3205.131938	55.260000
3206.268109	56.690000
3207.405598	57.250000
3208.541438	55.460000
3209.678594	57.440000
3210.811138	57.810000
3211.947964	58.100000
3213.080178	59.500000
3214.213710	63.170000
3215.347076	55.750000
3216.477315	58.220000
3217.610352	53.480000
3218.740263	60.450000
3219.871491	57.630000
3220.999593	60.470000
3222.130492	61.330000
3223.259748	61.860000
3224.387359	61.570000
3225.511849	61.440000
3226.640614	64.180000
3227.766257	64.550000
3228.891737	61.290000
3230.015576	65.830000
3231.142209	69.010000
3232.264245	72.790000
3233.387597	73.120000
3234.510787	77.250000
3235.633815	76.800000
3236.755203	71.240000
3237.876430	81.460000
3238.996018	78.280000
3240.115445	78.890000
3241.233234	82.160000
3242.353816	75.470000
3243.471283	78.100000
3244.588591	72.930000
3245.705737	72.410000
3246.821248	72.780000
3247.938074	69.610000
3249.051789	75.840000
3250.168295	61.210000
3251.283165	68.980000
3252.394927	63.260000
3253.506530	63.450000
3254.619447	59.690000
3255.732206	59.920000
3256.841858	59.820000
3257.952825	56.050000
3259.063632	55.860000
3260.172809	59.650000
3261.280354	56.060000
3262.389214	59.870000
3263.497915	52.520000
3264.603514	57.090000
3265.710428	54.280000
3266.815712	55.730000
3267.922310	52.310000
3269.025808	58.310000
3270.130620	55.220000
3271.235275	60.380000
3272.336831	49.240000
3273.438232	51.970000
3274.540946	55.590000
3275.643503	49.350000
3276.742965	57.780000
3277.845209	51.140000
3278.944359	53.250000
3280.041883	52.580000
3281.139252	57.970000
3282.239404	56.220000
3283.336462	52.520000
3284.433365	50.330000
3285.530114	52.090000
3286.622303	51.150000
3287.718741	51.450000
3288.813558	55.430000
3289.908219	54.210000
3291.001259	49.330000
3292.094145	47.960000
3293.185410	53.210000
3294.277988	52.030000
3295.368945	54.350000
3296.458283	51.130000
3297.547468	54.730000
3298.637966	50.670000
3299.725379	54.630000
3300.812640	51.070000
3301.901213	49.370000
3302.989633	50.980000
3304.073506	52.100000
3305.161621	53.650000
3306.246655	58.170000
3307.330072	50.160000
3308.414802	44.600000
3309.497917	51.150000
3310.582343	48.970000
3311.663691	46.640000
3312.746351	52.960000
3313.827397	49.380000
3314.908292	47.620000
3315.987574	48.730000
3317.066705	49.360000
3318.147147	57.860000
3319.224516	52.350000
3320.303196	42.480000
3321.380264	44.060000
3322.457182	49.240000
3323.532489	56.460000
3324.607647	52.060000
3325.684116	47.880000
3326.757515	47.630000
3327.830765	54.010000
3328.905326	53.100000
3329.978277	52.510000
3331.049621	44.440000
3332.122275	46.970000
3333.191862	50.160000
3334.262760	52.450000
3335.332051	50.820000
3336.402653	46.430000
3337.471648	49.470000
3338.539037	53.820000
3339.604821	49.710000
3340.674831	48.200000
3341.741778	49.640000
3342.805663	47.940000
3343.872316	50.500000
3344.937364	45.500000
3346.000810	55.890000
3347.064108	54.520000
3348.127261	51.240000
3349.190267	50.660000
3350.253126	46.530000
3351.314384	55.130000
3352.372585	50.400000
3353.435007	49.040000
3354.494372	47.470000
3355.553592	50.710000
3356.614122	46.510000
3357.670142	47.830000
3358.728927	46.290000
3359.783204	55.730000
3360.840244	48.820000
3361.895687	49.840000
3362.952438	48.940000
3364.007592	48.030000
3365.061148	47.360000
3366.113107	54.450000
3367.167828	50.680000
3368.219500	49.540000
3369.271029	46.310000
3370.323867	52.120000
3371.373657	47.820000
3372.424755	48.450000
3373.472808	48.530000
3374.523621	47.590000
3375.571388	49.180000
3376.619013	54.290000
3377.666495	45.200000
3378.712385	46.290000
3379.759583	51.810000
3380.803739	46.400000
3381.850653	46.360000
3382.895975	44.780000
3383.938257	43.670000
3384.980397	46.610000
3386.023845	48.050000
3387.067153	43.450000
3388.108870	51.300000
3389.150446	47.990000
3390.191882	47.510000
3391.231728	46.040000
3392.269987	47.200000
3393.309553	50.000000
3394.348978	42.820000
3395.386817	49.420000
3396.423068	45.970000
3397.459179	46.550000
3398.496598	42.990000
3399.530984	43.580000
3400.566677	44.970000
3401.602231	47.990000
3402.634754	45.080000
3403.670030	45.060000
3404.702275	44.510000
3405.734382	40.910000
3406.764905	42.090000
3407.796736	42.210000
3408.828427	43.970000
3409.857092	46.820000
3410.885618	38.870000
3411.915452	45.140000
3412.945147	37.920000
3413.971817	49.500000
3414.999794	41.110000
3416.024746	42.450000
3417.052448	42.260000
3418.077127	37.940000
3419.103112	45.890000
3420.127517	48.350000
3421.151786	45.610000
3422.174476	46.290000
3423.197030	43.240000
3424.220890	45.480000
3425.241730	42.600000
3426.262435	46.090000
3427.284445	44.980000
3428.303437	43.890000
3429.322294	45.510000
3430.342456	45.180000
3431.359602	41.980000
