-117.897011	-1.910000
-115.227411	-0.480000
-112.560746	-0.410000
-109.894833	0.440000
-107.231852	-0.330000
-104.567442	1.840000
-101.905962	-5.090000
-99.243052	-0.330000
-96.585250	2.200000
-93.926017	1.060000
-91.267533	7.440000
-88.611974	2.920000
-85.954986	11.410000
-83.303095	5.920000
-80.649775	7.670000
-77.999375	-0.550000
-75.347545	1.920000
-72.700806	1.450000
-70.052637	5.330000
-67.405212	3.060000
-64.760700	6.890000
-62.114760	0.210000
-59.473901	3.280000
-56.831613	2.990000
-54.192233	1.820000
-51.551425	1.520000
-48.911357	4.510000
-46.276361	-1.120000
-43.639936	3.910000
-41.006415	1.970000
-38.371465	9.680000
-35.741580	4.260000
-33.108103	8.030000
-30.479688	11.830000
-27.852006	3.350000
-25.222897	9.430000
-22.598844	16.050000
-19.971202	14.090000
-17.348613	24.320000
-14.726755	32.570000
-12.105629	48.300000
-9.485232	122.410000
-6.867723	443.480000
-4.248786	1644.330000
-1.632735	3726.460000
0.982588	5041.770000
3.597184	3541.510000
6.208897	453.470000
8.822039	53.440000
11.430147	26.570000
14.041837	18.450000
16.648496	15.730000
19.256583	11.440000
21.863946	9.740000
24.466284	10.560000
27.072200	9.200000
29.673094	7.130000
32.275417	6.890000
34.872721	4.960000
37.473601	6.870000
40.069467	2.170000
42.666760	0.530000
45.263334	8.290000
47.854899	2.120000
50.447892	4.490000
53.038024	-1.440000
55.629584	3.530000
58.218284	6.780000
60.808411	3.180000
63.393540	3.760000
65.980096	2.430000
68.565937	3.430000
71.148925	-0.200000
73.733340	0.980000
76.310625	5.250000
78.891477	1.320000
81.469480	7.710000
84.046773	2.270000
86.625492	-0.370000
89.199230	5.480000
91.774394	4.000000
94.346715	4.830000
96.918328	9.040000
99.487102	2.360000
102.057302	10.140000
104.624663	2.220000
107.193451	12.100000
109.759401	6.080000
112.322517	6.950000
114.889189	12.120000
117.446640	15.380000
120.009776	15.040000
122.567953	19.510000
125.129683	27.960000
127.686458	45.360000
130.244658	68.960000
132.797906	98.640000
135.350455	138.310000
137.906555	198.990000
140.457708	261.270000
143.008162	330.730000
145.557920	385.980000
148.104858	421.350000
150.651100	442.090000
153.198768	465.640000
155.745741	461.910000
158.287777	460.070000
160.829120	453.950000
163.369770	457.320000
165.911846	459.490000
168.451111	458.270000
170.987566	465.010000
173.523331	465.660000
176.060521	457.980000
178.597019	456.170000
181.130712	446.510000
183.661602	448.680000
186.191803	440.380000
188.723429	432.360000
191.252254	445.360000
193.778280	442.510000
196.303621	442.040000
198.830386	441.780000
201.354354	449.180000
203.877638	448.160000
206.400237	442.290000
208.920043	448.460000
211.439166	445.990000
213.957606	449.360000
216.477470	447.640000
218.990333	449.690000
221.506727	460.330000
224.022439	472.600000
226.533262	476.980000
229.045509	483.670000
231.554973	478.480000
234.063759	487.200000
236.571867	493.080000
239.081398	486.480000
241.586050	482.360000
244.090025	486.830000
246.595424	488.150000
249.095948	487.950000
251.599995	473.050000
254.097072	471.420000
256.597671	474.480000
259.095499	469.440000
261.592654	462.660000
264.089136	469.080000
266.580756	465.780000
269.075894	479.410000
271.568267	473.090000
274.059969	484.100000
276.548908	490.140000
279.039270	484.520000
281.526871	491.920000
284.011712	493.840000
286.500067	499.390000
288.981483	511.120000
291.466413	520.920000
293.946498	524.660000
296.430095	523.690000
298.908849	543.350000
301.389027	550.380000
303.866452	554.630000
306.343214	538.070000
308.819313	520.050000
311.292663	505.960000
313.765351	502.390000
316.237378	500.910000
318.708744	515.320000
321.177366	512.150000
323.645328	514.730000
326.114713	496.080000
328.579275	484.360000
331.047340	470.380000
333.510586	464.490000
335.973175	462.010000
338.435106	454.560000
340.896381	450.580000
343.354922	439.940000
345.814885	438.730000
348.272115	429.330000
350.728691	427.760000
353.184613	429.630000
355.637806	418.190000
358.092420	412.440000
360.542233	417.150000
362.995543	405.290000
365.444053	400.280000
367.891913	397.740000
370.341194	394.950000
372.785682	390.740000
375.231592	383.650000
377.676853	384.080000
380.119395	383.410000
382.561289	378.090000
385.002535	373.040000
387.441066	372.190000
389.881019	370.280000
392.318258	369.840000
394.752785	367.420000
397.190800	365.990000
399.624038	368.640000
402.058698	368.950000
404.488584	370.130000
406.921956	373.520000
409.350558	360.710000
411.778519	358.080000
414.207900	359.070000
416.632516	362.800000
419.058554	357.510000
421.483951	352.030000
423.908708	349.350000
426.328707	351.420000
428.750127	349.940000
431.168850	348.950000
433.588994	345.100000
436.006443	345.200000
438.425312	331.690000
440.841488	328.080000
443.252917	320.260000
445.667822	313.300000
448.080037	314.920000
450.491618	303.010000
452.902565	297.230000
455.310826	290.830000
457.718454	283.230000
460.125451	286.920000
462.531815	279.650000
464.935497	275.830000
467.338549	286.180000
469.740971	289.650000
472.142764	281.620000
474.541878	284.960000
476.942412	287.640000
479.342317	296.230000
481.737499	302.280000
484.136148	299.100000
486.530077	312.110000
488.923380	317.900000
491.316057	337.470000
493.708109	360.380000
496.101580	386.370000
498.490338	438.990000
500.876430	516.810000
503.263942	642.230000
505.650830	839.260000
508.035055	1144.590000
510.420699	1628.970000
512.803680	2279.430000
515.184001	2974.870000
517.565741	3478.160000
519.944822	3472.690000
522.325322	3121.200000
524.703164	2630.760000
527.078351	2189.740000
529.452920	1831.760000
531.828908	1574.230000
534.202242	1362.490000
536.576994	1219.320000
538.947061	1091.570000
541.316512	993.640000
543.687381	912.220000
546.053570	838.070000
548.421177	788.300000
550.786138	736.880000
553.150486	701.780000
555.514222	671.500000
557.879375	647.420000
560.239855	634.280000
562.601754	607.450000
564.961013	592.430000
567.317633	566.970000
569.677698	556.670000
572.031073	536.110000
574.387892	526.810000
576.742075	506.550000
579.095651	496.090000
581.448618	474.390000
583.798954	466.950000
586.150706	447.240000
588.495782	436.740000
590.846322	430.290000
593.190189	419.690000
595.539516	417.610000
597.884196	415.060000
600.226250	409.770000
602.569722	408.420000
604.910571	399.060000
607.250818	400.340000
609.588444	415.690000
611.929505	426.680000
614.265929	444.820000
616.603769	454.870000
618.938991	445.720000
621.271598	432.360000
623.605621	422.870000
625.937031	405.260000
628.267842	391.390000
630.598055	384.020000
632.927670	381.510000
635.252663	380.220000
637.583097	378.140000
639.908909	374.810000
642.232115	371.970000
644.556736	373.050000
646.878753	365.360000
649.200175	351.930000
651.518994	352.030000
653.839229	355.690000
656.158871	351.450000
658.475912	347.910000
660.792361	350.820000
663.106213	352.740000
665.421479	352.910000
667.734149	352.980000
670.048234	353.910000
672.357719	353.020000
674.668620	351.610000
676.976928	341.720000
679.284648	338.840000
681.593783	337.870000
683.898325	335.440000
686.202280	323.470000
688.505650	308.810000
690.810434	305.340000
693.110632	305.760000
695.412244	293.330000
697.713272	289.280000
700.009717	285.220000
702.307578	291.750000
704.604855	288.070000
706.901549	285.870000
709.193667	282.220000
711.489196	275.680000
713.780152	286.430000
716.072522	291.210000
718.362316	281.060000
720.651531	282.540000
722.940165	283.810000
725.226228	283.780000
727.513704	280.790000
729.798610	273.450000
732.082937	277.960000
734.364696	277.010000
736.647869	280.430000
738.930465	270.630000
741.208506	270.520000
743.487960	270.960000
745.766839	268.220000
748.045142	271.250000
750.318896	271.000000
752.594064	268.210000
754.868658	268.970000
757.140693	268.920000
759.414140	268.830000
761.685030	262.840000
763.953364	264.840000
766.223111	262.900000
768.490304	267.980000
770.756926	267.100000
773.022979	267.540000
775.286479	271.870000
777.551393	270.430000
779.815737	269.990000
782.075552	265.240000
784.336780	270.830000
786.597440	267.040000
788.855553	265.440000
791.111122	267.130000
793.370082	273.680000
795.622543	282.170000
797.880371	274.880000
800.133679	273.440000
802.384448	276.480000
804.636629	281.580000
806.886272	277.050000
809.137326	272.240000
811.383869	274.260000
813.631825	270.160000
815.877245	274.720000
818.124077	269.720000
820.370348	264.510000
822.612115	270.760000
824.857264	266.580000
827.095941	264.170000
829.338001	267.040000
831.575562	269.810000
833.814534	272.210000
836.050980	264.270000
838.288837	266.350000
840.524170	266.100000
842.756978	271.470000
844.991198	277.950000
847.222896	264.040000
849.454039	270.660000
851.684627	275.780000
853.914661	276.560000
856.144140	268.520000
858.369138	263.920000
860.597511	267.290000
862.821405	260.130000
865.046709	261.510000
867.267538	265.740000
869.491739	264.920000
871.711467	266.200000
873.932606	267.990000
876.153194	272.260000
878.371272	274.230000
880.590761	263.770000
882.805783	263.730000
885.020257	258.450000
887.234184	253.330000
889.447563	254.250000
891.660395	249.450000
893.872681	253.520000
896.082464	251.810000
898.291702	255.350000
900.500395	250.040000
902.706589	252.980000
904.914192	253.490000
907.119298	258.860000
909.323860	257.840000
911.525926	267.710000
913.729402	270.540000
915.930384	282.270000
918.130825	278.900000
920.332674	289.910000
922.528131	301.860000
924.726948	321.760000
926.921327	342.260000
929.119062	376.980000
931.312362	412.140000
933.507071	453.500000
935.699294	482.750000
937.890979	526.460000
940.082126	555.470000
942.270790	557.270000
944.458917	571.170000
946.644564	558.120000
948.833563	556.550000
951.018139	558.690000
953.202180	555.430000
955.389571	566.560000
957.568658	571.110000
959.751096	572.220000
961.933000	574.550000
964.112430	584.930000
966.289387	583.920000
968.467751	593.630000
970.647523	596.420000
972.820946	597.900000
974.997715	600.180000
977.170078	600.080000
979.343847	588.070000
981.513213	576.460000
983.685924	558.260000
985.856168	519.660000
988.025884	489.540000
990.195071	447.400000
992.359861	420.120000
994.527992	397.830000
996.691729	374.730000
998.856872	366.880000
1001.019557	352.600000
1003.181715	348.010000
1005.341417	343.610000
1007.500595	331.490000
1009.661179	325.460000
1011.819308	309.740000
1013.976913	310.910000
1016.133995	301.060000
1018.290554	288.760000
1020.442733	287.080000
1022.596318	270.580000
1024.749382	275.360000
1026.899998	263.960000
1029.052019	262.360000
1031.199667	252.390000
1033.350647	253.050000
1035.497256	252.150000
1037.643347	250.820000
1039.788918	254.450000
1041.935895	254.530000
1044.076584	248.080000
1046.220601	235.840000
1048.362178	247.400000
1050.503239	246.880000
1052.645704	252.000000
1054.781890	254.570000
1056.921402	251.840000
1059.056558	247.810000
1061.195039	252.830000
1063.329166	249.140000
1065.462780	246.890000
1067.597799	239.950000
1069.728468	245.510000
1071.860542	245.640000
1073.990187	244.310000
1076.119320	243.100000
1078.247941	243.240000
1080.376051	242.110000
1082.501735	238.900000
1084.626909	245.570000
1086.753487	240.110000
1088.875728	236.840000
1090.999372	232.610000
1093.118683	237.270000
1095.243222	232.220000
1097.361516	234.100000
1099.481215	228.930000
1101.598495	232.990000
1103.715269	224.750000
1105.831536	227.210000
1107.945388	223.410000
1110.060643	222.500000
1112.171576	224.270000
1114.285820	221.400000
1116.395744	218.380000
1118.507072	222.350000
1120.617895	214.670000
1122.724403	218.870000
1124.834219	218.630000
1126.939721	216.500000
1129.046626	213.470000
1131.147316	214.290000
1133.253218	213.750000
1135.354811	211.560000
1137.457807	219.450000
1139.560302	210.980000
1141.656591	214.750000
1143.758086	216.510000
1145.855279	214.390000
1147.951973	217.310000
1150.048169	213.600000
1152.143868	218.180000
1154.239069	225.990000
1156.331873	224.470000
1158.426079	225.470000
1160.514094	224.010000
1162.607307	221.350000
1164.694332	220.360000
1166.784656	212.620000
1168.870693	221.030000
1170.960027	222.250000
1173.043180	218.870000
1175.127736	220.550000
1177.213692	215.740000
1179.295367	218.980000
1181.378444	221.930000
1183.459135	221.130000
1185.539334	227.890000
1187.619042	230.040000
1189.698259	227.380000
1191.775094	224.020000
1193.849548	227.560000
1195.927294	227.780000
1198.000769	213.950000
1200.075645	220.610000
1202.146254	215.290000
1204.218265	215.480000
1206.287899	218.580000
1208.358934	218.830000
1210.429481	215.470000
1212.495767	214.320000
1214.563454	215.660000
1216.628769	211.520000
1218.695484	210.990000
1220.757943	208.030000
1222.823687	210.930000
1224.885178	206.060000
1226.948068	213.140000
1229.008591	211.740000
1231.068630	209.610000
1233.128187	215.700000
1235.185378	223.250000
1237.242088	218.780000
1239.296435	219.700000
1241.354062	218.850000
1243.409327	219.210000
1245.460351	218.660000
1247.512775	215.350000
1249.564719	218.920000
1251.614305	220.450000
1253.663412	224.410000
1255.712041	228.130000
1257.760191	222.250000
1259.807863	226.510000
1261.851304	220.120000
1263.898020	226.650000
1265.942384	229.040000
1267.986270	230.810000
1270.027806	238.620000
1272.066992	233.550000
1274.109450	237.640000
1276.147686	243.750000
1278.187321	238.410000
1280.226481	241.510000
1282.261422	242.680000
1284.297763	238.460000
1286.331758	234.410000
1288.367152	235.470000
1290.398332	236.150000
1292.430911	235.140000
1294.463017	235.600000
1296.492783	243.410000
1298.523947	235.250000
1300.550903	233.510000
1302.579257	237.330000
1304.603407	239.160000
1306.630821	235.880000
1308.654033	245.660000
1310.678643	248.500000
1312.700919	241.910000
1314.724592	239.440000
1316.745932	243.350000
1318.766804	242.180000
1320.787210	238.850000
1322.803421	242.310000
1324.821031	238.350000
1326.836312	240.920000
1328.854851	233.210000
1330.869202	235.810000
1332.881227	243.550000
1334.896509	239.360000
1336.907606	236.310000
1338.920100	232.300000
1340.928411	238.100000
1342.939978	238.100000
1344.945505	239.150000
1346.954288	231.630000
1348.958893	246.550000
1350.966752	240.340000
1352.974149	239.890000
1354.975515	248.150000
1356.978278	247.850000
1358.980580	244.330000
1360.982423	237.750000
1362.983806	242.760000
1364.982876	238.990000
1366.981487	241.770000
1368.979640	237.630000
1370.977335	239.780000
1372.970866	233.600000
1374.965794	234.970000
1376.960265	237.890000
1378.954279	232.540000
1380.945986	230.720000
1382.937237	226.400000
1384.926183	223.180000
1386.916524	211.680000
1388.906410	215.470000
1390.893993	216.240000
1392.881121	215.810000
1394.865949	221.660000
1396.852170	222.020000
1398.836092	225.130000
1400.819561	217.490000
1402.802578	226.390000
1404.783296	220.080000
1406.765410	217.180000
1408.745226	217.420000
1410.724592	214.070000
1412.699818	217.330000
1414.678284	213.200000
1416.654455	209.490000
1418.630178	209.990000
1420.605451	216.070000
1422.578433	216.990000
1424.550967	218.750000
1426.523054	222.240000
1428.494692	214.060000
1430.462202	215.950000
1432.434787	209.090000
1434.399565	221.050000
1436.369416	218.890000
1438.335142	220.000000
1440.302261	215.840000
1442.267097	220.170000
1444.227814	226.750000
1446.193598	225.440000
1448.153427	230.770000
1450.114649	229.080000
1452.077264	232.270000
1454.035764	237.580000
1455.993822	229.650000
1457.951437	234.110000
1459.908611	225.900000
1461.863509	224.470000
1463.819799	226.710000
1465.773815	224.010000
1467.727391	225.420000
1469.678694	217.660000
1471.631389	223.690000
1473.581813	219.630000
1475.531798	222.470000
1477.481343	221.180000
1479.428620	215.200000
1481.373630	221.420000
1483.320031	214.710000
1485.265996	216.670000
1487.211522	219.530000
1489.154784	210.730000
1491.097609	218.280000
1493.038171	216.340000
1494.980124	213.470000
1496.919816	217.940000
1498.859072	216.090000
1500.797893	217.890000
1502.734455	219.120000
1504.672408	227.610000
1506.608103	229.280000
1508.543364	228.720000
1510.476368	224.870000
1512.408940	232.300000
1514.341080	229.160000
1516.272788	226.580000
1518.202242	232.630000
1520.133087	223.160000
1522.063501	225.690000
1523.989841	227.660000
1525.917573	233.290000
1527.843054	230.480000
1529.768106	230.710000
1531.692729	238.890000
1533.616923	239.930000
1535.538870	242.260000
1537.462206	243.720000
1539.383297	241.190000
1541.302143	249.490000
1543.222379	254.190000
1545.140371	252.660000
1547.057937	258.810000
1548.973261	279.110000
1550.889975	277.950000
1552.802634	284.220000
1554.718497	294.070000
1556.632120	296.080000
1558.543506	301.780000
1560.456280	307.790000
1562.365005	332.230000
1564.275120	346.230000
1566.184811	376.080000
1568.094078	412.530000
1570.001112	453.620000
1571.905913	507.050000
1573.812103	570.890000
1575.716061	648.810000
1577.619599	722.720000
1579.522715	802.930000
1581.423603	867.770000
1583.325878	871.950000
1585.225926	829.320000
1587.127361	753.450000
1589.024763	664.130000
1590.921746	581.400000
1592.818311	501.740000
1594.716264	457.590000
1596.608382	408.810000
1598.503693	377.810000
1600.398587	359.030000
1602.291259	343.880000
1604.183515	324.600000
1606.073551	317.430000
1607.963171	314.900000
1609.852375	300.320000
1611.741165	294.300000
1613.627738	299.170000
1615.515697	288.930000
1617.399640	287.910000
1619.284971	293.620000
1621.169887	289.240000
1623.052591	276.610000
1624.936680	276.210000
1626.816759	261.960000
1628.698224	256.420000
1630.577479	239.330000
1632.458120	238.520000
1634.332957	229.660000
1636.212776	225.560000
1638.088589	222.760000
1639.963992	225.290000
1641.840782	219.590000
1643.711774	221.870000
1645.585948	222.100000
1647.456124	226.780000
1649.329480	215.670000
1651.200633	220.900000
1653.069584	211.440000
1654.939921	210.290000
1656.806264	198.100000
1658.673993	203.950000
1660.539524	203.360000
1662.406439	196.750000
1664.269366	199.650000
1666.133678	197.890000
1667.995794	197.670000
1669.857506	199.530000
1671.720602	191.970000
1673.581504	188.580000
1675.440212	189.790000
1677.298517	190.190000
1679.158207	184.650000
1681.012130	182.190000
1682.869225	187.800000
1684.725918	186.510000
1686.578635	185.900000
1688.434523	181.850000
1690.286436	184.170000
1692.137949	183.020000
1693.989061	176.130000
1695.839773	180.040000
1697.690084	173.290000
1699.538211	176.070000
1701.387721	172.700000
1703.231483	175.710000
1705.080194	173.750000
1706.923160	177.830000
1708.769291	176.030000
1710.611461	175.340000
1712.456795	173.670000
1714.296389	173.510000
1716.137367	174.870000
1717.979728	172.980000
1719.818133	167.720000
1721.657921	169.160000
1723.495534	165.720000
1725.332751	167.700000
1727.167795	168.220000
1729.004222	168.610000
1730.838477	163.110000
1732.672337	166.760000
1734.505804	170.310000
1736.335324	172.650000
1738.168003	168.020000
1739.996738	167.380000
1741.828631	167.610000
1743.656581	169.760000
1745.484139	159.710000
1747.311305	167.350000
1749.138080	164.270000
1750.964464	162.590000
1752.786911	168.290000
1754.612512	172.700000
1756.434179	165.240000
1758.257228	171.370000
1760.078116	165.580000
1761.898614	168.470000
1763.720494	164.750000
1765.536674	166.260000
1767.356006	163.550000
1769.171411	158.990000
1770.989966	161.020000
1772.804596	157.460000
1774.618840	158.750000
1776.432696	157.000000
1778.246166	160.810000
1780.057483	156.010000
1781.870181	166.670000
1783.682492	158.940000
1785.490886	155.280000
1787.300661	157.120000
1789.106520	156.900000
1790.915526	160.300000
1792.720617	153.430000
1794.527090	159.590000
1796.333179	153.760000
1798.135358	146.160000
1799.940680	150.430000
1801.742094	157.150000
1803.544888	159.290000
1805.343776	157.860000
1807.144045	155.870000
1808.943932	153.960000
1810.741678	155.050000
1812.539043	157.010000
1814.336027	161.410000
1816.132631	158.940000
1817.927096	162.980000
1819.722940	167.220000
1821.513130	169.160000
1823.308216	165.190000
1825.097649	170.560000
1826.890219	165.730000
1828.680654	165.810000
1830.468955	170.700000
1832.260391	166.640000
1834.046181	171.090000
1835.833351	165.510000
1837.618389	166.170000
1839.406561	173.890000
1841.190847	174.130000
1842.973004	175.640000
1844.756539	180.630000
1846.537946	172.830000
1848.320732	174.310000
1850.099638	170.620000
1851.879922	167.620000
1853.658080	168.860000
1855.437617	166.290000
1857.215029	173.440000
1858.990317	168.930000
1860.766984	164.630000
1862.541527	162.350000
1864.317449	164.330000
1866.087751	159.270000
1867.861179	166.130000
1869.632488	165.000000
1871.403427	165.480000
1873.175742	161.340000
1874.942445	163.100000
1876.712272	153.770000
1878.478236	154.210000
1880.247324	165.080000
1882.012550	155.020000
1883.777407	154.580000
1885.543642	156.870000
1887.306018	159.990000
1889.068027	153.060000
1890.829668	153.530000
1892.590943	152.800000
1894.351850	151.450000
1896.112391	154.370000
1897.870822	150.850000
1899.628888	152.210000
1901.384845	154.930000
1903.142180	147.230000
1904.899148	149.760000
1906.654011	156.030000
1908.406768	150.350000
1910.159162	150.480000
1911.912931	155.750000
1913.664597	150.510000
1915.414161	149.750000
1917.165101	147.800000
1918.915677	151.220000
1920.662414	149.040000
1922.410528	155.470000
1924.156542	149.200000
1925.903932	145.130000
1927.649223	150.110000
1929.392417	151.500000
1931.136987	153.020000
1932.879460	153.410000
1934.621573	161.550000
1936.363326	154.710000
1938.104720	153.090000
1939.844020	156.300000
1941.582961	152.330000
1943.321543	156.350000
1945.058033	156.510000
1946.794166	151.910000
1948.531673	147.310000
1950.265358	151.240000
1952.000418	150.510000
1953.733390	147.250000
1955.466005	139.900000
1957.198263	147.790000
1958.930165	144.140000
1960.659981	145.750000
1962.387713	146.810000
1964.116818	144.070000
1965.845569	148.370000
1967.572236	144.260000
1969.298549	141.400000
1971.026235	145.680000
1972.748385	136.560000
1974.473636	142.370000
1976.195081	141.530000
1977.919625	139.310000
1979.642090	148.530000
1981.360751	145.740000
1983.082511	146.040000
1984.800469	148.050000
1986.519800	143.430000
1988.235332	149.130000
1989.955685	150.740000
1991.672238	147.660000
1993.384996	150.570000
1995.100849	144.280000
1996.814629	141.900000
1998.528060	148.530000
2000.239420	147.710000
2001.952153	146.070000
2003.661094	152.250000
2005.373129	151.750000
2007.079654	147.980000
2008.789272	147.730000
2010.496822	149.330000
2012.204025	150.190000
2013.909162	153.900000
2015.613952	155.310000
2017.320114	149.150000
2019.022494	154.970000
2020.726246	149.880000
2022.427934	149.060000
2024.129278	145.480000
2025.830276	150.310000
2027.529214	147.860000
2029.229522	147.370000
2030.926056	141.170000
2032.623961	145.420000
2034.319807	148.930000
2036.018739	149.900000
2037.712185	140.680000
2039.407003	136.170000
2041.101477	142.250000
2042.792183	138.140000
2044.485973	138.540000
2046.175996	138.940000
2047.867390	140.710000
2049.556731	137.710000
2051.247442	143.960000
2052.934391	145.040000
2054.620999	136.590000
2056.308978	145.850000
2057.993197	142.840000
2059.678786	140.750000
2061.364036	143.520000
2063.047238	143.210000
2064.731809	145.910000
2066.410918	147.470000
2068.094812	144.910000
2069.773246	145.460000
2071.454756	139.870000
2073.132516	148.430000
2074.809938	145.190000
2076.488731	141.740000
2078.165480	141.340000
2079.840188	148.760000
2081.516265	148.440000
2083.190302	142.050000
2084.864003	140.440000
2086.537369	143.770000
2088.208697	149.910000
2089.879690	145.090000
2091.550349	149.610000
2093.220673	146.070000
2094.890664	142.870000
2096.558619	146.680000
2098.226241	136.720000
2099.891829	149.150000
2101.558785	146.550000
2103.223707	145.130000
2104.888298	141.090000
2106.550857	137.870000
2108.214784	141.690000
2109.876681	138.480000
2111.538246	141.480000
2113.199480	138.430000
2114.858686	138.340000
2116.517562	139.030000
2118.176107	140.750000
2119.834323	141.590000
2121.488815	139.130000
2123.146372	141.070000
2124.803600	144.550000
2126.457106	140.290000
2128.111980	138.730000
2129.763136	133.920000
2131.417353	140.530000
2133.067854	138.130000
2134.719721	134.320000
2136.366180	139.800000
2138.017394	142.380000
2139.664894	135.150000
2141.313761	138.490000
2142.960610	138.340000
2144.607132	135.490000
2146.253329	135.810000
2147.895818	136.240000
2149.541365	147.320000
2151.183205	134.090000
2152.828102	140.510000
2154.469294	141.010000
2156.110162	137.310000
2157.750706	142.550000
2159.389239	138.060000
2161.029137	147.230000
2162.665335	144.100000
2164.302899	145.150000
2165.940140	147.830000
2167.575372	143.970000
2169.210283	152.300000
2170.844872	135.770000
2172.479139	143.190000
2174.109714	146.440000
2175.743339	145.970000
2177.373273	147.080000
2179.004572	139.420000
2180.633867	144.150000
2182.262841	141.120000
2183.891497	140.510000
2185.519833	136.730000
2187.146166	144.030000
2188.772181	145.690000
2190.396195	140.040000
2192.021573	142.060000
2193.644952	145.030000
2195.269694	142.250000
2196.890756	146.390000
2198.511501	145.950000
2200.133611	140.460000
2201.753723	140.820000
2203.371838	143.380000
2204.989638	141.210000
2206.607123	142.250000
2208.224292	137.480000
2209.841146	140.370000
2211.457685	138.620000
2213.072230	146.800000
2214.684783	139.820000
2216.298700	136.250000
2217.910626	142.820000
2219.523915	145.200000
2221.135214	137.580000
2222.744523	130.720000
2224.355196	150.100000
2225.963880	143.820000
2227.572252	142.730000
2229.178636	141.370000
2230.786384	138.950000
2232.392145	133.960000
2233.997595	128.420000
2235.601060	133.080000
2237.205889	137.630000
2238.808733	130.660000
2240.409594	136.930000
2242.011818	135.140000
2243.612059	138.740000
2245.213663	135.130000
2246.811615	143.030000
2248.410929	133.950000
2250.008263	136.890000
2251.605288	138.760000
2253.203676	136.180000
2254.798415	137.770000
2256.391177	141.490000
2257.985302	137.710000
2259.580788	149.420000
2261.172630	141.710000
2262.764165	143.230000
2264.357061	145.520000
2265.944648	141.310000
2267.536932	145.740000
2269.123908	141.570000
2270.713913	138.180000
2272.298613	136.510000
2273.888007	141.030000
2275.472098	137.470000
2277.057551	137.820000
2278.641034	131.920000
2280.227544	137.950000
2281.810420	139.410000
2283.392992	129.080000
2284.975261	127.260000
2286.553901	134.580000
2288.135564	128.970000
2289.713599	125.530000
2291.294657	133.310000
2292.872089	132.190000
2294.447556	131.070000
2296.026046	130.510000
2297.600912	134.300000
2299.175477	127.410000
2300.749742	134.180000
2302.323706	137.280000
2303.897370	134.870000
2305.470733	132.760000
2307.040478	129.730000
2308.609924	131.290000
2310.182389	133.970000
2311.749578	132.000000
2313.319786	128.150000
2314.886379	132.050000
2316.454332	137.690000
2318.020330	131.750000
2319.586029	130.350000
2321.151432	126.680000
2322.714881	129.330000
2324.279688	133.260000
2325.840888	135.410000
2327.405102	138.720000
2328.964055	135.440000
2330.526021	138.850000
2332.086037	133.200000
2333.645757	125.910000
2335.203528	126.170000
2336.761005	127.790000
2338.318186	133.420000
2339.873421	127.590000
2341.428361	134.590000
2342.983008	125.730000
2344.537361	131.490000
2346.091420	131.760000
2347.645185	132.140000
2349.197007	133.670000
2350.746885	130.790000
2352.299771	132.930000
2353.847415	132.880000
2355.398066	134.900000
2356.945127	136.100000
2358.493545	136.020000
2360.041671	135.690000
2361.586210	139.500000
2363.132106	131.780000
2364.676063	130.090000
2366.221378	135.640000
2367.763108	132.780000
2369.306195	135.500000
2370.847347	130.000000
2372.388209	129.850000
2373.928782	131.970000
2375.469066	129.580000
2377.009061	128.160000
2378.545477	125.920000
2380.084895	127.780000
2381.620736	128.430000
2383.157933	124.810000
2384.691555	130.490000
2386.228178	126.560000
2387.762869	135.610000
2389.295631	127.320000
2390.828107	124.810000
2392.358654	128.710000
2393.892199	125.990000
2395.420533	124.830000
2396.950223	129.580000
2398.479628	128.830000
2400.008747	127.260000
2401.537582	124.370000
2403.061211	128.810000
2404.589477	127.250000
2406.112539	128.510000
2407.640235	131.900000
2409.161092	130.200000
2410.686582	124.900000
2412.208511	125.470000
2413.731796	131.230000
2415.253160	132.350000
2416.772604	133.140000
2418.293403	127.530000
2419.812283	128.960000
2421.330881	134.480000
2422.847562	131.320000
2424.365597	131.950000
2425.883351	125.570000
2427.397554	132.290000
2428.911476	130.850000
2430.425118	132.290000
2431.940115	138.510000
2433.451563	134.930000
2434.964366	132.360000
2436.475256	132.460000
2437.985866	134.880000
2439.494565	133.260000
2441.006251	138.820000
2442.514392	139.950000
2444.022256	139.000000
2445.529842	143.850000
2447.033887	148.720000
2448.540918	146.590000
2450.046040	150.300000
2451.550885	149.520000
2453.053823	144.580000
2454.556484	157.140000
2456.058869	155.800000
2457.559349	149.910000
2459.061182	147.420000
2460.561111	152.730000
2462.060764	154.250000
2463.560141	144.060000
2465.057616	142.910000
2466.553190	138.760000
2468.051743	136.080000
2469.546767	135.670000
2471.043145	129.240000
2472.535996	140.000000
2474.030199	139.170000
2475.524129	134.070000
2477.014536	130.470000
2478.507919	133.210000
2479.999405	125.280000
2481.488994	129.230000
2482.978311	134.440000
2484.465733	138.160000
2485.956130	130.660000
2487.443008	133.180000
2488.931238	132.810000
2490.415952	130.330000
2491.900395	131.410000
2493.386190	126.590000
2494.870092	123.730000
2496.355346	115.920000
2497.835466	123.910000
2499.318558	121.810000
2500.799760	122.730000
2502.280693	120.120000
2503.759737	121.410000
2505.238512	122.220000
2506.717019	112.510000
2508.195258	123.110000
2509.673228	114.420000
2511.147694	121.660000
2512.625128	121.240000
2514.099059	118.880000
2515.574341	121.860000
2517.049355	115.680000
2518.520868	116.420000
2519.993732	117.460000
2521.464712	117.940000
2522.937043	120.650000
2524.404261	119.880000
2525.874444	119.520000
2527.342747	122.250000
2528.810785	122.410000
2530.278558	119.330000
2531.746066	119.820000
2533.213309	117.300000
2534.677060	125.870000
2536.142161	126.030000
2537.605385	117.830000
2539.069959	120.240000
2540.531043	127.620000
2541.993477	118.390000
2543.455648	123.070000
2544.914333	119.840000
2546.377590	123.600000
2547.835750	118.870000
2549.295259	124.760000
2550.749675	126.490000
2552.208660	128.720000
2553.665774	125.950000
2555.121017	127.150000
2556.575999	133.730000
2558.029111	130.740000
2559.483572	125.350000
2560.936164	125.990000
2562.388496	129.320000
2563.838960	129.150000
2565.292380	121.760000
2566.740718	132.700000
2568.192012	127.080000
2569.641439	138.410000
2571.087395	128.960000
2572.536305	130.170000
2573.981744	134.350000
2575.428532	137.970000
2576.873456	137.870000
2578.318123	140.490000
2579.764137	132.170000
2581.206684	136.240000
2582.650579	137.140000
2584.091009	129.270000
2585.532787	135.680000
2586.972704	133.760000
2588.413969	131.240000
2589.851773	135.010000
2591.292526	130.250000
2592.728216	133.000000
2594.166856	133.390000
2595.603639	130.600000
2597.038565	131.560000
2598.476440	125.020000
2599.909256	132.480000
2601.343420	126.050000
2602.775730	127.950000
2604.209386	129.730000
2605.641189	135.010000
2607.072739	132.010000
2608.504035	129.730000
2609.933479	135.920000
2611.362672	133.730000
2612.790013	130.990000
2614.218701	133.800000
2615.647136	134.500000
2617.072124	132.910000
2618.498459	140.100000
2619.922945	138.200000
2621.348777	145.190000
2622.771165	140.340000
2624.194899	142.720000
2625.616786	147.950000
2627.038424	154.790000
2628.458216	159.210000
2629.879354	156.110000
2631.300242	151.930000
2632.717692	162.730000
2634.138081	162.940000
2635.555033	162.230000
2636.971737	165.810000
2638.388192	172.420000
2639.804399	166.690000
2641.220357	172.030000
2642.634475	171.790000
2644.048346	185.920000
2645.460377	175.770000
2646.873753	184.170000
2648.283699	186.410000
2649.696580	191.460000
2651.106034	198.370000
2652.515241	202.300000
2653.922612	202.550000
2655.332917	224.780000
2656.741386	233.910000
2658.148020	237.850000
2659.554409	246.300000
2660.958964	254.600000
2662.364863	267.110000
2663.768929	280.520000
2665.172751	289.420000
2666.576328	300.240000
2667.978073	322.510000
2669.381162	346.340000
2670.780834	365.630000
2672.181848	376.500000
2673.579447	404.100000
2674.979976	418.990000
2676.377090	440.330000
2677.775547	466.160000
2679.172176	487.580000
2680.568563	491.550000
2681.964709	508.310000
2683.359028	518.150000
2684.754690	527.500000
2686.146942	531.410000
2687.540538	531.980000
2688.932309	538.080000
2690.325422	518.450000
2691.716712	502.170000
2693.106179	492.230000
2694.495406	473.120000
2695.884394	459.690000
2697.274724	442.790000
2698.660069	427.600000
2700.048338	406.720000
2701.434787	380.340000
2702.820997	367.010000
2704.206969	338.470000
2705.589541	334.560000
2706.973456	316.240000
2708.357133	294.740000
2709.740572	283.120000
2711.120615	262.920000
2712.502000	253.420000
2713.881569	245.370000
2715.262480	227.840000
2716.641576	223.900000
2718.018857	208.800000
2719.397480	211.000000
2720.774290	198.090000
2722.150864	193.070000
2723.527202	186.540000
2724.901728	177.510000
2726.277595	175.790000
2727.650075	163.540000
2729.025472	172.570000
2730.395907	162.570000
2731.767684	162.400000
2733.139226	154.370000
2734.508960	151.580000
2735.880035	153.580000
2737.249302	151.180000
2738.618335	151.490000
2739.985561	142.730000
2741.352555	142.520000
2742.719316	138.530000
2744.085844	136.230000
2745.450567	136.310000
2746.815059	133.980000
2748.179318	136.640000
2749.543345	137.160000
2750.907141	128.240000
2752.267563	124.730000
2753.630896	122.630000
2754.989286	119.860000
2756.350586	124.270000
2757.708515	110.860000
2759.069354	117.670000
2760.428392	118.180000
2761.784062	116.490000
2763.142640	120.800000
2764.497852	113.080000
2765.852834	115.920000
2767.206019	113.260000
2768.562111	113.430000
2769.914839	112.640000
2771.267338	120.540000
2772.619609	116.770000
2773.973219	118.640000
2775.323467	118.400000
2776.671922	117.470000
2778.023281	118.160000
2779.371281	117.370000
2780.720620	116.750000
2782.068166	115.770000
2783.415485	116.640000
2784.762578	109.680000
2786.107880	104.530000
2787.452956	116.090000
2788.797806	109.180000
2790.142429	114.570000
2791.483701	114.180000
2792.826311	119.470000
2794.168695	114.630000
2795.510855	121.670000
2796.849665	122.090000
2798.191374	109.590000
2799.529736	121.250000
2800.869435	120.740000
2802.207348	114.470000
2803.543477	120.880000
2804.879382	119.210000
2806.216625	118.280000
2807.552084	120.830000
2808.887320	116.410000
2810.220773	123.150000
2811.555564	116.270000
2812.887013	122.060000
2814.221358	116.530000
2815.550805	120.810000
2816.881589	118.030000
2818.212151	116.470000
2819.540934	118.160000
2820.871053	117.060000
2822.199394	111.950000
2823.527514	114.650000
2824.853857	114.830000
2826.181535	101.950000
2827.505881	111.320000
2828.831562	111.510000
2830.155468	110.330000
2831.479155	110.070000
2832.804177	104.330000
2834.125869	105.520000
2835.447343	107.190000
2836.768598	112.580000
2838.089634	111.400000
2839.408898	103.800000
2840.729497	110.160000
2842.048324	109.960000
2843.366933	104.160000
2844.683772	98.050000
2846.000393	102.830000
2847.316796	102.530000
2848.631431	101.490000
2849.947400	98.660000
2851.260049	106.900000
2852.574034	103.860000
2853.887801	101.370000
2855.201353	108.070000
2856.513137	106.070000
2857.823156	100.250000
2859.134508	101.680000
2860.442546	102.540000
2861.751919	107.360000
2863.061076	102.840000
2864.370018	101.860000
2865.677197	102.960000
2866.982612	106.420000
2868.289362	97.860000
2869.594349	104.480000
2870.899123	100.810000
2872.202135	107.340000
2873.508029	98.700000
2874.809067	103.130000
2876.111440	96.320000
2877.412053	97.780000
2878.714000	97.180000
2880.015734	93.870000
2881.314163	96.960000
2882.613927	98.270000
2883.911932	96.420000
2885.209726	93.210000
2886.505764	89.910000
2887.803135	94.310000
2889.098750	91.940000
2890.394154	93.550000
2891.689348	92.650000
2892.981243	91.600000
2894.276015	87.830000
2895.567490	100.240000
2896.860298	97.630000
2898.152896	98.260000
2899.442200	92.760000
2900.732836	96.020000
2902.021721	90.710000
2903.311939	94.940000
2904.598865	96.450000
2905.887123	96.300000
2907.173631	94.880000
2908.459932	101.530000
2909.746024	95.610000
2911.030368	94.250000
2912.317584	91.440000
2913.599972	98.630000
2914.883693	98.290000
2916.165668	98.850000
2917.447436	95.140000
2918.727458	95.400000
2920.010350	98.330000
2921.291497	96.820000
2922.569362	90.070000
2923.850096	91.050000
2925.127549	94.640000
2926.404797	91.330000
2927.680302	96.810000
2928.958675	96.270000
2930.232233	93.860000
2931.508659	92.460000
2932.783344	94.560000
2934.056289	94.910000
2935.330564	93.850000
2936.603100	88.840000
2937.875432	92.120000
2939.144490	100.770000
2940.416414	91.420000
2941.686600	88.000000
2942.956583	90.050000
2944.226362	88.110000
2945.494404	87.940000
2946.760711	89.790000
2948.026815	83.290000
2949.294249	88.160000
2950.559949	87.360000
2951.825446	90.600000
2953.090741	86.810000
2954.352771	89.920000
2955.616132	85.670000
2956.879290	85.330000
2958.140717	93.060000
2959.403473	91.670000
2960.664498	84.560000
2961.923791	84.770000
2963.182885	86.100000
2964.441778	82.900000
2965.700471	85.440000
2966.958964	86.140000
2968.215728	92.050000
2969.472292	90.560000
2970.727129	88.330000
2971.983295	94.010000
2973.236205	86.030000
2974.490445	91.260000
2975.744486	82.410000
2976.996801	88.960000
2978.248918	81.440000
2979.499310	88.730000
2980.752557	87.080000
2982.001027	83.420000
2983.252351	85.920000
2984.500427	82.300000
2985.748305	86.470000
2986.995986	90.660000
2988.243471	86.680000
2989.489234	84.210000
2990.734800	85.120000
2991.981694	88.700000
2993.225344	79.500000
2994.470322	84.620000
2995.712057	83.540000
2996.956643	83.680000
2998.199509	81.900000
2999.439135	90.560000
3000.681612	88.480000
3001.920848	82.370000
3003.161412	89.050000
3004.400259	86.690000
3005.638912	86.890000
3006.875849	88.380000
3008.114113	81.150000
3009.350663	87.320000
3010.587018	83.900000
3011.823180	90.960000
3013.057629	87.620000
3014.291884	77.080000
3015.525946	88.410000
3016.758296	82.880000
3017.988934	86.830000
3019.222418	84.680000
3020.454190	79.680000
3021.684252	88.840000
3022.914122	80.290000
3024.142282	82.560000
3025.371768	88.830000
3026.599546	83.020000
3027.827132	82.030000
3029.056044	79.210000
3030.280214	77.360000
3031.507227	82.670000
3032.731016	77.490000
3033.956132	81.090000
3035.179541	82.670000
3036.402761	77.930000
3037.624275	80.170000
3038.848630	81.450000
3040.068250	83.090000
3041.289195	76.420000
3042.509952	83.080000
3043.729005	79.920000
3044.949384	77.200000
3046.166546	78.570000
3047.385033	80.850000
3048.601819	85.770000
3049.818416	79.020000
3051.034826	81.300000
3052.248022	78.520000
3053.464056	83.430000
3054.676878	80.260000
3055.892537	84.420000
3057.103473	84.030000
3058.315734	86.340000
3059.527809	77.650000
3060.739697	82.810000
3061.949887	77.070000
3063.159891	84.700000
3064.369710	81.030000
3065.577832	81.700000
3066.785768	77.330000
3067.992010	72.990000
3069.199575	75.180000
3070.405447	74.675000
3071.611133	74.170000
3072.816634	76.170000
3074.020442	71.420000
3075.225574	70.710000
3076.429014	74.800000
3077.630761	75.710000
3078.832325	69.620000
3080.033705	70.290000
3081.234901	70.370000
3082.434407	73.960000
3083.633729	70.450000
3084.834375	67.300000
3086.033332	70.200000
3087.229093	71.480000
3088.427684	72.400000
3089.623081	71.730000
3090.819801	70.570000
3092.013329	76.050000
3093.209686	62.700000
3094.404355	69.480000
3095.595834	68.250000
3096.791644	75.780000
3097.982761	68.090000
3099.175200	76.670000
3100.364452	68.760000
3101.556530	71.840000
3102.746923	71.560000
3103.934131	73.550000
3105.122662	66.880000
3106.312515	70.750000
3107.499183	67.570000
3108.685672	68.420000
3109.871981	71.630000
3111.059612	65.790000
3112.244062	73.910000
3113.426831	70.450000
3114.612424	69.250000
3115.796336	70.970000
3116.978570	69.540000
3118.160625	69.070000
3119.342503	73.220000
3120.524202	75.670000
3121.704223	70.890000
3122.882568	71.860000
3124.063734	71.100000
3125.241724	70.780000
3126.419537	71.750000
3127.597173	73.230000
3128.773134	73.740000
3129.948918	62.630000
3131.126024	69.490000
3132.301455	67.270000
3133.475213	67.110000
3134.647299	70.520000
3135.820705	67.090000
3136.993936	73.500000
3138.165494	67.860000
3139.338374	71.040000
3140.508086	74.010000
3141.679119	68.120000
3142.848481	70.540000
3144.016174	70.080000
3145.186682	69.080000
3146.352531	76.070000
3147.522690	69.370000
3148.688191	72.820000
3149.853519	77.700000
3151.018673	73.810000
3152.183653	76.980000
3153.349954	75.690000
3154.511601	74.790000
3155.674569	75.000000
3156.837363	71.730000
3157.999985	69.710000
3159.160942	69.190000
3160.321726	70.650000
3161.482338	74.330000
3162.641287	67.870000
3163.800063	68.090000
3164.958668	70.230000
3166.117101	73.420000
3167.275362	70.940000
3168.431961	73.210000
3169.586899	73.150000
3170.743156	76.510000
3171.897753	76.010000
3173.052178	78.100000
3174.204944	74.800000
3175.357540	71.800000
3176.509965	73.620000
3177.662221	77.730000
3178.814307	75.070000
3179.963246	71.710000
3181.114992	69.760000
3182.265080	75.010000
3183.413512	72.380000
3184.561775	72.860000
3185.709868	78.260000
3186.857793	71.930000
3188.004063	72.560000
3189.150164	71.050000
3190.294610	72.400000
3191.438889	68.480000
3192.583000	73.830000
3193.728429	64.830000
3194.870719	71.470000
3196.012841	75.620000
3197.154796	74.260000
3198.296585	72.100000
3199.438206	73.630000
3200.576691	63.360000
3201.716494	70.080000
3202.857615	68.380000
3203.995601	69.950000
3205.131938	65.280000
3206.268109	66.990000
3207.405598	66.030000
3208.541438	69.250000
3209.678594	65.490000
3210.811138	66.070000
3211.947964	70.360000
3213.080178	70.280000
3214.213710	66.140000
3215.347076	64.950000
3216.477315	64.690000
3217.610352	67.600000
3218.740263	65.020000
3219.871491	67.430000
3220.999593	66.660000
3222.130492	69.010000
3223.259748	67.040000
3224.387359	68.830000
3225.511849	69.990000
3226.640614	71.860000
3227.766257	72.300000
3228.891737	69.450000
3230.015576	73.350000
3231.142209	68.110000
3232.264245	71.610000
3233.387597	79.130000
3234.510787	76.810000
3235.633815	77.120000
3236.755203	77.380000
3237.876430	80.210000
3238.996018	73.780000
3240.115445	74.610000
3241.233234	74.440000
3242.353816	76.000000
3243.471283	83.220000
3244.588591	77.400000
3245.705737	80.310000
3246.821248	75.710000
3247.938074	78.160000
3249.051789	79.410000
3250.168295	77.810000
3251.283165	74.880000
3252.394927	72.980000
3253.506530	70.700000
3254.619447	68.840000
3255.732206	70.970000
3256.841858	65.250000
3257.952825	68.000000
3259.063632	64.730000
3260.172809	68.270000
3261.280354	65.820000
3262.389214	65.300000
3263.497915	62.050000
3264.603514	67.210000
3265.710428	64.280000
3266.815712	66.300000
3267.922310	59.840000
3269.025808	63.540000
3270.130620	65.280000
3271.235275	67.030000
3272.336831	60.870000
3273.438232	61.740000
3274.540946	61.330000
3275.643503	62.660000
3276.742965	61.880000
3277.845209	63.770000
3278.944359	59.530000
3280.041883	62.530000
3281.139252	59.800000
3282.239404	59.500000
3283.336462	60.190000
3284.433365	61.180000
3285.530114	59.370000
3286.622303	61.830000
3287.718741	57.810000
3288.813558	57.190000
3289.908219	57.150000
3291.001259	65.190000
3292.094145	61.200000
3293.185410	61.640000
3294.277988	61.510000
3295.368945	61.550000
3296.458283	59.280000
3297.547468	64.260000
3298.637966	62.230000
3299.725379	62.370000
3300.812640	61.150000
3301.901213	60.040000
3302.989633	53.520000
3304.073506	55.570000
3305.161621	58.200000
3306.246655	60.030000
3307.330072	60.390000
3308.414802	62.560000
3309.497917	60.660000
3310.582343	55.480000
3311.663691	59.420000
3312.746351	58.420000
3313.827397	55.930000
3314.908292	60.120000
3315.987574	48.720000
3317.066705	60.170000
3318.147147	57.890000
3319.224516	54.990000
3320.303196	58.290000
3321.380264	54.290000
3322.457182	55.230000
3323.532489	56.450000
3324.607647	55.680000
3325.684116	55.090000
3326.757515	58.940000
3327.830765	57.280000
3328.905326	49.770000
3329.978277	59.170000
3331.049621	55.710000
3332.122275	56.300000
3333.191862	56.300000
3334.262760	61.490000
3335.332051	54.950000
3336.402653	55.520000
3337.471648	52.300000
3338.539037	59.720000
3339.604821	53.350000
3340.674831	54.380000
3341.741778	53.920000
3342.805663	53.630000
3343.872316	57.390000
3344.937364	56.460000
3346.000810	56.710000
3347.064108	61.720000
3348.127261	57.400000
3349.190267	56.280000
3350.253126	56.700000
3351.314384	52.020000
3352.372585	52.410000
3353.435007	58.270000
3354.494372	54.100000
3355.553592	58.950000
3356.614122	52.060000
3357.670142	52.160000
3358.728927	51.160000
3359.783204	58.840000
3360.840244	51.460000
3361.895687	56.190000
3362.952438	55.420000
3364.007592	61.840000
3365.061148	53.630000
3366.113107	56.220000
3367.167828	49.480000
3368.219500	55.380000
3369.271029	54.330000
3370.323867	61.190000
3371.373657	52.790000
3372.424755	55.150000
3373.472808	56.490000
3374.523621	52.580000
3375.571388	55.700000
3376.619013	59.670000
3377.666495	51.010000
3378.712385	59.360000
3379.759583	52.420000
3380.803739	59.400000
3381.850653	58.480000
3382.895975	54.060000
3383.938257	57.230000
3384.980397	57.110000
3386.023845	54.990000
3387.067153	53.940000
3388.108870	58.150000
3389.150446	55.440000
3390.191882	54.450000
3391.231728	52.330000
3392.269987	52.500000
3393.309553	53.390000
3394.348978	54.720000
3395.386817	54.200000
3396.423068	51.710000
3397.459179	52.310000
3398.496598	54.020000
3399.530984	50.640000
3400.566677	50.900000
3401.602231	54.800000
3402.634754	52.140000
3403.670030	50.750000
3404.702275	52.370000
3405.734382	52.320000
3406.764905	46.900000
3407.796736	50.870000
3408.828427	54.360000
3409.857092	50.050000
3410.885618	51.270000
3411.915452	51.870000
3412.945147	52.960000
3413.971817	45.560000
3414.999794	50.730000
3416.024746	45.520000
3417.052448	50.720000
3418.077127	53.340000
3419.103112	52.790000
3420.127517	48.530000
3421.151786	49.510000
3422.174476	54.630000
3423.197030	50.680000
3424.220890	42.720000
3425.241730	52.030000
3426.262435	49.230000
3427.284445	50.120000
3428.303437	49.720000
3429.322294	50.300000
3430.342456	52.520000
3431.359602	48.190000
