-116.707459	38.000000
-114.037859	23.000000
-111.371194	6.666667
-108.705281	20.000000
-106.042300	32.333333
-103.377890	2.666667
-100.716410	45.333333
-98.053501	0.333333
-95.395698	28.000000
-92.736466	33.333333
-90.077982	3.666667
-87.422422	39.000000
-84.765434	25.333333
-82.113544	40.333333
-79.460224	-6.333333
-76.809823	3.000000
-74.157993	-2.333333
-71.511254	17.333333
-68.863086	23.000000
-66.215660	59.333333
-63.571148	20.333333
-60.925208	43.000000
-58.284349	12.000000
-55.642061	59.333333
-53.002682	32.333333
-50.361873	57.666667
-47.721805	74.333333
-45.086809	29.666667
-42.450385	37.000000
-39.816863	67.666667
-37.181913	65.000000
-34.552028	59.000000
-31.918551	59.000000
-29.290136	52.000000
-26.662455	75.000000
-24.033345	79.000000
-21.409292	91.000000
-18.781650	152.666667
-16.159061	95.666667
-13.537204	224.666667
-10.916077	411.000000
-8.295680	934.666667
-5.678172	3059.333333
-3.059235	10030.333333
-0.443183	30865.666667
2.172140	54442.666667
4.786736	29085.000000
7.398449	3925.333333
10.011591	485.333333
12.619699	249.666667
15.231389	138.333333
17.838048	99.666667
20.446135	107.666667
23.053498	80.333333
25.655836	75.000000
28.261752	75.333333
30.862646	29.666667
33.464968	47.666667
36.062273	89.333333
38.663153	54.666667
41.259018	70.333333
43.856312	10.000000
46.452886	35.333333
49.044451	6.000000
51.637444	48.333333
54.227576	20.333333
56.819136	44.000000
59.407836	27.666667
61.997963	84.333333
64.583091	54.666667
67.169647	22.333333
69.755489	14.333333
72.338477	38.666667
74.922891	16.666667
77.500177	48.333333
80.081029	29.000000
82.659032	80.333333
85.236325	13.333333
87.815044	43.666667
90.388781	13.666667
92.963946	41.666667
95.536267	14.666667
98.107880	7.666667
100.676653	11.666667
103.246853	68.333333
105.814215	24.000000
108.383002	38.666667
110.948953	38.666667
113.512069	57.000000
116.078741	37.000000
118.636192	21.666667
121.199328	79.666667
123.757504	50.333333
126.319235	69.000000
128.876009	120.333333
131.434210	146.666667
133.987457	191.000000
136.540007	294.000000
139.096107	420.666667
141.647259	492.666667
144.197714	636.333333
146.747471	711.000000
149.294409	786.000000
151.840652	877.333333
154.388320	829.666667
156.935292	879.000000
159.477329	928.000000
162.018672	888.666667
164.559322	882.000000
167.101398	832.666667
169.640662	826.666667
172.177118	809.333333
174.712882	820.000000
177.250072	838.333333
179.786571	829.000000
182.320264	823.666667
184.851153	831.000000
187.381355	850.000000
189.912981	807.666667
192.441806	852.666667
194.967832	837.000000
197.493172	864.666667
200.019937	866.000000
202.543906	866.666667
205.067190	863.666667
207.589789	847.333333
210.109595	830.333333
212.628718	867.333333
215.147158	843.666667
217.667022	888.666667
220.179885	879.333333
222.696279	855.666667
225.211991	819.000000
227.722813	821.000000
230.235060	847.000000
232.744525	830.666667
235.253311	840.000000
237.761418	856.000000
240.270950	863.000000
242.775601	862.000000
245.279576	835.000000
247.784975	864.666667
250.285499	865.333333
252.789547	918.000000
255.286623	1079.666667
257.787223	1206.666667
260.285051	1467.333333
262.782206	1879.666667
265.278688	2491.333333
267.770307	2746.000000
270.265446	2396.666667
272.757818	1761.333333
275.249520	1376.333333
277.738459	1177.666667
280.228822	1115.333333
282.716422	1040.000000
285.201263	1082.333333
287.689619	1089.333333
290.171035	1075.333333
292.655965	1015.333333
295.136050	930.666667
297.619647	820.333333
300.098401	798.000000
302.578579	802.666667
305.056004	771.000000
307.532766	770.666667
310.008865	783.333333
312.482215	767.000000
314.954903	806.333333
317.426930	861.666667
319.898296	933.000000
322.366917	981.000000
324.834880	956.666667
327.304264	942.333333
329.768826	883.333333
332.236892	877.333333
334.700138	847.000000
337.162726	806.666667
339.624658	818.333333
342.085933	867.000000
344.544474	828.333333
347.004437	816.666667
349.461667	773.666667
351.918243	783.333333
354.374165	824.333333
356.827357	768.333333
359.281972	785.666667
361.731785	791.666667
364.185094	790.333333
366.633605	759.666667
369.081464	789.333333
371.530746	808.000000
373.975234	775.666667
376.421144	792.333333
378.866404	738.666667
381.308946	732.333333
383.750840	763.333333
386.192087	703.666667
388.630618	759.666667
391.070571	703.666667
393.507810	770.666667
395.942337	716.333333
398.380352	735.333333
400.813590	724.000000
403.248249	718.333333
405.678136	722.000000
408.111508	748.000000
410.540110	727.666667
412.968070	729.333333
415.397452	695.000000
417.822068	752.333333
420.248106	730.333333
422.673503	736.666667
425.098260	773.333333
427.518259	771.000000
429.939679	736.666667
432.358402	720.333333
434.778546	687.000000
437.195995	750.666667
439.614864	752.000000
442.031040	733.000000
444.442468	816.000000
446.857374	746.666667
449.269589	784.333333
451.681170	744.000000
454.092117	714.333333
456.500378	710.333333
458.908006	717.000000
461.315002	724.333333
463.721367	689.000000
466.125049	689.666667
468.528101	704.000000
470.930523	738.333333
473.332315	670.000000
475.731430	734.666667
478.131964	716.666667
480.531869	682.333333
482.927051	683.000000
485.325700	727.333333
487.719629	718.333333
490.112932	767.666667
492.505609	698.000000
494.897661	707.000000
497.291131	706.333333
499.679889	679.000000
502.065981	655.000000
504.453493	594.333333
506.840382	595.333333
509.224607	619.000000
511.610250	545.333333
513.993232	566.333333
516.373553	527.666667
518.755293	535.666667
521.134374	570.666667
523.514874	536.333333
525.892716	535.333333
528.267903	547.666667
530.642472	515.333333
533.018459	530.666667
535.391794	527.333333
537.766546	516.333333
540.136613	503.000000
542.506064	452.333333
544.876933	451.666667
547.243122	443.666667
549.610729	453.000000
551.975690	431.333333
554.340038	393.000000
556.703773	452.333333
559.068926	414.666667
561.429407	441.666667
563.791306	404.666667
566.150564	486.666667
568.507185	412.333333
570.867250	465.333333
573.220624	387.333333
575.577443	412.333333
577.931627	400.000000
580.285202	424.666667
582.638170	419.333333
584.988505	413.000000
587.340258	436.000000
589.685334	405.333333
592.035874	430.666667
594.379740	408.000000
596.729068	429.000000
599.073747	439.666667
601.415802	390.333333
603.759274	382.666667
606.100123	395.666667
608.440370	416.333333
610.777996	433.000000
613.119057	400.333333
615.455480	382.000000
617.793320	441.666667
620.128543	395.666667
622.461150	427.000000
624.795173	401.666667
627.126582	361.000000
629.457393	419.000000
631.787607	352.333333
634.117222	392.666667
636.442214	387.333333
638.772648	360.333333
641.098461	363.000000
643.421666	382.000000
645.746288	363.666667
648.068304	386.000000
650.389726	352.666667
652.708546	350.666667
655.028781	322.000000
657.348423	371.666667
659.665464	360.333333
661.981913	372.000000
664.295764	329.000000
666.611031	385.333333
668.923701	373.000000
671.237786	355.000000
673.547271	345.333333
675.858172	370.333333
678.166480	378.333333
680.474200	340.333333
682.783334	357.000000
685.087876	302.000000
687.391832	366.666667
689.695202	319.666667
691.999986	336.666667
694.300184	346.333333
696.601796	353.666667
698.902823	278.666667
701.199269	301.666667
703.497130	300.000000
705.794407	305.666667
708.091101	313.333333
710.383219	318.666667
712.678748	319.666667
714.969703	306.333333
717.262073	305.333333
719.551868	313.333333
721.841082	345.666667
724.129717	357.666667
726.415779	310.333333
728.703256	330.333333
730.988161	283.333333
733.272489	316.333333
735.554248	324.000000
737.837421	306.000000
740.120017	329.000000
742.398057	313.000000
744.677512	307.333333
746.956390	313.666667
749.234694	285.000000
751.508448	342.333333
753.783615	315.333333
756.058209	312.000000
758.330244	338.666667
760.603692	290.333333
762.874582	323.000000
765.142916	316.666667
767.412663	293.000000
769.679856	302.000000
771.946478	333.000000
774.212530	290.000000
776.476031	318.000000
778.740945	317.000000
781.005289	290.000000
783.265104	341.666667
785.526331	323.333333
787.786991	371.666667
790.045105	324.333333
792.300674	324.000000
794.559634	322.333333
796.812095	327.000000
799.069922	292.333333
801.323231	343.333333
803.574000	300.666667
805.826181	256.666667
808.075823	300.666667
810.326878	296.000000
812.573421	273.333333
814.821376	306.333333
817.066797	349.000000
819.313629	297.333333
821.559900	230.666667
823.801666	318.666667
826.046816	264.333333
828.285493	324.333333
830.527552	282.333333
832.765113	300.000000
835.004086	280.000000
837.240532	313.333333
839.478389	243.000000
841.713721	279.666667
843.946530	281.000000
846.180750	294.333333
848.412447	263.333333
850.643590	277.333333
852.874178	241.333333
855.104212	306.000000
857.333692	256.333333
859.558690	276.333333
861.787063	267.666667
864.010956	292.000000
866.236261	259.333333
868.457090	270.333333
870.681291	232.666667
872.901019	251.333333
875.122157	231.333333
877.342745	235.333333
879.560824	244.000000
881.780312	251.333333
883.995334	260.000000
886.209808	241.333333
888.423735	284.000000
890.637115	263.333333
892.849947	230.666667
895.062233	268.333333
897.272016	238.000000
899.481254	280.666667
901.689947	260.666667
903.896141	299.000000
906.103744	262.666667
908.308849	233.333333
910.513411	255.333333
912.715478	232.666667
914.918954	237.333333
917.119936	283.666667
919.320376	279.666667
921.522225	271.000000
923.717683	274.000000
925.916500	213.666667
928.110878	249.000000
930.308614	242.333333
932.501914	299.000000
934.696623	276.333333
936.888846	251.000000
939.080530	275.666667
941.271677	269.666667
943.460341	282.666667
945.648469	279.666667
947.834116	292.333333
950.023115	292.666667
952.207691	296.000000
954.391732	267.666667
956.579123	284.333333
958.758210	318.666667
960.940648	327.000000
963.122552	295.666667
965.301981	285.333333
967.478938	333.333333
969.657303	304.666667
971.837075	327.333333
974.010498	334.333333
976.187267	304.333333
978.359629	318.666667
980.533399	320.333333
982.702765	319.000000
984.875475	333.666667
987.045720	333.666667
989.215436	352.333333
991.384623	366.666667
993.549413	375.666667
995.717544	363.666667
997.881281	341.000000
1000.046424	368.000000
1002.209108	347.666667
1004.371267	345.333333
1006.530969	325.666667
1008.690146	382.333333
1010.850730	347.000000
1013.008859	329.000000
1015.166465	365.333333
1017.323547	369.333333
1019.480105	389.000000
1021.632284	416.666667
1023.785870	383.333333
1025.938934	394.333333
1028.089549	390.333333
1030.241571	389.000000
1032.389219	389.333333
1034.540199	412.333333
1036.686808	441.666667
1038.832898	394.666667
1040.978470	386.333333
1043.125447	402.333333
1045.266135	431.333333
1047.410153	407.333333
1049.551730	392.333333
1051.692791	466.000000
1053.835256	406.666667
1055.971442	418.333333
1058.110953	442.000000
1060.246110	410.333333
1062.384591	422.000000
1064.518718	392.000000
1066.652332	428.333333
1068.787351	419.000000
1070.918020	383.666667
1073.050094	419.000000
1075.179739	398.000000
1077.308872	388.666667
1079.437493	378.666667
1081.565603	392.333333
1083.691287	380.333333
1085.816461	367.666667
1087.943039	390.333333
1090.065279	369.000000
1092.188924	359.666667
1094.308234	340.666667
1096.432774	371.666667
1098.551068	312.333333
1100.670767	317.666667
1102.788047	323.666667
1104.904821	324.333333
1107.021088	288.000000
1109.134939	329.333333
1111.250195	345.000000
1113.361127	333.666667
1115.475372	316.000000
1117.585296	318.666667
1119.696624	307.666667
1121.807447	317.333333
1123.913954	336.000000
1126.023771	322.000000
1128.129273	328.000000
1130.236178	311.333333
1132.336868	308.666667
1134.442770	315.000000
1136.544363	309.000000
1138.647359	297.000000
1140.749854	283.333333
1142.846142	290.333333
1144.947637	316.333333
1147.044830	294.666667
1149.141525	273.666667
1151.237721	280.333333
1153.333420	312.000000
1155.428620	316.000000
1157.521424	313.666667
1159.615631	292.000000
1161.703646	313.666667
1163.796859	294.666667
1165.883884	298.333333
1167.974208	306.333333
1170.060244	287.666667
1172.149579	280.000000
1174.232732	290.333333
1176.317287	331.666667
1178.403244	321.000000
1180.484919	310.000000
1182.567996	286.000000
1184.648687	322.666667
1186.728886	289.333333
1188.808594	274.333333
1190.887811	292.333333
1192.964646	271.000000
1195.039100	289.666667
1197.116845	270.333333
1199.190321	281.666667
1201.265197	285.333333
1203.335806	231.000000
1205.407816	264.333333
1207.477451	272.666667
1209.548486	230.666667
1211.619033	273.333333
1213.685319	261.666667
1215.753006	254.666667
1217.818321	265.333333
1219.885036	250.333333
1221.947495	239.666667
1224.013239	263.333333
1226.074729	270.000000
1228.137620	260.000000
1230.198143	295.333333
1232.258182	287.000000
1234.317739	272.000000
1236.374930	257.333333
1238.431640	282.000000
1240.485986	267.666667
1242.543614	233.666667
1244.598879	255.666667
1246.649903	248.000000
1248.702327	243.000000
1250.754271	224.333333
1252.803857	259.000000
1254.852964	282.000000
1256.901593	256.000000
1258.949743	248.000000
1260.997414	241.666667
1263.040855	244.333333
1265.087572	249.000000
1267.131935	258.000000
1269.175822	279.666667
1271.217357	235.333333
1273.256543	273.333333
1275.299002	276.333333
1277.337238	261.333333
1279.376873	220.333333
1281.416033	253.666667
1283.450974	244.000000
1285.487314	246.666667
1287.521310	256.666667
1289.556703	230.666667
1291.587884	237.333333
1293.620462	247.666667
1295.652569	214.333333
1297.682335	230.666667
1299.713498	241.333333
1301.740455	197.333333
1303.768809	251.333333
1305.792958	254.666667
1307.820373	254.666667
1309.843585	202.666667
1311.868195	262.000000
1313.890471	225.666667
1315.914144	249.333333
1317.935484	273.666667
1319.956356	275.000000
1321.976761	193.666667
1323.992973	250.666667
1326.010582	250.333333
1328.025863	213.000000
1330.044403	281.333333
1332.058754	249.333333
1334.070779	236.333333
1336.086061	248.333333
1338.097158	270.000000
1340.109652	262.000000
1342.117963	215.666667
1344.129529	236.666667
1346.135057	243.333333
1348.143840	269.666667
1350.148445	242.333333
1352.156304	246.333333
1354.163701	204.333333
1356.165067	261.000000
1358.167829	251.333333
1360.170132	220.333333
1362.171975	254.000000
1364.173358	231.666667
1366.172428	243.333333
1368.171039	270.666667
1370.169192	229.666667
1372.166886	281.666667
1374.160418	261.000000
1376.155345	215.333333
1378.149816	254.333333
1380.143830	216.000000
1382.135537	265.666667
1384.126789	233.333333
1386.115735	246.333333
1388.106076	231.666667
1390.095962	211.666667
1392.083544	254.333333
1394.070673	222.666667
1396.055500	252.000000
1398.041722	212.333333
1400.025644	257.666667
1402.009113	262.000000
1403.992129	237.000000
1405.972848	214.666667
1407.954961	246.000000
1409.934778	270.000000
1411.914143	232.333333
1413.889370	277.666667
1415.867835	239.333333
1417.844007	254.000000
1419.819730	224.000000
1421.795003	230.333333
1423.767985	247.333333
1425.740519	249.333333
1427.712605	190.000000
1429.684244	254.000000
1431.651754	233.000000
1433.624338	204.000000
1435.589116	215.666667
1437.558967	236.000000
1439.524694	251.333333
1441.491813	271.000000
1443.456649	254.000000
1445.417365	267.000000
1447.383149	259.666667
1449.342978	244.000000
1451.304201	262.333333
1453.266816	262.666667
1455.225316	258.666667
1457.183373	300.666667
1459.140989	250.333333
1461.098162	232.000000
1463.053060	239.333333
1465.009351	278.666667
1466.963367	275.666667
1468.916942	288.333333
1470.868245	237.333333
1472.820941	238.333333
1474.771364	266.666667
1476.721349	260.333333
1478.670895	282.000000
1480.618172	268.666667
1482.563181	243.000000
1484.509583	268.333333
1486.455547	249.000000
1488.401074	270.000000
1490.344335	256.333333
1492.287161	315.000000
1494.227723	267.666667
1496.169676	242.000000
1498.109367	248.333333
1500.048624	256.000000
1501.987445	281.333333
1503.924007	275.666667
1505.861960	289.000000
1507.797654	266.666667
1509.732915	275.333333
1511.665920	270.666667
1513.598492	257.000000
1515.530632	285.666667
1517.462340	272.666667
1519.391794	288.000000
1521.322639	274.000000
1523.253052	301.000000
1525.179393	271.666667
1527.107125	273.333333
1529.032606	226.000000
1530.957658	258.666667
1532.882281	287.666667
1534.806475	288.333333
1536.728421	296.666667
1538.651758	268.000000
1540.572848	298.333333
1542.491694	303.333333
1544.411930	271.666667
1546.329923	267.000000
1548.247489	280.000000
1550.162813	278.333333
1552.079527	278.000000
1553.992186	296.000000
1555.908049	310.666667
1557.821672	309.333333
1559.733057	286.333333
1561.645832	305.333333
1563.554557	278.666667
1565.464671	262.666667
1567.374362	276.000000
1569.283630	330.333333
1571.190664	271.333333
1573.095465	280.000000
1575.001655	274.666667
1576.905613	284.000000
1578.809150	272.333333
1580.712267	263.333333
1582.613154	309.666667
1584.515430	302.333333
1586.415478	274.000000
1588.316913	316.333333
1590.214315	293.000000
1592.111298	282.333333
1594.007863	296.666667
1595.905816	301.666667
1597.797934	257.333333
1599.693245	249.000000
1601.588139	286.000000
1603.480811	273.666667
1605.373066	304.333333
1607.263102	280.666667
1609.152722	294.333333
1611.041927	264.000000
1612.930717	271.000000
1614.817289	271.000000
1616.705249	297.333333
1618.589192	262.333333
1620.474522	296.666667
1622.359439	302.333333
1624.242142	261.333333
1626.126232	291.666667
1628.006310	257.000000
1629.887776	255.000000
1631.767031	285.666667
1633.647672	311.333333
1635.522509	316.000000
1637.402327	289.000000
1639.278141	256.666667
1641.153544	280.000000
1643.030333	295.333333
1644.901326	280.000000
1646.775500	310.333333
1648.645675	255.666667
1650.519032	276.333333
1652.390184	314.000000
1654.259136	286.000000
1656.129472	303.000000
1657.995816	299.666667
1659.863545	291.000000
1661.729075	280.000000
1663.595991	268.666667
1665.458918	264.000000
1667.323230	311.333333
1669.185346	314.333333
1671.047057	269.333333
1672.910154	273.000000
1674.771055	283.333333
1676.629764	265.333333
1678.488069	300.333333
1680.347759	263.666667
1682.201681	279.000000
1684.058777	295.333333
1685.915470	321.666667
1687.768186	301.333333
1689.624074	245.333333
1691.475988	274.666667
1693.327501	300.666667
1695.178613	278.666667
1697.029325	264.333333
1698.879635	284.666667
1700.727762	296.000000
1702.577273	276.000000
1704.421035	272.666667
1706.269746	262.666667
1708.112711	265.000000
1709.958843	286.666667
1711.801012	273.000000
1713.646347	252.000000
1715.485941	255.333333
1717.326919	266.333333
1719.169280	283.000000
1721.007685	302.000000
1722.847473	281.333333
1724.685086	240.000000
1726.522303	277.666667
1728.357347	280.666667
1730.193774	269.666667
1732.028029	267.333333
1733.861889	258.333333
1735.695355	247.000000
1737.524876	280.000000
1739.357555	255.000000
1741.186290	293.666667
1743.018182	302.666667
1744.846132	305.000000
1746.673691	249.666667
1748.500857	296.000000
1750.327632	271.666667
1752.154015	264.666667
1753.976462	280.666667
1755.802064	289.666667
1757.623731	290.333333
1759.446780	261.333333
1761.267667	290.333333
1763.088166	279.333333
1764.910045	296.000000
1766.726226	288.000000
1768.545558	273.000000
1770.360963	288.666667
1772.179518	266.666667
1773.994148	301.333333
1775.808391	308.333333
1777.622248	281.000000
1779.435718	288.333333
1781.247035	298.333333
1783.059732	266.333333
1784.872044	347.000000
1786.680438	286.333333
1788.490212	313.666667
1790.296072	287.000000
1792.105077	314.666667
1793.910169	329.666667
1795.716642	281.666667
1797.522731	259.333333
1799.324909	233.666667
1801.130232	267.000000
1802.931646	327.333333
1804.734440	319.000000
1806.533328	285.333333
1808.333597	286.000000
1810.133484	280.333333
1811.931229	308.333333
1813.728594	296.000000
1815.525579	256.666667
1817.322183	318.000000
1819.116648	246.000000
1820.912492	271.666667
1822.702681	285.000000
1824.497767	313.000000
1826.287201	320.333333
1828.079771	276.333333
1829.870206	326.333333
1831.658507	340.666667
1833.449943	299.666667
1835.235733	302.333333
1837.022903	299.000000
1838.807941	317.000000
1840.596113	298.333333
1842.380399	307.666667
1844.162555	266.333333
1845.946091	313.333333
1847.727498	293.000000
1849.510284	284.333333
1851.289189	267.333333
1853.069474	312.333333
1854.847632	338.000000
1856.627169	284.000000
1858.404581	311.000000
1860.179869	311.333333
1861.956535	276.000000
1863.731079	305.333333
1865.507001	303.666667
1867.277302	308.333333
1869.050731	323.666667
1870.822040	330.000000
1872.592978	260.333333
1874.365294	325.000000
1876.131996	312.666667
1877.901824	335.666667
1879.667788	323.666667
1881.436875	316.333333
1883.202101	269.000000
1884.966959	324.666667
1886.733194	327.666667
1888.495570	323.000000
1890.257579	358.333333
1892.019220	359.000000
1893.780495	263.333333
1895.541402	298.333333
1897.301943	293.000000
1899.060374	288.333333
1900.818439	265.666667
1902.574397	319.333333
1904.331731	308.666667
1906.088700	302.000000
1907.843562	276.000000
1909.596320	310.666667
1911.348713	311.000000
1913.102483	325.000000
1914.854149	312.333333
1916.603713	323.666667
1918.354652	295.666667
1920.105229	352.000000
1921.851966	298.333333
1923.600080	280.666667
1925.346094	327.000000
1927.093483	295.000000
1928.838775	330.666667
1930.581969	293.666667
1932.326538	256.000000
1934.069012	317.666667
1935.811125	255.000000
1937.552878	316.000000
1939.294271	317.666667
1941.033571	291.333333
1942.772512	308.666667
1944.511094	322.666667
1946.247585	289.666667
1947.983718	302.500000
1949.721225	315.333333
1951.454910	269.333333
1953.189970	304.666667
1954.922941	301.666667
1956.655556	303.666667
1958.387815	292.666667
1960.119717	285.000000
1961.849533	275.333333
1963.577264	313.333333
1965.306370	311.666667
1967.035121	280.333333
1968.761788	306.333333
1970.488101	324.000000
1972.215787	336.666667
1973.937937	285.000000
1975.663188	295.000000
1977.384632	310.333333
1979.109177	320.000000
1980.831641	357.666667
1982.550303	304.000000
1984.272063	333.333333
1985.990021	321.333333
1987.709352	319.666667
1989.424884	326.000000
1991.145236	340.000000
1992.861790	352.000000
1994.574547	296.000000
1996.290400	339.000000
1998.004181	335.666667
1999.717612	276.666667
2001.428972	322.333333
2003.141704	335.666667
2004.850646	323.333333
2006.562680	325.333333
2008.269206	316.666667
2009.978823	335.333333
2011.686374	303.666667
2013.393576	306.666667
2015.098713	338.000000
2016.803504	318.666667
2018.509666	334.333333
2020.212046	325.333333
2021.915797	301.000000
2023.617486	317.333333
2025.318830	301.333333
2027.019828	308.333333
2028.718765	359.666667
2030.419074	346.000000
2032.115608	332.333333
2033.813513	296.666667
2035.509359	333.333333
2037.208291	316.333333
2038.901737	327.666667
2040.596554	315.666667
2042.291029	276.333333
2043.981735	306.000000
2045.675525	344.666667
2047.365548	297.000000
2049.056942	340.666667
2050.746283	317.000000
2052.436994	304.333333
2054.123942	316.000000
2055.810551	332.000000
2057.498529	303.000000
2059.182748	357.333333
2060.868338	322.666667
2062.553588	287.000000
2064.236789	311.000000
2065.921361	314.666667
2067.600470	323.666667
2069.284364	323.666667
2070.962797	344.666667
2072.644308	348.333333
2074.322067	336.333333
2075.999490	294.000000
2077.678282	328.000000
2079.355032	339.000000
2081.029740	326.000000
2082.705817	362.000000
2084.379853	343.000000
2086.053555	345.000000
2087.726921	344.000000
2089.398248	321.000000
2091.069241	327.000000
2092.739900	369.333333
2094.410225	329.666667
2096.080216	333.000000
2097.748171	330.333333
2099.415793	285.000000
2101.081380	332.666667
2102.748336	342.333333
2104.413259	358.333333
2106.077850	360.333333
2107.740409	381.000000
2109.404336	334.333333
2111.066232	342.333333
2112.727798	341.000000
2114.389032	336.000000
2116.048238	323.666667
2117.707113	326.333333
2119.365659	346.333333
2121.023874	346.333333
2122.678367	300.666667
2124.335924	326.333333
2125.993152	358.333333
2127.646658	335.666667
2129.301532	349.000000
2130.952687	327.666667
2132.606905	328.333333
2134.257406	339.333333
2135.909273	303.000000
2137.555732	340.666667
2139.206946	333.000000
2140.854446	355.666667
2142.503313	317.333333
2144.150161	310.333333
2145.796684	324.333333
2147.442881	291.000000
2149.085370	342.333333
2150.730917	352.666667
2152.372757	325.000000
2154.017654	330.333333
2155.658845	328.666667
2157.299714	317.666667
2158.940258	327.333333
2160.578790	318.333333
2162.218688	335.000000
2163.854886	312.666667
2165.492450	365.000000
2167.129692	363.000000
2168.764924	370.333333
2170.399835	371.333333
2172.034423	356.333333
2173.668691	347.333333
2175.299265	351.333333
2176.932891	353.000000
2178.562825	352.333333
2180.194124	342.333333
2181.823418	367.666667
2183.452393	365.333333
2185.081048	346.333333
2186.709384	382.000000
2188.335718	336.333333
2189.961733	329.000000
2191.585746	327.666667
2193.211125	361.666667
2194.834503	352.666667
2196.459246	374.000000
2198.080308	341.666667
2199.701053	337.666667
2201.323163	350.333333
2202.943275	341.666667
2204.561390	340.000000
2206.179190	352.000000
2207.796675	331.666667
2209.413844	358.000000
2211.030698	327.666667
2212.647236	366.333333
2214.261782	369.333333
2215.874335	378.000000
2217.488252	359.666667
2219.100178	332.666667
2220.713467	358.333333
2222.324766	388.666667
2223.934075	343.333333
2225.544748	368.333333
2227.153432	301.333333
2228.761803	357.666667
2230.368188	369.333333
2231.975936	324.666667
2233.581697	361.000000
2235.187147	374.666667
2236.790612	348.666667
2238.395440	363.666667
2239.998284	366.000000
2241.599145	384.666667
2243.201369	333.666667
2244.801611	355.000000
2246.403215	376.000000
2248.001166	378.333333
2249.600480	383.000000
2251.197814	370.000000
2252.794840	354.333333
2254.393228	392.333333
2255.987967	380.666667
2257.580729	362.000000
2259.174854	370.333333
2260.770340	349.666667
2262.362181	394.333333
2263.953716	392.000000
2265.546613	372.666667
2267.134200	381.000000
2268.726483	409.666667
2270.313460	367.666667
2271.903464	372.333333
2273.488164	387.666667
2275.077558	383.000000
2276.661650	395.666667
2278.247102	327.000000
2279.830586	379.333333
2281.417095	395.666667
2282.999971	355.666667
2284.582544	363.000000
2286.164813	375.666667
2287.743452	362.333333
2289.325116	361.000000
2290.903151	399.000000
2292.484209	355.333333
2294.061640	375.333333
2295.637108	395.333333
2297.215598	342.666667
2298.790464	363.333333
2300.365029	348.666667
2301.939294	371.666667
2303.513258	357.333333
2305.086921	392.000000
2306.660285	343.000000
2308.230030	347.666667
2309.799476	317.000000
2311.371940	366.333333
2312.939130	344.333333
2314.509338	347.333333
2316.075931	351.666667
2317.643884	385.000000
2319.209881	377.333333
2320.775581	389.000000
2322.340983	358.333333
2323.904432	389.666667
2325.469240	355.000000
2327.030440	420.000000
2328.594654	458.333333
2330.153606	433.333333
2331.715573	409.666667
2333.275588	443.333333
2334.835309	366.333333
2336.393080	390.666667
2337.950556	375.666667
2339.507738	369.000000
2341.062972	375.000000
2342.617913	368.000000
2344.172559	399.333333
2345.726912	407.666667
2347.280972	362.333333
2348.834737	363.333333
2350.386558	383.000000
2351.936437	361.666667
2353.489323	382.333333
2355.036966	375.666667
2356.587618	377.666667
2358.134678	375.333333
2359.683096	380.333333
2361.231223	372.666667
2362.775761	365.000000
2364.321657	436.666667
2365.865615	373.333333
2367.410930	361.333333
2368.952660	359.333333
2370.495747	364.666667
2372.036898	374.666667
2373.577760	367.000000
2375.118333	396.666667
2376.658617	398.666667
2378.198612	382.666667
2379.735029	369.666667
2381.274447	382.666667
2382.810287	389.000000
2384.347485	359.666667
2385.881107	411.666667
2387.417729	383.333333
2388.952421	373.000000
2390.485183	384.333333
2392.017658	390.666667
2393.548205	381.666667
2395.081750	400.666667
2396.610084	404.000000
2398.139774	370.000000
2399.669179	376.333333
2401.198299	374.000000
2402.727134	403.000000
2404.250763	388.333333
2405.779028	396.333333
2407.302091	378.000000
2408.829787	384.333333
2410.350644	407.666667
2411.876134	412.666667
2413.398063	368.666667
2414.921348	409.666667
2416.442711	366.000000
2417.962155	391.666667
2419.482954	399.333333
2421.001835	348.000000
2422.520433	420.333333
2424.037114	419.666667
2425.555149	405.666667
2427.072903	396.333333
2428.587106	380.666667
2430.101028	409.000000
2431.614670	398.000000
2433.129667	346.666667
2434.641115	417.666667
2436.153918	400.000000
2437.664807	390.333333
2439.175418	403.333333
2440.684117	420.000000
2442.195802	417.000000
2443.703944	402.333333
2445.211808	422.333333
2446.719394	421.333333
2448.223439	418.333333
2449.730469	416.333333
2451.235591	434.666667
2452.740436	472.000000
2454.243374	403.000000
2455.746036	481.000000
2457.248421	451.333333
2458.748901	445.333333
2460.250734	456.333333
2461.750662	424.666667
2463.250315	434.333333
2464.749693	421.333333
2466.247168	415.000000
2467.742741	409.000000
2469.241294	391.666667
2470.736319	414.666667
2472.232696	413.333333
2473.725547	409.666667
2475.219751	383.000000
2476.713681	443.333333
2478.204087	412.000000
2479.697471	426.000000
2481.188957	377.666667
2482.678546	443.000000
2484.167863	474.333333
2485.655284	436.666667
2487.145681	438.333333
2488.632560	432.000000
2490.120790	417.666667
2491.605503	431.333333
2493.089947	411.000000
2494.575741	393.666667
2496.059644	432.666667
2497.544897	434.666667
2499.025017	410.666667
2500.508110	421.666667
2501.989312	430.666667
2503.470245	426.000000
2504.949289	388.666667
2506.428064	424.333333
2507.906571	415.333333
2509.384810	477.666667
2510.862780	426.666667
2512.337245	408.666667
2513.814680	421.333333
2515.288611	394.666667
2516.763892	430.666667
2518.238906	423.333333
2519.710419	417.666667
2521.183283	422.000000
2522.654264	456.000000
2524.126595	438.666667
2525.593812	432.666667
2527.063996	397.000000
2528.532299	415.000000
2530.000337	434.000000
2531.468110	418.666667
2532.935618	433.333333
2534.402861	462.333333
2535.866612	421.666667
2537.331713	372.666667
2538.794937	424.666667
2540.259510	459.000000
2541.720595	440.000000
2543.183029	411.333333
2544.645200	441.666667
2546.103885	431.333333
2547.567141	433.000000
2549.025302	443.000000
2550.484811	447.000000
2551.939226	440.666667
2553.398212	441.000000
2554.855326	462.333333
2556.310569	440.000000
2557.765550	464.333333
2559.218663	439.333333
2560.673124	404.000000
2562.125715	428.333333
2563.578047	436.666667
2565.028512	443.333333
2566.481932	451.333333
2567.930270	426.666667
2569.381563	433.000000
2570.830991	458.000000
2572.276946	479.000000
2573.725856	466.333333
2575.171296	480.333333
2576.618083	485.000000
2578.063008	481.000000
2579.507674	472.666667
2580.953688	437.666667
2582.396236	529.333333
2583.840131	464.666667
2585.280561	445.666667
2586.722338	463.666667
2588.162256	442.333333
2589.603521	477.000000
2591.041324	488.000000
2592.482077	489.666667
2593.917768	443.666667
2595.356408	445.000000
2596.793190	429.666667
2598.228117	494.666667
2599.665991	469.000000
2601.098808	478.000000
2602.532972	415.666667
2603.965282	441.333333
2605.398938	433.000000
2606.830741	455.333333
2608.262290	446.333333
2609.693587	455.666667
2611.123031	464.000000
2612.552223	467.000000
2613.979565	459.333333
2615.408252	429.000000
2616.836688	427.666667
2618.261676	442.000000
2619.688011	429.333333
2621.112497	475.000000
2622.538329	476.000000
2623.960717	453.000000
2625.384451	500.333333
2626.806338	481.333333
2628.227976	483.666667
2629.647768	492.000000
2631.068906	486.333333
2632.489794	446.666667
2633.907244	475.333333
2635.327633	494.666667
2636.744585	451.333333
2638.161288	448.666667
2639.577743	481.333333
2640.993950	456.333333
2642.409909	496.333333
2643.824027	475.000000
2645.237897	494.666667
2646.649929	486.000000
2648.063304	485.666667
2649.473250	455.666667
2650.886132	467.333333
2652.295585	463.666667
2653.704792	453.000000
2655.112163	470.000000
2656.522468	483.000000
2657.930938	481.000000
2659.337572	487.000000
2660.743961	477.333333
2662.148516	472.000000
2663.554415	478.666667
2664.958481	486.333333
2666.362302	478.000000
2667.765879	469.000000
2669.167625	463.666667
2670.570714	473.000000
2671.970385	478.666667
2673.371400	512.666667
2674.768999	481.333333
2676.169527	494.000000
2677.566641	480.000000
2678.965098	499.666667
2680.361728	537.333333
2681.758115	547.000000
2683.154260	480.333333
2684.548579	463.666667
2685.944241	507.000000
2687.336494	503.666667
2688.730089	501.000000
2690.121860	504.000000
2691.514974	522.666667
2692.906264	488.666667
2694.295731	494.666667
2695.684958	472.000000
2697.073946	498.333333
2698.464275	483.333333
2699.849621	457.666667
2701.237890	504.666667
2702.624339	521.333333
2704.010549	520.666667
2705.396520	478.000000
2706.779093	517.666667
2708.163008	480.333333
2709.546685	497.333333
2710.930123	485.666667
2712.310167	512.000000
2713.691551	493.666667
2715.071121	526.666667
2716.452031	523.000000
2717.831127	505.000000
2719.208409	476.333333
2720.587032	499.333333
2721.963842	497.333333
2723.340415	517.333333
2724.716753	479.000000
2726.091280	521.000000
2727.467147	443.333333
2728.839627	532.333333
2730.215023	506.000000
2731.585459	487.333333
2732.957236	521.000000
2734.328778	544.000000
2735.698512	515.000000
2737.069587	516.666667
2738.438853	508.666667
2739.807886	467.000000
2741.175113	503.666667
2742.542106	512.000000
2743.908867	538.666667
2745.275396	508.666667
2746.640119	525.333333
2748.004610	539.666667
2749.368870	538.666667
2750.732897	514.666667
2752.096693	544.666667
2753.457115	537.333333
2754.820447	518.000000
2756.178837	500.666667
2757.540137	533.000000
2758.898067	487.666667
2760.258905	479.333333
2761.617944	479.000000
2762.973614	523.666667
2764.332192	546.333333
2765.687403	501.333333
2767.042385	504.666667
2768.395571	501.666667
2769.751662	485.666667
2771.104390	504.666667
2772.456890	546.333333
2773.809161	498.666667
2775.162770	524.666667
2776.513019	512.333333
2777.861473	521.333333
2779.212833	536.333333
2780.560833	495.666667
2781.910171	537.333333
2783.257717	497.000000
2784.605037	517.666667
2785.952130	535.000000
2787.297432	561.333333
2788.642507	518.000000
2789.987357	558.333333
2791.331981	529.666667
2792.673253	533.000000
2794.015863	518.000000
2795.358247	560.666667
2796.700406	538.666667
2798.039216	563.666667
2799.380926	598.000000
2800.719288	573.000000
2802.058986	553.666667
2803.396900	584.666667
2804.733029	566.333333
2806.068934	541.000000
2807.406177	552.333333
2808.741636	566.666667
2810.076872	594.333333
2811.410325	559.000000
2812.745115	573.666667
2814.076565	596.333333
2815.410910	584.000000
2816.740357	589.333333
2818.071141	590.666667
2819.401703	527.000000
2820.730486	580.666667
2822.060605	570.000000
2823.388946	544.666667
2824.717066	536.666667
2826.043408	580.000000
2827.371087	530.666667
2828.695432	558.333333
2830.021114	540.666667
2831.345020	561.000000
2832.668707	576.333333
2833.993729	558.333333
2835.315421	569.666667
2836.636895	549.333333
2837.958150	546.000000
2839.279186	543.000000
2840.598449	570.333333
2841.919048	546.000000
2843.237876	555.666667
2844.556485	575.333333
2845.873323	598.000000
2847.189944	557.333333
2848.506348	520.000000
2849.820982	533.666667
2851.136952	528.333333
2852.449601	540.666667
2853.763585	563.666667
2855.077353	553.000000
2856.390904	540.333333
2857.702689	506.666667
2859.012707	597.666667
2860.324060	524.666667
2861.632098	549.000000
2862.941470	579.333333
2864.250628	573.000000
2865.559570	584.000000
2866.866748	554.000000
2868.172164	598.333333
2869.478913	548.000000
2870.783901	565.000000
2872.088675	599.000000
2873.391687	565.333333
2874.697580	627.666667
2875.998619	614.666667
2877.300992	566.333333
2878.601605	594.666667
2879.903552	566.000000
2881.205285	527.666667
2882.503715	598.333333
2883.803478	537.666667
2885.101484	517.333333
2886.399278	548.666667
2887.695316	621.666667
2888.992687	535.333333
2890.288302	572.000000
2891.583706	574.000000
2892.878899	552.666667
2894.170795	542.666667
2895.465567	563.666667
2896.757042	520.333333
2898.049850	553.000000
2899.342448	558.000000
2900.631752	567.000000
2901.922388	585.000000
2903.211273	572.333333
2904.501490	577.333333
2905.788416	608.000000
2907.076674	588.000000
2908.363183	572.333333
2909.649483	591.666667
2910.935576	606.666667
2912.219920	582.000000
2913.507135	587.333333
2914.789524	584.666667
2916.073245	577.000000
2917.355220	585.000000
2918.636987	559.000000
2919.917010	580.000000
2921.199902	611.000000
2922.481049	542.333333
2923.758914	609.333333
2925.039648	578.000000
2926.317101	573.333333
2927.594348	601.333333
2928.869853	609.666667
2930.148226	549.000000
2931.421785	602.000000
2932.698211	598.666667
2933.972896	633.333333
2935.245840	582.000000
2936.520116	612.666667
2937.792652	620.000000
2939.064983	599.000000
2940.334042	612.666667
2941.605966	578.000000
2942.876152	611.000000
2944.146134	648.666667
2945.415913	638.000000
2946.683956	620.666667
2947.950262	580.666667
2949.216367	595.000000
2950.483801	605.666667
2951.749501	626.333333
2953.014998	599.333333
2954.280293	570.666667
2955.542323	603.000000
2956.805683	604.000000
2958.068842	600.000000
2959.330269	555.666667
2960.593025	567.333333
2961.854049	595.333333
2963.113343	551.666667
2964.372437	623.666667
2965.631330	610.333333
2966.890023	633.333333
2968.148516	589.000000
2969.405280	608.333333
2970.661844	600.333333
2971.916681	615.000000
2973.172846	623.000000
2974.425757	632.666667
2975.679997	577.000000
2976.934037	623.333333
2978.186353	598.000000
2979.438469	609.333333
2980.688861	609.333333
2981.942108	603.333333
2983.190578	631.000000
2984.441903	635.666667
2985.689978	626.333333
2986.937857	625.000000
2988.185538	605.666667
2989.433022	674.333333
2990.678785	599.666667
2991.924352	634.000000
2993.171246	629.333333
2994.414896	619.333333
2995.659874	623.666667
2996.901608	658.333333
2998.146194	667.333333
2999.389061	639.666667
3000.628687	673.666667
3001.871163	620.000000
3003.110399	643.000000
3004.350963	614.666667
3005.589810	697.666667
3006.828463	678.666667
3008.065400	681.000000
3009.303665	699.666667
3010.540214	644.000000
3011.776570	666.666667
3013.012732	658.666667
3014.247180	689.666667
3015.481436	641.666667
3016.715498	672.333333
3017.947848	697.000000
3019.178486	682.666667
3020.411970	742.000000
3021.643742	698.666667
3022.873804	664.666667
3024.103673	658.666667
3025.331833	734.333333
3026.561320	759.000000
3027.789097	639.000000
3029.016683	687.000000
3030.245596	723.000000
3031.469766	716.666667
3032.696779	697.333333
3033.920568	732.000000
3035.145684	719.333333
3036.369093	650.333333
3037.592312	631.000000
3038.813826	661.333333
3040.038181	680.000000
3041.257801	668.000000
3042.478747	704.666667
3043.699504	710.666667
3044.918557	672.333333
3046.138935	692.666667
3047.356097	722.666667
3048.574585	680.000000
3049.791370	675.666667
3051.007968	682.333333
3052.224377	656.000000
3053.437574	677.333333
3054.653608	694.666667
3055.866430	721.000000
3057.082089	677.000000
3058.293025	710.000000
3059.505286	659.333333
3060.717361	682.000000
3061.929248	745.666667
3063.139439	690.000000
3064.349443	704.666667
3065.559261	683.000000
3066.767383	684.000000
3067.975320	680.666667
3069.181561	713.000000
3070.389127	680.333333
3071.594998	690.000000
3072.800685	699.666667
3074.006186	669.666667
3075.209994	684.666667
3076.415126	658.000000
3077.618565	689.333333
3078.820313	675.666667
3080.021876	656.000000
3081.223256	633.333333
3082.424452	669.333333
3083.623958	649.333333
3084.823281	690.333333
3086.023927	631.333333
3087.222883	642.000000
3088.418645	654.000000
3089.617236	640.333333
3090.812633	632.333333
3092.009353	660.333333
3093.202881	653.000000
3094.399237	629.000000
3095.593907	654.333333
3096.785385	616.000000
3097.981196	687.666667
3099.172312	609.666667
3100.364752	677.000000
3101.554004	657.666667
3102.746081	642.666667
3103.936475	660.000000
3105.123683	666.000000
3106.312213	653.000000
3107.502066	674.333333
3108.688735	678.666667
3109.875223	655.000000
3111.061533	671.333333
3112.249164	681.666667
3113.433613	685.000000
3114.616383	668.666667
3115.801975	683.333333
3116.985888	650.666667
3118.168122	685.333333
3119.350177	653.666667
3120.532054	718.333333
3121.713753	714.333333
3122.893775	726.000000
3124.072120	699.000000
3125.253285	672.333333
3126.431275	706.000000
3127.609089	654.333333
3128.786725	694.000000
3129.962686	698.666667
3131.138470	666.000000
3132.315576	690.666667
3133.491007	668.666667
3134.664765	636.333333
3135.836850	647.000000
3137.010257	678.666667
3138.183487	672.666667
3139.355046	712.333333
3140.527925	710.333333
3141.697637	712.666667
3142.868670	706.000000
3144.038033	687.000000
3145.205725	671.333333
3146.376233	728.666667
3147.542083	748.666667
3148.712241	691.333333
3149.877743	721.000000
3151.043070	741.666667
3152.208224	765.666667
3153.373205	748.333333
3154.539505	728.666667
3155.701153	772.333333
3156.864120	760.000000
3158.026915	739.000000
3159.189537	721.000000
3160.350494	701.333333
3161.511278	765.333333
3162.671890	745.666667
3163.830838	747.333333
3164.989615	747.666667
3166.148220	726.000000
3167.306652	751.000000
3168.464914	759.333333
3169.621513	763.666667
3170.776451	761.000000
3171.932708	725.000000
3173.087304	778.000000
3174.241730	759.000000
3175.394496	743.333333
3176.547091	770.666667
3177.699517	774.000000
3178.851773	779.666667
3180.003858	734.666667
3181.152798	732.333333
3182.304544	791.333333
3183.454632	725.333333
3184.603064	770.333333
3185.751326	785.000000
3186.899420	776.666667
3188.047345	735.000000
3189.193614	787.000000
3190.339715	780.666667
3191.484162	744.666667
3192.628441	760.000000
3193.772552	785.333333
3194.917980	740.666667
3196.060270	749.000000
3197.202393	730.666667
3198.344348	739.333333
3199.486136	800.333333
3200.627757	753.333333
3201.766243	755.000000
3202.906046	796.000000
3204.047167	768.000000
3205.185153	771.000000
3206.321490	718.666667
3207.457661	758.000000
3208.595149	734.333333
3209.730989	743.000000
3210.868146	764.666667
3212.000690	739.000000
3213.137516	754.333333
3214.269730	723.666667
3215.403261	755.000000
3216.536628	752.666667
3217.666867	773.333333
3218.799904	745.000000
3219.929815	764.333333
3221.061042	772.000000
3222.189145	766.333333
3223.320044	772.333333
3224.449299	779.000000
3225.576911	805.666667
3226.701400	835.333333
3227.830165	826.666667
3228.955808	791.666667
3230.081289	785.666667
3231.205128	818.333333
3232.331761	847.666667
3233.453797	787.666667
3234.577149	804.666667
3235.700339	752.333333
3236.823366	826.333333
3237.944755	793.000000
3239.065981	774.000000
3240.185570	783.666667
3241.304997	794.000000
3242.422786	820.000000
3243.543367	759.666667
3244.660835	821.333333
3245.778142	809.000000
3246.895289	833.666667
3248.010800	807.000000
3249.127625	782.000000
3250.241341	787.000000
3251.357846	785.333333
3252.472717	810.000000
3253.584479	816.333333
3254.696081	814.000000
3255.808999	800.666667
3256.921757	837.000000
3258.031409	848.333333
3259.142376	796.000000
3260.253184	779.000000
3261.362360	801.000000
3262.469906	853.333333
3263.578765	774.666667
3264.687467	846.333333
3265.793066	871.333333
3266.899979	852.333333
3268.005263	849.666667
3269.111861	835.666667
3270.215359	887.333333
3271.320172	825.000000
3272.424827	829.333333
3273.526383	866.666667
3274.627783	863.666667
3275.730497	844.666667
3276.833055	830.333333
3277.932516	844.333333
3279.034761	857.666667
3280.133910	821.000000
3281.231435	805.000000
3282.328804	842.000000
3283.428955	831.000000
3284.526014	822.333333
3285.622917	839.000000
3286.719665	850.333333
3287.811855	801.333333
3288.908293	805.666667
3290.003109	795.000000
3291.097771	807.333333
3292.190811	811.000000
3293.283696	848.000000
3294.374962	794.000000
3295.467539	796.333333
3296.558497	809.333333
3297.647835	807.666667
3298.737020	849.666667
3299.827518	820.333333
3300.914931	826.666667
3302.002191	865.666667
3303.090764	828.000000
3304.179185	857.666667
3305.263058	850.333333
3306.351173	848.666667
3307.436206	851.666667
3308.519624	830.333333
3309.604354	887.333333
3310.687468	859.000000
3311.771895	873.333333
3312.853243	875.666667
3313.935903	867.000000
3315.016949	825.000000
3316.097844	887.000000
3317.177125	882.666667
3318.256256	856.333333
3319.336699	883.666667
3320.414067	847.666667
3321.492747	886.000000
3322.569815	905.000000
3323.646734	861.333333
3324.722041	847.333333
3325.797199	862.333333
3326.873668	938.666667
3327.947067	868.000000
3329.020317	937.666667
3330.094877	921.666667
3331.167829	911.000000
3332.239172	883.000000
3333.311826	905.000000
3334.381414	922.333333
3335.452312	894.000000
3336.521603	897.333333
3337.592205	956.333333
3338.661200	920.000000
3339.728589	913.000000
3340.794373	881.333333
3341.864383	953.666667
3342.931330	937.000000
3343.995215	886.000000
3345.061868	933.333333
3346.126916	923.666667
3347.190361	911.333333
3348.253660	965.666667
3349.316812	983.666667
3350.379818	937.666667
3351.442678	911.666667
3352.503936	929.666667
3353.562137	942.000000
3354.624558	934.666667
3355.683924	989.000000
3356.743144	941.000000
3357.803673	900.333333
3358.859694	914.666667
3359.918478	1004.666667
3360.972755	916.333333
3362.029796	951.000000
3363.085238	959.333333
3364.141990	918.666667
3365.197143	978.000000
3366.250699	977.666667
3367.302659	923.666667
3368.357380	933.333333
3369.409052	987.000000
3370.460581	933.000000
3371.513418	959.333333
3372.563208	933.000000
3373.614307	940.000000
3374.662360	965.666667
3375.713172	963.000000
3376.760940	946.666667
3377.808565	971.333333
3378.856047	921.000000
3379.901937	990.666667
3380.949135	984.000000
3381.993291	898.666667
3383.040205	940.666667
3384.085527	985.666667
3385.127808	986.666667
3386.169949	973.666667
3387.213397	952.666667
3388.256704	914.666667
3389.298422	982.000000
3390.339998	953.333333
3391.381433	965.666667
3392.421280	1022.333333
3393.459538	991.000000
3394.499104	941.666667
3395.538530	933.666667
3396.576368	938.000000
3397.612619	941.333333
3398.648731	949.666667
3399.686150	889.000000
3400.720536	920.000000
3401.756229	965.666667
3402.791783	945.000000
3403.824306	888.333333
3404.859582	958.000000
3405.891827	905.666667
3406.923934	950.666667
3407.954457	999.666667
3408.986287	964.000000
3410.017979	918.000000
3411.046643	1007.000000
3412.075170	1034.666667
3413.105003	978.333333
3414.134699	922.666667
3415.161369	975.333333
3416.189346	983.333333
3417.214298	993.000000
3418.242000	959.000000
3419.266679	964.666667
3420.292664	963.333333
3421.317069	1013.000000
3422.341338	954.666667
3423.364028	1017.000000
3424.386582	1011.666667
3425.410442	1037.666667
3426.431282	984.666667
3427.451986	1040.000000
3428.473997	983.000000
3429.492989	989.333333
3430.511845	1010.000000
3431.532008	1007.333333
3432.549154	959.666667
