-116.707459	32.666667
-114.037859	21.333333
-111.371194	42.666667
-108.705281	41.333333
-106.042300	60.000000
-103.377890	19.666667
-100.716410	29.333333
-98.053501	39.333333
-95.395698	27.000000
-92.736466	36.333333
-90.077982	19.333333
-87.422422	53.000000
-84.765434	11.666667
-82.113544	61.000000
-79.460224	-24.000000
-76.809823	9.000000
-74.157993	10.666667
-71.511254	4.000000
-68.863086	31.333333
-66.215660	47.666667
-63.571148	19.333333
-60.925208	35.666667
-58.284349	16.666667
-55.642061	67.666667
-53.002682	54.000000
-50.361873	55.000000
-47.721805	38.000000
-45.086809	31.333333
-42.450385	52.666667
-39.816863	62.333333
-37.181913	60.000000
-34.552028	68.666667
-31.918551	74.000000
-29.290136	47.000000
-26.662455	82.666667
-24.033345	97.333333
-21.409292	124.333333
-18.781650	117.666667
-16.159061	124.333333
-13.537204	239.000000
-10.916077	387.666667
-8.295680	973.333333
-5.678172	3045.333333
-3.059235	9606.666667
-0.443183	27357.666667
2.172140	53844.000000
4.786736	29493.666667
7.398449	3565.333333
10.011591	437.000000
12.619699	254.333333
15.231389	129.666667
17.838048	90.000000
20.446135	91.333333
23.053498	103.666667
25.655836	93.666667
28.261752	102.666667
30.862646	59.333333
33.464968	57.000000
36.062273	76.666667
38.663153	61.333333
41.259018	59.000000
43.856312	27.666667
46.452886	63.333333
49.044451	34.000000
51.637444	34.333333
54.227576	22.000000
56.819136	49.666667
59.407836	21.666667
61.997963	63.666667
64.583091	56.666667
67.169647	32.333333
69.755489	24.333333
72.338477	56.333333
74.922891	34.666667
77.500177	27.666667
80.081029	36.333333
82.659032	87.000000
85.236325	30.333333
87.815044	35.666667
90.388781	34.333333
92.963946	48.000000
95.536267	42.333333
98.107880	-4.000000
100.676653	22.000000
103.246853	60.666667
105.814215	14.666667
108.383002	38.666667
110.948953	35.666667
113.512069	59.666667
116.078741	44.333333
118.636192	26.333333
121.199328	56.000000
123.757504	86.000000
126.319235	101.666667
128.876009	134.333333
131.434210	167.333333
133.987457	221.333333
136.540007	323.000000
139.096107	453.666667
141.647259	513.000000
144.197714	640.000000
146.747471	743.000000
149.294409	845.000000
151.840652	852.333333
154.388320	817.000000
156.935292	937.666667
159.477329	925.000000
162.018672	914.333333
164.559322	853.333333
167.101398	837.333333
169.640662	849.000000
172.177118	873.333333
174.712882	806.666667
177.250072	818.666667
179.786571	801.000000
182.320264	797.000000
184.851153	799.666667
187.381355	838.333333
189.912981	813.666667
192.441806	829.000000
194.967832	809.000000
197.493172	824.000000
200.019937	837.666667
202.543906	807.666667
205.067190	839.333333
207.589789	813.333333
210.109595	826.000000
212.628718	808.333333
215.147158	829.333333
217.667022	816.333333
220.179885	859.000000
222.696279	858.666667
225.211991	843.333333
227.722813	794.333333
230.235060	803.333333
232.744525	816.000000
235.253311	777.000000
237.761418	790.000000
240.270950	773.000000
242.775601	863.666667
245.279576	841.333333
247.784975	843.000000
250.285499	858.000000
252.789547	944.000000
255.286623	1072.666667
257.787223	1218.333333
260.285051	1457.333333
262.782206	1950.666667
265.278688	2546.333333
267.770307	2824.666667
270.265446	2435.333333
272.757818	1850.000000
275.249520	1379.333333
277.738459	1193.666667
280.228822	1099.666667
282.716422	1053.666667
285.201263	1074.666667
287.689619	1131.666667
290.171035	1081.333333
292.655965	1026.333333
295.136050	926.333333
297.619647	785.000000
300.098401	754.666667
302.578579	805.666667
305.056004	793.000000
307.532766	807.000000
310.008865	801.666667
312.482215	799.333333
314.954903	865.333333
317.426930	828.333333
319.898296	932.666667
322.366917	1054.333333
324.834880	999.333333
327.304264	942.666667
329.768826	930.000000
332.236892	867.333333
334.700138	859.666667
337.162726	862.000000
339.624658	813.666667
342.085933	823.666667
344.544474	833.666667
347.004437	814.000000
349.461667	784.000000
351.918243	806.666667
354.374165	851.666667
356.827357	795.666667
359.281972	832.666667
361.731785	795.333333
364.185094	788.000000
366.633605	832.000000
369.081464	797.666667
371.530746	769.666667
373.975234	784.000000
376.421144	790.000000
378.866404	719.000000
381.308946	742.333333
383.750840	739.000000
386.192087	736.333333
388.630618	773.000000
391.070571	758.333333
393.507810	743.666667
395.942337	737.666667
398.380352	717.000000
400.813590	775.333333
403.248249	759.666667
405.678136	766.666667
408.111508	755.666667
410.540110	784.000000
412.968070	720.000000
415.397452	710.000000
417.822068	743.666667
420.248106	718.333333
422.673503	761.000000
425.098260	762.000000
427.518259	740.000000
429.939679	783.333333
432.358402	784.666667
434.778546	756.000000
437.195995	769.666667
439.614864	713.666667
442.031040	755.333333
444.442468	753.000000
446.857374	738.000000
449.269589	762.333333
451.681170	720.000000
454.092117	751.333333
456.500378	756.666667
458.908006	730.666667
461.315002	737.000000
463.721367	712.666667
466.125049	726.000000
468.528101	708.000000
470.930523	750.333333
473.332315	708.666667
475.731430	746.333333
478.131964	712.000000
480.531869	707.666667
482.927051	722.666667
485.325700	785.333333
487.719629	722.333333
490.112932	767.000000
492.505609	679.333333
494.897661	706.000000
497.291131	705.666667
499.679889	699.000000
502.065981	660.666667
504.453493	653.666667
506.840382	608.333333
509.224607	585.666667
511.610250	565.000000
513.993232	569.000000
516.373553	539.000000
518.755293	555.333333
521.134374	566.666667
523.514874	577.000000
525.892716	512.333333
528.267903	543.000000
530.642472	541.333333
533.018459	556.333333
535.391794	548.000000
537.766546	522.666667
540.136613	497.666667
542.506064	480.333333
544.876933	478.333333
547.243122	459.000000
549.610729	431.000000
551.975690	436.333333
554.340038	462.333333
556.703773	429.333333
559.068926	455.000000
561.429407	468.333333
563.791306	439.000000
566.150564	442.666667
568.507185	484.333333
570.867250	477.666667
573.220624	412.000000
575.577443	430.000000
577.931627	446.000000
580.285202	421.666667
582.638170	414.000000
584.988505	422.666667
587.340258	422.000000
589.685334	432.666667
592.035874	420.333333
594.379740	419.000000
596.729068	412.000000
599.073747	433.333333
601.415802	423.666667
603.759274	429.333333
606.100123	424.333333
608.440370	419.000000
610.777996	427.666667
613.119057	389.333333
615.455480	408.666667
617.793320	386.333333
620.128543	393.000000
622.461150	404.000000
624.795173	381.666667
627.126582	382.333333
629.457393	380.000000
631.787607	389.000000
634.117222	427.000000
636.442214	398.000000
638.772648	398.666667
641.098461	372.666667
643.421666	379.333333
645.746288	389.000000
648.068304	353.666667
650.389726	353.000000
652.708546	367.000000
655.028781	349.333333
657.348423	423.333333
659.665464	371.333333
661.981913	380.000000
664.295764	381.666667
666.611031	386.000000
668.923701	375.333333
671.237786	390.000000
673.547271	408.000000
675.858172	382.333333
678.166480	386.000000
680.474200	371.000000
682.783334	383.333333
685.087876	315.666667
687.391832	355.333333
689.695202	357.333333
691.999986	353.666667
694.300184	335.000000
696.601796	345.000000
698.902823	315.333333
701.199269	319.000000
703.497130	337.666667
705.794407	313.000000
708.091101	340.666667
710.383219	337.000000
712.678748	319.666667
714.969703	325.666667
717.262073	300.333333
719.551868	346.666667
721.841082	320.000000
724.129717	345.333333
726.415779	295.333333
728.703256	348.000000
730.988161	309.333333
733.272489	329.666667
735.554248	316.000000
737.837421	308.333333
740.120017	311.000000
742.398057	328.000000
744.677512	288.666667
746.956390	331.000000
749.234694	315.333333
751.508448	340.000000
753.783615	333.666667
756.058209	319.666667
758.330244	321.333333
760.603692	325.333333
762.874582	332.333333
765.142916	353.000000
767.412663	331.666667
769.679856	291.000000
771.946478	337.333333
774.212530	323.666667
776.476031	320.333333
778.740945	341.333333
781.005289	293.000000
783.265104	327.666667
785.526331	359.000000
787.786991	365.666667
790.045105	342.333333
792.300674	311.333333
794.559634	330.666667
796.812095	339.333333
799.069922	303.000000
801.323231	324.666667
803.574000	306.333333
805.826181	305.000000
808.075823	319.666667
810.326878	324.333333
812.573421	279.666667
814.821376	306.333333
817.066797	342.666667
819.313629	330.666667
821.559900	287.333333
823.801666	311.333333
826.046816	287.000000
828.285493	323.333333
830.527552	286.333333
832.765113	296.000000
835.004086	274.666667
837.240532	266.666667
839.478389	265.000000
841.713721	303.000000
843.946530	258.000000
846.180750	290.333333
848.412447	271.333333
850.643590	291.333333
852.874178	238.666667
855.104212	281.333333
857.333692	276.000000
859.558690	311.333333
861.787063	258.333333
864.010956	301.333333
866.236261	270.000000
868.457090	281.000000
870.681291	246.666667
872.901019	274.000000
875.122157	246.666667
877.342745	261.333333
879.560824	234.000000
881.780312	253.666667
883.995334	277.000000
886.209808	261.000000
888.423735	268.000000
890.637115	289.000000
892.849947	243.666667
895.062233	259.333333
897.272016	252.000000
899.481254	273.333333
901.689947	285.333333
903.896141	284.666667
906.103744	287.666667
908.308849	231.333333
910.513411	244.666667
912.715478	267.333333
914.918954	260.333333
917.119936	293.333333
919.320376	262.333333
921.522225	291.333333
923.717683	285.333333
925.916500	242.666667
928.110878	278.333333
930.308614	309.666667
932.501914	290.000000
934.696623	277.000000
936.888846	258.000000
939.080530	251.333333
941.271677	243.666667
943.460341	283.333333
945.648469	270.000000
947.834116	293.666667
950.023115	303.666667
952.207691	299.333333
954.391732	282.666667
956.579123	278.000000
958.758210	312.333333
960.940648	329.666667
963.122552	312.000000
965.301981	284.000000
967.478938	333.333333
969.657303	332.333333
971.837075	289.666667
974.010498	309.000000
976.187267	337.333333
978.359629	354.333333
980.533399	327.000000
982.702765	338.000000
984.875475	330.000000
987.045720	345.333333
989.215436	373.000000
991.384623	371.333333
993.549413	398.333333
995.717544	380.666667
997.881281	330.666667
1000.046424	384.000000
1002.209108	357.333333
1004.371267	343.000000
1006.530969	358.666667
1008.690146	393.000000
1010.850730	412.333333
1013.008859	375.000000
1015.166465	351.333333
1017.323547	377.666667
1019.480105	378.000000
1021.632284	386.333333
1023.785870	428.000000
1025.938934	360.000000
1028.089549	405.666667
1030.241571	363.333333
1032.389219	398.000000
1034.540199	412.333333
1036.686808	437.333333
1038.832898	398.000000
1040.978470	396.000000
1043.125447	409.666667
1045.266135	425.666667
1047.410153	436.333333
1049.551730	383.000000
1051.692791	463.000000
1053.835256	449.666667
1055.971442	434.333333
1058.110953	417.666667
1060.246110	431.666667
1062.384591	440.000000
1064.518718	441.333333
1066.652332	427.333333
1068.787351	399.000000
1070.918020	372.666667
1073.050094	428.666667
1075.179739	382.333333
1077.308872	446.000000
1079.437493	408.333333
1081.565603	369.333333
1083.691287	377.666667
1085.816461	405.333333
1087.943039	419.333333
1090.065279	400.333333
1092.188924	400.666667
1094.308234	385.000000
1096.432774	371.000000
1098.551068	321.333333
1100.670767	359.666667
1102.788047	372.000000
1104.904821	360.333333
1107.021088	352.000000
1109.134939	338.000000
1111.250195	359.666667
1113.361127	334.666667
1115.475372	340.333333
1117.585296	330.333333
1119.696624	356.000000
1121.807447	333.666667
1123.913954	331.333333
1126.023771	346.000000
1128.129273	323.000000
1130.236178	309.333333
1132.336868	319.000000
1134.442770	331.666667
1136.544363	304.666667
1138.647359	312.333333
1140.749854	311.000000
1142.846142	297.666667
1144.947637	293.333333
1147.044830	291.666667
1149.141525	309.666667
1151.237721	313.333333
1153.333420	327.666667
1155.428620	315.000000
1157.521424	304.000000
1159.615631	315.666667
1161.703646	341.666667
1163.796859	302.333333
1165.883884	312.000000
1167.974208	339.000000
1170.060244	266.333333
1172.149579	298.333333
1174.232732	284.666667
1176.317287	264.333333
1178.403244	313.000000
1180.484919	315.000000
1182.567996	318.666667
1184.648687	328.333333
1186.728886	302.666667
1188.808594	332.666667
1190.887811	299.666667
1192.964646	289.666667
1195.039100	311.333333
1197.116845	307.000000
1199.190321	296.000000
1201.265197	281.000000
1203.335806	283.333333
1205.407816	261.666667
1207.477451	329.333333
1209.548486	304.666667
1211.619033	300.333333
1213.685319	255.000000
1215.753006	292.000000
1217.818321	284.000000
1219.885036	272.333333
1221.947495	275.666667
1224.013239	295.333333
1226.074729	267.333333
1228.137620	278.333333
1230.198143	289.000000
1232.258182	293.000000
1234.317739	280.333333
1236.374930	273.333333
1238.431640	316.000000
1240.485986	268.666667
1242.543614	259.666667
1244.598879	294.333333
1246.649903	262.000000
1248.702327	283.000000
1250.754271	234.666667
1252.803857	275.666667
1254.852964	307.666667
1256.901593	260.666667
1258.949743	243.333333
1260.997414	283.333333
1263.040855	312.000000
1265.087572	244.000000
1267.131935	286.000000
1269.175822	290.666667
1271.217357	233.333333
1273.256543	304.666667
1275.299002	248.666667
1277.337238	263.000000
1279.376873	247.000000
1281.416033	276.333333
1283.450974	253.333333
1285.487314	279.666667
1287.521310	264.000000
1289.556703	265.000000
1291.587884	235.000000
1293.620462	245.333333
1295.652569	254.000000
1297.682335	253.666667
1299.713498	278.333333
1301.740455	222.000000
1303.768809	235.333333
1305.792958	270.333333
1307.820373	263.666667
1309.843585	223.333333
1311.868195	247.000000
1313.890471	282.000000
1315.914144	230.333333
1317.935484	292.000000
1319.956356	272.333333
1321.976761	208.333333
1323.992973	252.000000
1326.010582	242.333333
1328.025863	228.666667
1330.044403	276.666667
1332.058754	241.333333
1334.070779	258.333333
1336.086061	243.000000
1338.097158	246.000000
1340.109652	253.333333
1342.117963	246.666667
1344.129529	239.333333
1346.135057	247.333333
1348.143840	245.333333
1350.148445	246.000000
1352.156304	256.666667
1354.163701	260.666667
1356.165067	251.666667
1358.167829	271.000000
1360.170132	257.333333
1362.171975	255.666667
1364.173358	224.000000
1366.172428	293.333333
1368.171039	256.333333
1370.169192	274.666667
1372.166886	256.000000
1374.160418	239.333333
1376.155345	228.000000
1378.149816	283.000000
1380.143830	249.333333
1382.135537	257.333333
1384.126789	240.666667
1386.115735	251.666667
1388.106076	231.000000
1390.095962	280.000000
1392.083544	257.000000
1394.070673	283.333333
1396.055500	245.666667
1398.041722	255.333333
1400.025644	294.666667
1402.009113	287.666667
1403.992129	224.333333
1405.972848	268.666667
1407.954961	242.666667
1409.934778	240.666667
1411.914143	237.666667
1413.889370	260.666667
1415.867835	240.333333
1417.844007	281.666667
1419.819730	259.666667
1421.795003	261.666667
1423.767985	290.333333
1425.740519	257.333333
1427.712605	218.000000
1429.684244	279.666667
1431.651754	254.000000
1433.624338	270.666667
1435.589116	283.000000
1437.558967	281.000000
1439.524694	253.333333
1441.491813	295.000000
1443.456649	276.333333
1445.417365	272.000000
1447.383149	238.666667
1449.342978	264.666667
1451.304201	278.666667
1453.266816	283.000000
1455.225316	252.666667
1457.183373	286.000000
1459.140989	283.333333
1461.098162	266.000000
1463.053060	276.000000
1465.009351	286.666667
1466.963367	254.333333
1468.916942	293.666667
1470.868245	292.000000
1472.820941	272.000000
1474.771364	271.666667
1476.721349	308.666667
1478.670895	298.333333
1480.618172	275.000000
1482.563181	261.666667
1484.509583	264.000000
1486.455547	275.000000
1488.401074	292.000000
1490.344335	238.000000
1492.287161	301.000000
1494.227723	270.333333
1496.169676	262.333333
1498.109367	251.000000
1500.048624	279.333333
1501.987445	296.000000
1503.924007	268.666667
1505.861960	258.333333
1507.797654	275.333333
1509.732915	326.666667
1511.665920	274.333333
1513.598492	276.333333
1515.530632	307.000000
1517.462340	279.000000
1519.391794	308.000000
1521.322639	284.000000
1523.253052	302.000000
1525.179393	268.000000
1527.107125	285.666667
1529.032606	287.666667
1530.957658	267.000000
1532.882281	303.000000
1534.806475	286.000000
1536.728421	321.333333
1538.651758	266.333333
1540.572848	303.666667
1542.491694	281.000000
1544.411930	311.333333
1546.329923	293.000000
1548.247489	274.666667
1550.162813	294.000000
1552.079527	286.333333
1553.992186	315.333333
1555.908049	312.000000
1557.821672	341.000000
1559.733057	294.333333
1561.645832	318.333333
1563.554557	262.666667
1565.464671	296.333333
1567.374362	293.666667
1569.283630	297.000000
1571.190664	268.666667
1573.095465	292.333333
1575.001655	302.333333
1576.905613	294.333333
1578.809150	287.333333
1580.712267	268.666667
1582.613154	280.000000
1584.515430	322.333333
1586.415478	299.333333
1588.316913	316.000000
1590.214315	264.666667
1592.111298	304.000000
1594.007863	286.333333
1595.905816	279.333333
1597.797934	259.666667
1599.693245	300.000000
1601.588139	282.666667
1603.480811	277.666667
1605.373066	302.000000
1607.263102	266.666667
1609.152722	326.333333
1611.041927	298.333333
1612.930717	258.000000
1614.817289	294.666667
1616.705249	277.666667
1618.589192	296.333333
1620.474522	241.333333
1622.359439	304.333333
1624.242142	246.000000
1626.126232	312.333333
1628.006310	271.000000
1629.887776	299.333333
1631.767031	301.333333
1633.647672	318.000000
1635.522509	329.333333
1637.402327	254.000000
1639.278141	306.000000
1641.153544	307.000000
1643.030333	325.666667
1644.901326	308.000000
1646.775500	312.333333
1648.645675	268.666667
1650.519032	268.333333
1652.390184	295.666667
1654.259136	309.000000
1656.129472	283.666667
1657.995816	331.000000
1659.863545	295.666667
1661.729075	303.666667
1663.595991	300.000000
1665.458918	292.666667
1667.323230	352.333333
1669.185346	319.666667
1671.047057	303.333333
1672.910154	289.333333
1674.771055	327.000000
1676.629764	301.000000
1678.488069	296.666667
1680.347759	291.000000
1682.201681	290.333333
1684.058777	299.333333
1685.915470	347.333333
1687.768186	285.000000
1689.624074	277.000000
1691.475988	300.666667
1693.327501	316.666667
1695.178613	293.333333
1697.029325	262.000000
1698.879635	296.333333
1700.727762	304.666667
1702.577273	306.333333
1704.421035	327.666667
1706.269746	289.333333
1708.112711	248.666667
1709.958843	252.000000
1711.801012	301.333333
1713.646347	274.000000
1715.485941	310.000000
1717.326919	288.000000
1719.169280	250.000000
1721.007685	285.000000
1722.847473	286.666667
1724.685086	289.666667
1726.522303	300.333333
1728.357347	288.333333
1730.193774	317.000000
1732.028029	340.333333
1733.861889	261.000000
1735.695355	296.666667
1737.524876	326.000000
1739.357555	309.333333
1741.186290	291.333333
1743.018182	331.333333
1744.846132	323.333333
1746.673691	289.000000
1748.500857	304.333333
1750.327632	268.666667
1752.154015	299.333333
1753.976462	287.000000
1755.802064	313.333333
1757.623731	325.000000
1759.446780	334.000000
1761.267667	304.666667
1763.088166	319.333333
1764.910045	319.333333
1766.726226	305.333333
1768.545558	298.666667
1770.360963	306.000000
1772.179518	278.333333
1773.994148	315.333333
1775.808391	335.333333
1777.622248	287.666667
1779.435718	320.000000
1781.247035	287.333333
1783.059732	325.666667
1784.872044	344.666667
1786.680438	311.333333
1788.490212	324.333333
1790.296072	276.333333
1792.105077	292.333333
1793.910169	301.666667
1795.716642	311.333333
1797.522731	272.000000
1799.324909	283.000000
1801.130232	309.000000
1802.931646	310.333333
1804.734440	301.666667
1806.533328	302.666667
1808.333597	271.666667
1810.133484	312.000000
1811.931229	305.333333
1813.728594	304.666667
1815.525579	314.333333
1817.322183	314.666667
1819.116648	307.000000
1820.912492	290.666667
1822.702681	310.333333
1824.497767	341.333333
1826.287201	334.333333
1828.079771	288.000000
1829.870206	310.000000
1831.658507	334.333333
1833.449943	333.666667
1835.235733	329.666667
1837.022903	283.333333
1838.807941	334.666667
1840.596113	322.000000
1842.380399	354.333333
1844.162555	295.000000
1845.946091	345.666667
1847.727498	315.666667
1849.510284	297.666667
1851.289189	241.666667
1853.069474	370.333333
1854.847632	394.000000
1856.627169	332.000000
1858.404581	312.000000
1860.179869	295.000000
1861.956535	278.000000
1863.731079	320.333333
1865.507001	317.333333
1867.277302	347.666667
1869.050731	331.666667
1870.822040	312.666667
1872.592978	330.666667
1874.365294	353.000000
1876.131996	299.333333
1877.901824	331.000000
1879.667788	378.000000
1881.436875	351.000000
1883.202101	307.333333
1884.966959	362.333333
1886.733194	320.333333
1888.495570	336.666667
1890.257579	309.000000
1892.019220	359.333333
1893.780495	309.333333
1895.541402	305.000000
1897.301943	332.000000
1899.060374	300.333333
1900.818439	314.333333
1902.574397	327.666667
1904.331731	292.000000
1906.088700	325.000000
1907.843562	332.333333
1909.596320	310.666667
1911.348713	320.000000
1913.102483	319.333333
1914.854149	288.333333
1916.603713	321.666667
1918.354652	299.333333
1920.105229	326.333333
1921.851966	309.333333
1923.600080	299.000000
1925.346094	314.333333
1927.093483	320.666667
1928.838775	341.666667
1930.581969	343.666667
1932.326538	325.666667
1934.069012	295.333333
1935.811125	313.666667
1937.552878	319.666667
1939.294271	293.000000
1941.033571	329.666667
1942.772512	304.000000
1944.511094	316.666667
1946.247585	333.666667
1947.983718	323.166667
1949.721225	312.666667
1951.454910	312.333333
1953.189970	326.666667
1954.922941	334.333333
1956.655556	304.333333
1958.387815	326.000000
1960.119717	316.666667
1961.849533	295.666667
1963.577264	316.333333
1965.306370	312.000000
1967.035121	333.000000
1968.761788	344.000000
1970.488101	308.000000
1972.215787	361.000000
1973.937937	336.333333
1975.663188	323.333333
1977.384632	324.000000
1979.109177	324.000000
1980.831641	355.333333
1982.550303	361.000000
1984.272063	355.000000
1985.990021	340.000000
1987.709352	345.000000
1989.424884	342.666667
1991.145236	325.666667
1992.861790	358.333333
1994.574547	331.000000
1996.290400	333.333333
1998.004181	336.666667
1999.717612	312.666667
2001.428972	322.666667
2003.141704	334.666667
2004.850646	337.666667
2006.562680	335.666667
2008.269206	359.000000
2009.978823	349.333333
2011.686374	328.666667
2013.393576	340.000000
2015.098713	295.333333
2016.803504	338.333333
2018.509666	337.000000
2020.212046	334.333333
2021.915797	356.666667
2023.617486	333.333333
2025.318830	303.000000
2027.019828	331.666667
2028.718765	337.333333
2030.419074	350.000000
2032.115608	324.666667
2033.813513	351.666667
2035.509359	320.000000
2037.208291	300.333333
2038.901737	328.333333
2040.596554	353.333333
2042.291029	305.333333
2043.981735	327.666667
2045.675525	334.666667
2047.365548	342.333333
2049.056942	352.666667
2050.746283	333.000000
2052.436994	314.333333
2054.123942	335.000000
2055.810551	318.666667
2057.498529	327.000000
2059.182748	335.333333
2060.868338	314.333333
2062.553588	373.000000
2064.236789	325.666667
2065.921361	373.666667
2067.600470	368.333333
2069.284364	354.000000
2070.962797	319.666667
2072.644308	363.666667
2074.322067	330.333333
2075.999490	333.000000
2077.678282	364.000000
2079.355032	356.000000
2081.029740	360.000000
2082.705817	339.000000
2084.379853	361.000000
2086.053555	360.666667
2087.726921	343.000000
2089.398248	351.666667
2091.069241	323.666667
2092.739900	390.666667
2094.410225	347.333333
2096.080216	377.333333
2097.748171	351.000000
2099.415793	305.666667
2101.081380	331.666667
2102.748336	366.333333
2104.413259	391.333333
2106.077850	348.000000
2107.740409	396.666667
2109.404336	364.333333
2111.066232	363.000000
2112.727798	368.333333
2114.389032	375.000000
2116.048238	339.333333
2117.707113	367.000000
2119.365659	362.000000
2121.023874	353.666667
2122.678367	335.000000
2124.335924	388.000000
2125.993152	341.666667
2127.646658	329.666667
2129.301532	378.666667
2130.952687	368.333333
2132.606905	342.666667
2134.257406	368.333333
2135.909273	346.000000
2137.555732	347.666667
2139.206946	315.000000
2140.854446	349.000000
2142.503313	357.333333
2144.150161	359.000000
2145.796684	330.666667
2147.442881	348.333333
2149.085370	356.000000
2150.730917	364.000000
2152.372757	355.333333
2154.017654	326.666667
2155.658845	336.000000
2157.299714	347.000000
2158.940258	351.000000
2160.578790	362.666667
2162.218688	358.333333
2163.854886	352.000000
2165.492450	389.000000
2167.129692	381.333333
2168.764924	360.666667
2170.399835	362.333333
2172.034423	362.000000
2173.668691	355.666667
2175.299265	392.333333
2176.932891	355.666667
2178.562825	369.333333
2180.194124	329.333333
2181.823418	394.666667
2183.452393	359.000000
2185.081048	344.000000
2186.709384	377.333333
2188.335718	338.000000
2189.961733	356.000000
2191.585746	373.666667
2193.211125	362.333333
2194.834503	351.333333
2196.459246	363.333333
2198.080308	393.000000
2199.701053	343.000000
2201.323163	394.666667
2202.943275	363.000000
2204.561390	384.333333
2206.179190	364.666667
2207.796675	361.666667
2209.413844	381.666667
2211.030698	383.000000
2212.647236	376.333333
2214.261782	386.666667
2215.874335	413.000000
2217.488252	413.333333
2219.100178	393.666667
2220.713467	398.333333
2222.324766	404.000000
2223.934075	355.333333
2225.544748	393.333333
2227.153432	378.666667
2228.761803	333.666667
2230.368188	383.000000
2231.975936	385.000000
2233.581697	367.666667
2235.187147	389.000000
2236.790612	350.333333
2238.395440	389.333333
2239.998284	385.000000
2241.599145	396.666667
2243.201369	351.666667
2244.801611	380.000000
2246.403215	402.000000
2248.001166	380.666667
2249.600480	375.333333
2251.197814	399.333333
2252.794840	349.333333
2254.393228	357.666667
2255.987967	393.000000
2257.580729	390.000000
2259.174854	394.000000
2260.770340	359.000000
2262.362181	428.333333
2263.953716	369.666667
2265.546613	376.666667
2267.134200	375.000000
2268.726483	400.333333
2270.313460	404.000000
2271.903464	355.000000
2273.488164	425.666667
2275.077558	392.333333
2276.661650	403.000000
2278.247102	365.333333
2279.830586	435.000000
2281.417095	372.333333
2282.999971	413.000000
2284.582544	391.000000
2286.164813	365.333333
2287.743452	400.333333
2289.325116	411.666667
2290.903151	392.000000
2292.484209	370.666667
2294.061640	369.333333
2295.637108	368.000000
2297.215598	395.333333
2298.790464	440.333333
2300.365029	359.333333
2301.939294	398.000000
2303.513258	400.333333
2305.086921	412.666667
2306.660285	383.000000
2308.230030	388.000000
2309.799476	372.000000
2311.371940	390.000000
2312.939130	408.666667
2314.509338	364.000000
2316.075931	381.000000
2317.643884	415.000000
2319.209881	376.333333
2320.775581	404.333333
2322.340983	391.666667
2323.904432	393.333333
2325.469240	426.333333
2327.030440	417.666667
2328.594654	488.666667
2330.153606	484.000000
2331.715573	469.000000
2333.275588	442.333333
2334.835309	370.333333
2336.393080	430.666667
2337.950556	355.000000
2339.507738	378.666667
2341.062972	375.333333
2342.617913	370.333333
2344.172559	375.666667
2345.726912	409.666667
2347.280972	365.000000
2348.834737	388.000000
2350.386558	365.333333
2351.936437	380.333333
2353.489323	418.000000
2355.036966	378.666667
2356.587618	394.333333
2358.134678	433.666667
2359.683096	389.666667
2361.231223	427.333333
2362.775761	403.666667
2364.321657	449.000000
2365.865615	411.000000
2367.410930	347.000000
2368.952660	407.333333
2370.495747	387.000000
2372.036898	375.000000
2373.577760	381.666667
2375.118333	390.333333
2376.658617	362.000000
2378.198612	414.666667
2379.735029	411.000000
2381.274447	373.666667
2382.810287	418.333333
2384.347485	405.333333
2385.881107	423.333333
2387.417729	415.000000
2388.952421	386.000000
2390.485183	383.000000
2392.017658	394.333333
2393.548205	401.333333
2395.081750	415.666667
2396.610084	401.000000
2398.139774	386.000000
2399.669179	404.666667
2401.198299	389.333333
2402.727134	390.000000
2404.250763	378.666667
2405.779028	421.666667
2407.302091	411.666667
2408.829787	391.666667
2410.350644	397.000000
2411.876134	418.666667
2413.398063	426.000000
2414.921348	410.000000
2416.442711	392.333333
2417.962155	400.666667
2419.482954	437.666667
2421.001835	423.666667
2422.520433	408.000000
2424.037114	421.333333
2425.555149	418.666667
2427.072903	409.666667
2428.587106	444.666667
2430.101028	446.333333
2431.614670	442.666667
2433.129667	396.666667
2434.641115	441.000000
2436.153918	412.333333
2437.664807	396.666667
2439.175418	408.000000
2440.684117	429.000000
2442.195802	452.000000
2443.703944	428.000000
2445.211808	410.000000
2446.719394	437.666667
2448.223439	418.000000
2449.730469	429.666667
2451.235591	427.000000
2452.740436	437.000000
2454.243374	444.333333
2455.746036	450.666667
2457.248421	425.333333
2458.748901	455.666667
2460.250734	442.000000
2461.750662	434.000000
2463.250315	464.666667
2464.749693	431.666667
2466.247168	451.000000
2467.742741	457.333333
2469.241294	423.333333
2470.736319	420.000000
2472.232696	405.333333
2473.725547	434.000000
2475.219751	410.333333
2476.713681	448.000000
2478.204087	430.666667
2479.697471	408.333333
2481.188957	458.333333
2482.678546	461.666667
2484.167863	443.000000
2485.655284	452.333333
2487.145681	439.666667
2488.632560	437.666667
2490.120790	454.000000
2491.605503	420.666667
2493.089947	416.333333
2494.575741	463.333333
2496.059644	424.666667
2497.544897	464.333333
2499.025017	449.333333
2500.508110	400.666667
2501.989312	420.666667
2503.470245	435.666667
2504.949289	443.000000
2506.428064	448.000000
2507.906571	379.333333
2509.384810	460.666667
2510.862780	455.666667
2512.337245	465.333333
2513.814680	424.666667
2515.288611	439.666667
2516.763892	435.666667
2518.238906	436.000000
2519.710419	421.666667
2521.183283	436.666667
2522.654264	438.000000
2524.126595	441.000000
2525.593812	492.333333
2527.063996	428.666667
2528.532299	446.333333
2530.000337	456.666667
2531.468110	458.333333
2532.935618	451.333333
2534.402861	444.000000
2535.866612	467.666667
2537.331713	432.666667
2538.794937	449.333333
2540.259510	475.333333
2541.720595	485.666667
2543.183029	419.333333
2544.645200	461.333333
2546.103885	479.000000
2547.567141	443.333333
2549.025302	443.333333
2550.484811	470.000000
2551.939226	432.333333
2553.398212	474.333333
2554.855326	461.000000
2556.310569	484.666667
2557.765550	470.666667
2559.218663	484.666667
2560.673124	429.666667
2562.125715	475.000000
2563.578047	470.666667
2565.028512	433.666667
2566.481932	496.333333
2567.930270	473.333333
2569.381563	467.666667
2570.830991	486.666667
2572.276946	484.666667
2573.725856	504.333333
2575.171296	495.666667
2576.618083	476.666667
2578.063008	453.000000
2579.507674	522.000000
2580.953688	452.333333
2582.396236	446.333333
2583.840131	541.333333
2585.280561	487.666667
2586.722338	474.666667
2588.162256	482.333333
2589.603521	483.333333
2591.041324	480.333333
2592.482077	518.666667
2593.917768	435.666667
2595.356408	497.666667
2596.793190	478.666667
2598.228117	505.666667
2599.665991	487.333333
2601.098808	476.333333
2602.532972	449.666667
2603.965282	487.000000
2605.398938	454.666667
2606.830741	470.000000
2608.262290	469.333333
2609.693587	477.666667
2611.123031	479.000000
2612.552223	501.333333
2613.979565	452.000000
2615.408252	453.000000
2616.836688	448.666667
2618.261676	483.333333
2619.688011	448.333333
2621.112497	487.333333
2622.538329	493.000000
2623.960717	449.333333
2625.384451	506.333333
2626.806338	513.000000
2628.227976	503.333333
2629.647768	499.000000
2631.068906	532.333333
2632.489794	448.666667
2633.907244	480.000000
2635.327633	513.333333
2636.744585	500.333333
2638.161288	518.666667
2639.577743	512.333333
2640.993950	508.000000
2642.409909	531.666667
2643.824027	535.666667
2645.237897	504.333333
2646.649929	495.000000
2648.063304	531.333333
2649.473250	472.333333
2650.886132	528.000000
2652.295585	485.666667
2653.704792	472.333333
2655.112163	503.333333
2656.522468	515.000000
2657.930938	521.666667
2659.337572	513.333333
2660.743961	507.000000
2662.148516	480.666667
2663.554415	489.000000
2664.958481	532.333333
2666.362302	500.000000
2667.765879	470.333333
2669.167625	419.666667
2670.570714	509.000000
2671.970385	490.000000
2673.371400	529.666667
2674.768999	503.000000
2676.169527	526.333333
2677.566641	523.000000
2678.965098	501.000000
2680.361728	531.666667
2681.758115	566.333333
2683.154260	540.666667
2684.548579	526.666667
2685.944241	553.666667
2687.336494	516.666667
2688.730089	517.666667
2690.121860	529.333333
2691.514974	573.000000
2692.906264	541.666667
2694.295731	465.333333
2695.684958	492.666667
2697.073946	509.000000
2698.464275	496.000000
2699.849621	515.666667
2701.237890	530.333333
2702.624339	548.666667
2704.010549	538.000000
2705.396520	481.000000
2706.779093	558.333333
2708.163008	560.333333
2709.546685	540.000000
2710.930123	554.333333
2712.310167	533.333333
2713.691551	510.666667
2715.071121	526.333333
2716.452031	501.000000
2717.831127	522.666667
2719.208409	485.333333
2720.587032	545.666667
2721.963842	530.666667
2723.340415	518.000000
2724.716753	555.000000
2726.091280	511.000000
2727.467147	497.666667
2728.839627	534.666667
2730.215023	549.333333
2731.585459	525.333333
2732.957236	515.666667
2734.328778	512.333333
2735.698512	527.000000
2737.069587	545.666667
2738.438853	564.666667
2739.807886	507.666667
2741.175113	555.000000
2742.542106	523.666667
2743.908867	518.333333
2745.275396	510.000000
2746.640119	579.333333
2748.004610	560.666667
2749.368870	558.000000
2750.732897	522.000000
2752.096693	505.666667
2753.457115	498.666667
2754.820447	489.666667
2756.178837	525.000000
2757.540137	502.666667
2758.898067	526.333333
2760.258905	498.000000
2761.617944	526.333333
2762.973614	519.333333
2764.332192	527.666667
2765.687403	530.666667
2767.042385	527.333333
2768.395571	517.333333
2769.751662	508.666667
2771.104390	543.000000
2772.456890	519.000000
2773.809161	520.333333
2775.162770	518.333333
2776.513019	531.333333
2777.861473	601.666667
2779.212833	519.666667
2780.560833	580.000000
2781.910171	539.333333
2783.257717	551.333333
2784.605037	594.666667
2785.952130	544.000000
2787.297432	559.666667
2788.642507	568.000000
2789.987357	578.666667
2791.331981	528.333333
2792.673253	560.666667
2794.015863	561.000000
2795.358247	549.333333
2796.700406	604.000000
2798.039216	560.666667
2799.380926	598.000000
2800.719288	575.333333
2802.058986	580.333333
2803.396900	595.333333
2804.733029	607.333333
2806.068934	565.333333
2807.406177	527.333333
2808.741636	582.333333
2810.076872	595.333333
2811.410325	590.000000
2812.745115	588.333333
2814.076565	603.666667
2815.410910	603.333333
2816.740357	573.333333
2818.071141	608.666667
2819.401703	572.333333
2820.730486	588.000000
2822.060605	561.000000
2823.388946	587.666667
2824.717066	562.666667
2826.043408	591.333333
2827.371087	573.333333
2828.695432	574.000000
2830.021114	607.666667
2831.345020	550.333333
2832.668707	555.000000
2833.993729	561.333333
2835.315421	547.333333
2836.636895	552.000000
2837.958150	585.333333
2839.279186	603.333333
2840.598449	591.666667
2841.919048	562.666667
2843.237876	558.000000
2844.556485	576.000000
2845.873323	545.333333
2847.189944	560.333333
2848.506348	570.666667
2849.820982	542.000000
2851.136952	590.666667
2852.449601	541.333333
2853.763585	595.000000
2855.077353	553.000000
2856.390904	554.000000
2857.702689	550.666667
2859.012707	616.000000
2860.324060	566.333333
2861.632098	567.333333
2862.941470	590.333333
2864.250628	596.000000
2865.559570	590.333333
2866.866748	591.666667
2868.172164	601.333333
2869.478913	596.000000
2870.783901	624.666667
2872.088675	630.333333
2873.391687	609.666667
2874.697580	660.333333
2875.998619	631.666667
2877.300992	575.666667
2878.601605	604.000000
2879.903552	630.000000
2881.205285	555.333333
2882.503715	619.333333
2883.803478	575.000000
2885.101484	583.666667
2886.399278	592.333333
2887.695316	594.666667
2888.992687	543.000000
2890.288302	591.666667
2891.583706	593.000000
2892.878899	549.333333
2894.170795	561.000000
2895.465567	585.666667
2896.757042	615.333333
2898.049850	588.666667
2899.342448	601.666667
2900.631752	573.333333
2901.922388	561.000000
2903.211273	602.666667
2904.501490	588.666667
2905.788416	609.000000
2907.076674	666.333333
2908.363183	612.000000
2909.649483	594.333333
2910.935576	626.333333
2912.219920	576.333333
2913.507135	601.333333
2914.789524	636.333333
2916.073245	621.333333
2917.355220	602.666667
2918.636987	609.666667
2919.917010	574.333333
2921.199902	622.666667
2922.481049	616.666667
2923.758914	620.333333
2925.039648	620.000000
2926.317101	600.666667
2927.594348	626.666667
2928.869853	657.666667
2930.148226	599.000000
2931.421785	568.666667
2932.698211	626.666667
2933.972896	607.666667
2935.245840	623.666667
2936.520116	628.333333
2937.792652	596.666667
2939.064983	633.666667
2940.334042	660.333333
2941.605966	645.333333
2942.876152	613.333333
2944.146134	653.333333
2945.415913	647.333333
2946.683956	631.666667
2947.950262	647.000000
2949.216367	606.333333
2950.483801	648.333333
2951.749501	657.000000
2953.014998	608.000000
2954.280293	569.666667
2955.542323	637.666667
2956.805683	622.000000
2958.068842	633.000000
2959.330269	619.666667
2960.593025	607.000000
2961.854049	599.666667
2963.113343	612.333333
2964.372437	636.000000
2965.631330	602.333333
2966.890023	633.666667
2968.148516	624.000000
2969.405280	579.000000
2970.661844	624.333333
2971.916681	639.333333
2973.172846	695.333333
2974.425757	631.333333
2975.679997	629.666667
2976.934037	637.333333
2978.186353	576.000000
2979.438469	631.000000
2980.688861	585.000000
2981.942108	639.666667
2983.190578	626.000000
2984.441903	656.333333
2985.689978	674.000000
2986.937857	641.000000
2988.185538	653.666667
2989.433022	684.333333
2990.678785	656.666667
2991.924352	688.666667
2993.171246	632.666667
2994.414896	650.333333
2995.659874	670.666667
2996.901608	664.333333
2998.146194	691.333333
2999.389061	677.000000
3000.628687	660.333333
3001.871163	686.000000
3003.110399	706.333333
3004.350963	656.333333
3005.589810	682.000000
3006.828463	678.333333
3008.065400	717.000000
3009.303665	694.000000
3010.540214	703.666667
3011.776570	627.666667
3013.012732	680.333333
3014.247180	713.333333
3015.481436	707.333333
3016.715498	704.000000
3017.947848	744.333333
3019.178486	694.000000
3020.411970	713.000000
3021.643742	687.333333
3022.873804	724.000000
3024.103673	700.666667
3025.331833	702.333333
3026.561320	758.000000
3027.789097	687.333333
3029.016683	708.333333
3030.245596	754.000000
3031.469766	747.000000
3032.696779	682.666667
3033.920568	688.333333
3035.145684	761.333333
3036.369093	695.000000
3037.592312	694.666667
3038.813826	658.333333
3040.038181	702.333333
3041.257801	706.666667
3042.478747	709.000000
3043.699504	706.666667
3044.918557	721.000000
3046.138935	727.666667
3047.356097	689.666667
3048.574585	722.000000
3049.791370	677.333333
3051.007968	699.333333
3052.224377	703.000000
3053.437574	727.000000
3054.653608	747.333333
3055.866430	703.000000
3057.082089	752.000000
3058.293025	733.333333
3059.505286	747.000000
3060.717361	710.666667
3061.929248	716.333333
3063.139439	724.666667
3064.349443	749.000000
3065.559261	725.333333
3066.767383	711.333333
3067.975320	711.666667
3069.181561	755.333333
3070.389127	729.333333
3071.594998	713.166667
3072.800685	697.000000
3074.006186	678.333333
3075.209994	720.666667
3076.415126	647.000000
3077.618565	748.666667
3078.820313	686.333333
3080.021876	694.000000
3081.223256	724.000000
3082.424452	657.000000
3083.623958	667.666667
3084.823281	693.666667
3086.023927	652.666667
3087.222883	681.666667
3088.418645	713.666667
3089.617236	675.333333
3090.812633	652.333333
3092.009353	682.000000
3093.202881	607.333333
3094.399237	665.000000
3095.593907	682.666667
3096.785385	688.333333
3097.981196	657.333333
3099.172312	657.333333
3100.364752	714.333333
3101.554004	682.666667
3102.746081	678.000000
3103.936475	678.666667
3105.123683	703.666667
3106.312213	696.000000
3107.502066	751.333333
3108.688735	689.000000
3109.875223	647.000000
3111.061533	704.666667
3112.249164	683.666667
3113.433613	731.666667
3114.616383	720.000000
3115.801975	737.000000
3116.985888	725.333333
3118.168122	683.333333
3119.350177	738.000000
3120.532054	728.333333
3121.713753	735.333333
3122.893775	749.333333
3124.072120	691.000000
3125.253285	702.333333
3126.431275	728.666667
3127.609089	711.666667
3128.786725	712.666667
3129.962686	702.000000
3131.138470	683.666667
3132.315576	701.666667
3133.491007	735.333333
3134.664765	673.000000
3135.836850	703.666667
3137.010257	710.333333
3138.183487	714.000000
3139.355046	626.333333
3140.527925	682.666667
3141.697637	739.666667
3142.868670	750.333333
3144.038033	733.666667
3145.205725	742.333333
3146.376233	755.333333
3147.542083	752.000000
3148.712241	731.666667
3149.877743	757.333333
3151.043070	784.666667
3152.208224	797.333333
3153.373205	807.000000
3154.539505	763.000000
3155.701153	774.333333
3156.864120	774.000000
3158.026915	790.000000
3159.189537	777.333333
3160.350494	765.000000
3161.511278	789.333333
3162.671890	812.666667
3163.830838	771.666667
3164.989615	751.000000
3166.148220	785.000000
3167.306652	761.333333
3168.464914	771.333333
3169.621513	796.000000
3170.776451	774.000000
3171.932708	780.000000
3173.087304	759.666667
3174.241730	797.000000
3175.394496	776.666667
3176.547091	774.333333
3177.699517	806.333333
3178.851773	810.666667
3180.003858	771.666667
3181.152798	758.666667
3182.304544	854.333333
3183.454632	786.666667
3184.603064	785.000000
3185.751326	855.333333
3186.899420	774.666667
3188.047345	801.000000
3189.193614	818.666667
3190.339715	796.666667
3191.484162	779.000000
3192.628441	804.666667
3193.772552	821.000000
3194.917980	811.333333
3196.060270	783.333333
3197.202393	779.000000
3198.344348	804.333333
3199.486136	809.333333
3200.627757	785.333333
3201.766243	794.333333
3202.906046	816.000000
3204.047167	794.333333
3205.185153	793.333333
3206.321490	801.333333
3207.457661	796.333333
3208.595149	796.666667
3209.730989	737.000000
3210.868146	822.000000
3212.000690	735.333333
3213.137516	803.000000
3214.269730	830.666667
3215.403261	817.666667
3216.536628	805.333333
3217.666867	789.666667
3218.799904	796.333333
3219.929815	800.000000
3221.061042	834.666667
3222.189145	793.000000
3223.320044	761.000000
3224.449299	807.000000
3225.576911	813.666667
3226.701400	882.333333
3227.830165	820.666667
3228.955808	799.333333
3230.081289	834.333333
3231.205128	849.666667
3232.331761	886.000000
3233.453797	844.333333
3234.577149	868.333333
3235.700339	809.333333
3236.823366	832.000000
3237.944755	817.666667
3239.065981	839.333333
3240.185570	810.000000
3241.304997	799.000000
3242.422786	836.000000
3243.543367	840.666667
3244.660835	838.333333
3245.778142	854.333333
3246.895289	835.666667
3248.010800	827.666667
3249.127625	796.666667
3250.241341	807.333333
3251.357846	785.000000
3252.472717	851.666667
3253.584479	846.000000
3254.696081	852.000000
3255.808999	834.000000
3256.921757	871.333333
3258.031409	855.666667
3259.142376	869.333333
3260.253184	813.000000
3261.362360	885.666667
3262.469906	850.333333
3263.578765	846.000000
3264.687467	849.666667
3265.793066	902.666667
3266.899979	881.666667
3268.005263	906.666667
3269.111861	927.000000
3270.215359	911.000000
3271.320172	877.333333
3272.424827	906.000000
3273.526383	877.333333
3274.627783	912.333333
3275.730497	867.000000
3276.833055	856.333333
3277.932516	893.000000
3279.034761	855.000000
3280.133910	860.666667
3281.231435	822.666667
3282.328804	882.666667
3283.428955	843.333333
3284.526014	892.000000
3285.622917	865.333333
3286.719665	879.333333
3287.811855	873.000000
3288.908293	864.333333
3290.003109	869.666667
3291.097771	857.333333
3292.190811	819.666667
3293.283696	842.000000
3294.374962	835.333333
3295.467539	831.666667
3296.558497	847.666667
3297.647835	864.000000
3298.737020	843.000000
3299.827518	882.000000
3300.914931	891.000000
3302.002191	927.000000
3303.090764	890.000000
3304.179185	894.000000
3305.263058	883.000000
3306.351173	974.000000
3307.436206	870.000000
3308.519624	897.666667
3309.604354	892.666667
3310.687468	879.666667
3311.771895	849.000000
3312.853243	888.666667
3313.935903	879.666667
3315.016949	880.000000
3316.097844	920.000000
3317.177125	899.333333
3318.256256	890.000000
3319.336699	884.333333
3320.414067	924.333333
3321.492747	906.333333
3322.569815	902.000000
3323.646734	901.333333
3324.722041	899.000000
3325.797199	949.000000
3326.873668	942.000000
3327.947067	964.666667
3329.020317	939.333333
3330.094877	918.333333
3331.167829	962.000000
3332.239172	944.333333
3333.311826	944.000000
3334.381414	975.333333
3335.452312	930.666667
3336.521603	962.333333
3337.592205	988.666667
3338.661200	926.000000
3339.728589	996.666667
3340.794373	943.333333
3341.864383	973.333333
3342.931330	1012.000000
3343.995215	939.666667
3345.061868	968.666667
3346.126916	1017.000000
3347.190361	1012.000000
3348.253660	972.000000
3349.316812	1020.666667
3350.379818	1016.000000
3351.442678	976.666667
3352.503936	1004.333333
3353.562137	990.000000
3354.624558	977.333333
3355.683924	941.333333
3356.743144	1043.000000
3357.803673	964.333333
3358.859694	960.333333
3359.918478	1010.000000
3360.972755	1002.666667
3362.029796	981.666667
3363.085238	1015.666667
3364.141990	987.666667
3365.197143	997.333333
3366.250699	989.000000
3367.302659	969.000000
3368.357380	961.666667
3369.409052	943.000000
3370.460581	1014.666667
3371.513418	964.666667
3372.563208	997.333333
3373.614307	983.333333
3374.662360	1018.333333
3375.713172	984.333333
3376.760940	994.333333
3377.808565	997.333333
3378.856047	974.666667
3379.901937	978.333333
3380.949135	978.666667
3381.993291	957.666667
3383.040205	1014.000000
3384.085527	973.666667
3385.127808	1030.333333
3386.169949	983.666667
3387.213397	1013.333333
3388.256704	966.333333
3389.298422	991.000000
3390.339998	1008.666667
3391.381433	974.000000
3392.421280	1031.333333
3393.459538	984.000000
3394.499104	985.000000
3395.538530	982.666667
3396.576368	974.000000
3397.612619	1010.000000
3398.648731	997.666667
3399.686150	986.666667
3400.720536	967.666667
3401.756229	985.333333
3402.791783	1026.666667
3403.824306	941.000000
3404.859582	1052.333333
3405.891827	984.000000
3406.923934	973.666667
3407.954457	1021.666667
3408.986287	1034.333333
3410.017979	1014.666667
3411.046643	1006.000000
3412.075170	993.666667
3413.105003	1002.000000
3414.134699	1027.333333
3415.161369	972.333333
3416.189346	1035.000000
3417.214298	1015.000000
3418.242000	993.000000
3419.266679	1014.000000
3420.292664	1054.000000
3421.317069	1064.333333
3422.341338	993.000000
3423.364028	1029.666667
3424.386582	1028.666667
3425.410442	1080.666667
3426.431282	1013.000000
3427.451986	1043.000000
3428.473997	1053.000000
3429.492989	1018.000000
3430.511845	1089.000000
3431.532008	1039.000000
3432.549154	1048.666667
