-118.448435	-3.207143
-115.778835	-2.772527
-113.112170	-2.785315
-110.446257	-3.128372
-107.783276	-3.684565
-105.118866	-4.336763
-102.457386	-4.967832
-99.794476	-6.060140
-97.136674	-5.792308
-94.477441	-3.616783
-91.818958	-3.709091
-89.163398	-5.812587
-86.506410	-6.144755
-83.854519	-6.160839
-81.201199	-5.396503
-78.550799	-1.697902
-75.898969	-3.191608
-73.252230	0.058741
-70.604061	0.981818
-67.956636	2.325175
-65.312124	1.233566
-62.666184	4.374126
-60.025325	1.562238
-57.383037	-0.339161
-54.743657	-4.644056
-52.102849	-5.806993
-49.462781	-6.449650
-46.827785	-6.013287
-44.191360	-8.886014
-41.557839	-9.448951
-38.922889	-7.782517
-36.293004	-5.404196
-33.659527	-3.131469
-31.031112	2.288811
-28.403430	4.259441
-25.774321	3.874126
-23.150268	-16.828671
-20.522626	-81.632867
-17.900037	-239.716084
-15.278180	-216.248252
-12.657053	302.418182
-10.036656	1113.341958
-7.419147	1809.376224
-4.800210	2288.562937
-2.184159	2550.154545
0.431164	2592.199301
3.045760	2419.731469
5.657473	2033.355245
8.270615	1444.560839
10.878723	709.882517
13.490413	-15.588112
16.097072	-359.623077
18.705159	-238.137063
21.312522	-41.513986
23.914860	-0.837762
26.520776	-3.593007
29.121670	-6.362937
31.723992	-9.393007
34.321297	-9.637762
36.922177	-9.103497
39.518043	-7.488112
42.115336	-7.093706
44.711910	-4.739161
47.303475	-1.625874
49.896468	-3.613287
52.486600	-4.578322
55.078160	-4.311888
57.666860	-6.420280
60.256987	-8.251049
62.842116	-6.518182
65.428671	-6.224476
68.014513	-5.489510
70.597501	-5.259441
73.181915	-4.578322
75.759201	-4.241958
78.340053	-3.058741
80.918056	-5.837063
83.495349	-3.689510
86.074068	-2.864336
88.647806	-2.857343
91.222970	-1.092308
93.795291	3.274825
96.366904	4.281119
98.935677	3.232168
101.505877	3.141958
104.073239	2.755944
106.642026	-0.123776
109.207977	0.225175
111.771093	-2.500000
114.337765	-1.229371
116.895216	1.732867
119.458352	6.169930
122.016529	9.546853
124.578259	16.365734
127.135034	28.801399
129.693234	46.493706
132.246482	71.457343
134.799031	104.188112
137.355131	141.061538
139.906284	181.008392
142.456738	220.107692
145.006496	260.635664
147.553434	294.541259
150.099676	320.807692
152.647344	333.395804
155.194317	341.030769
157.736353	344.682517
160.277696	344.293007
162.818346	340.774126
165.360422	340.961538
167.899687	335.233566
170.436142	332.409091
172.971907	327.436364
175.509097	325.819580
178.045595	328.174825
180.579288	329.702797
183.110178	326.645455
185.640379	324.127273
188.172005	322.778322
190.700830	321.902797
193.226856	321.520280
195.752197	322.433566
198.278962	315.943357
200.802930	311.700000
203.326214	304.587413
205.848813	302.048252
208.368619	300.986713
210.887742	301.699301
213.406182	300.620280
215.926046	298.726573
218.438909	297.860839
220.955303	300.680420
223.471015	303.196503
225.981838	305.225175
228.494085	302.129371
231.003549	302.142657
233.512335	301.617483
236.020443	299.009091
238.529974	299.431469
241.034625	304.311888
243.538601	305.339860
246.044000	308.646154
248.544524	311.594406
251.048571	318.725175
253.545648	322.861538
256.046247	327.016084
258.544075	329.995804
261.041230	338.440559
263.537712	347.509091
266.029331	357.674126
268.524470	371.360839
271.016843	385.462937
273.508545	401.404895
275.997483	415.264336
278.487846	417.243357
280.975447	412.901399
283.460288	458.481119
285.948643	699.379720
288.430059	1252.663636
290.914989	2048.524476
293.395074	2833.802098
295.878671	3434.890210
298.357425	3779.140559
300.837603	3843.681818
303.315028	3628.772028
305.791790	3149.100000
308.267889	2460.486713
310.741239	1665.614685
313.213927	937.554545
315.685954	477.930070
318.157320	337.593706
320.625942	375.988811
323.093904	408.383217
325.563289	408.198601
328.027850	398.210490
330.495916	386.029371
332.959162	375.363636
335.421750	365.558042
337.883682	361.514685
340.344957	361.374126
342.803498	359.362238
345.263461	360.314685
347.720691	359.040559
350.177267	355.476923
352.633189	351.888811
355.086382	350.728671
357.540996	347.757343
359.990809	346.078322
362.444119	342.684615
364.892629	338.109790
367.340489	334.170629
369.789770	330.967832
372.234258	323.472727
374.680168	320.052448
377.125429	317.566434
379.567970	312.744755
382.009864	308.680420
384.451111	305.939860
386.889642	303.418182
389.329595	302.253846
391.766834	299.251748
394.201361	299.267832
396.639376	296.142657
399.072614	294.444755
401.507274	293.253846
403.937160	294.727273
406.370532	293.227273
408.799134	292.643357
411.227095	294.344755
413.656476	299.488811
416.081092	304.732168
418.507130	308.419580
420.932527	310.432168
423.357284	313.020280
425.777283	311.277622
428.198703	309.755944
430.617426	307.495105
433.037570	306.743357
435.455019	304.544056
437.873888	304.225175
440.290064	305.519580
442.701493	307.517483
445.116398	307.441958
447.528613	310.550350
449.940194	311.883217
452.351141	313.219580
454.759402	312.773427
457.167030	312.317483
459.574027	315.589510
461.980391	316.237063
464.384073	315.274825
466.787125	313.160839
469.189547	309.953147
471.591340	306.951748
473.990454	302.913986
476.390988	302.265734
478.790893	298.276224
481.186075	298.232867
483.584724	297.922378
485.978653	298.591608
488.371956	294.311189
490.764633	287.179021
493.156685	280.639161
495.550156	270.958042
497.938914	261.886713
500.325006	249.451748
502.712518	236.832867
505.099406	227.411189
507.483631	215.769930
509.869275	213.343357
512.252256	208.617483
514.632577	206.982517
517.014317	204.256643
519.393398	203.526573
521.773898	203.590210
524.151740	204.861538
526.526927	206.898601
528.901496	205.132168
531.277484	209.232168
533.650818	208.043357
536.025570	206.691608
538.395637	211.649650
540.765088	212.520280
543.135957	216.148951
545.502146	216.868531
547.869753	217.958741
550.234714	222.930070
552.599062	227.363636
554.962798	232.210490
557.327951	238.655944
559.688431	242.111189
562.050330	237.661538
564.409589	240.209091
566.766209	243.618182
569.126274	245.069930
571.479649	242.360839
573.836468	241.245455
576.190651	235.618881
578.544227	232.737063
580.897194	229.390909
583.247530	226.155245
585.599282	220.543357
587.944358	210.773427
590.294898	205.431469
592.638765	203.538462
594.988092	199.295105
597.332772	195.434266
599.674826	187.739161
602.018298	183.165734
604.359147	172.662937
606.699394	169.650350
609.037020	165.854545
611.378081	161.920979
613.714504	157.118182
616.052345	156.416084
618.387567	156.947552
620.720174	157.608392
623.054197	155.228671
625.385607	152.341958
627.716418	147.667832
630.046631	144.012587
632.376246	145.187413
634.701239	143.948951
637.031673	143.590909
639.357485	142.298601
641.680691	142.067832
644.005312	144.168531
646.327329	142.972028
648.648751	144.151049
650.967570	141.272028
653.287805	139.381119
655.607447	137.337762
657.924488	137.469231
660.240937	142.044056
662.554788	139.630070
664.870055	142.058042
667.182725	142.842657
669.496810	143.317483
671.806295	143.632867
674.117196	142.706294
676.425504	143.054545
678.733224	143.562937
681.042359	141.423077
683.346901	141.459441
685.650856	140.598601
687.954226	138.483217
690.259010	133.897203
692.559208	132.304895
694.860820	131.422378
697.161848	130.302797
699.458293	128.051049
701.756154	130.027972
704.053431	131.024476
706.350125	134.465035
708.642243	133.307692
710.937772	136.162238
713.228728	136.626573
715.521098	135.735664
717.810892	136.450350
720.100107	138.259441
722.388741	137.086713
724.674804	138.106993
726.962280	134.436364
729.247186	137.725874
731.531513	140.330769
733.813272	142.505594
736.096445	141.172727
738.379041	141.674126
740.657082	140.720280
742.936536	141.096503
745.215415	142.023077
747.493718	140.206993
749.767472	136.925175
752.042640	137.234965
754.317234	136.016783
756.589268	139.474126
758.862716	140.848951
761.133606	141.997902
763.401940	145.754545
765.671687	146.918881
767.938880	144.762238
770.205502	146.804895
772.471555	145.844755
774.735055	145.764336
776.999969	145.456643
779.264313	143.690909
781.524128	140.355245
783.785356	139.196503
786.046015	136.933566
788.304129	140.934965
790.559698	144.727972
792.818658	144.713986
795.071119	141.312587
797.328947	139.218182
799.582255	137.010490
801.833024	136.639860
804.085205	136.008392
806.334848	136.070629
808.585902	134.493706
810.832445	137.932168
813.080400	138.795105
815.325821	142.513287
817.572653	144.957343
819.818924	145.819580
822.060691	140.267133
824.305840	136.467832
826.544517	134.046154
828.786577	131.818182
831.024138	133.484615
833.263110	132.808392
835.499556	131.526573
837.737413	133.059441
839.972745	134.236364
842.205554	136.839161
844.439774	138.939860
846.671472	142.024476
848.902615	142.553846
851.133203	142.227972
853.363236	140.737063
855.592716	140.248951
857.817714	138.558741
860.046087	132.695804
862.269981	127.935664
864.495285	125.667133
866.716114	125.365035
868.940315	122.881818
871.160043	122.524476
873.381182	127.103497
875.601770	129.362238
877.819848	131.485315
880.039337	133.651748
882.254359	135.925874
884.468833	135.498601
886.682760	134.046154
888.896139	133.316084
891.108971	135.055245
893.321257	136.192308
895.531040	135.683217
897.740278	134.236364
899.948971	135.555245
902.155165	134.948951
904.362768	134.671329
906.567874	134.571329
908.772436	134.993706
910.974502	135.455944
913.177978	134.848252
915.378960	135.920979
917.579401	135.988112
919.781249	135.349650
921.976707	134.188811
924.175524	129.767133
926.369902	130.878322
928.567638	130.032168
930.760938	128.552448
932.955647	129.625874
935.147870	133.376224
937.339555	134.429371
939.530702	136.058741
941.719366	137.009091
943.907493	135.891608
946.093140	136.105594
948.282139	138.376923
950.466715	138.247552
952.650756	141.213986
954.838147	141.051049
957.017234	140.909091
959.199672	142.344056
961.381576	147.437762
963.561006	147.962238
965.737963	149.817483
967.916327	148.858042
970.096099	151.385315
972.269522	151.699301
974.446291	154.555245
976.618653	156.018182
978.792423	158.681818
980.961789	158.407692
983.134500	159.784615
985.304744	162.430769
987.474460	162.063636
989.643647	161.915385
991.808437	162.030070
993.976568	161.925175
996.140305	164.008392
998.305448	161.676224
1000.468133	163.660839
1002.630291	166.064336
1004.789993	168.046154
1006.949171	171.857343
1009.109755	176.726573
1011.267884	180.416783
1013.425489	179.543357
1015.582571	181.652448
1017.739130	181.515385
1019.891309	181.585315
1022.044894	179.595105
1024.197958	176.365734
1026.348574	177.035664
1028.500595	175.434266
1030.648243	175.320280
1032.799223	178.965734
1034.945832	179.000000
1037.091923	182.736364
1039.237494	183.567133
1041.384471	185.506294
1043.525159	186.839860
1045.669177	188.504895
1047.810754	188.973427
1049.951815	190.118881
1052.094280	189.887413
1054.230466	189.105594
1056.369978	188.493007
1058.505134	187.812587
1060.643615	188.414685
1062.777742	190.446154
1064.911356	189.105594
1067.046375	188.832168
1069.177044	187.440559
1071.309118	185.139860
1073.438763	185.717483
1075.567896	185.184615
1077.696517	183.537762
1079.824627	181.934266
1081.950311	180.913986
1084.075485	179.090210
1086.202063	180.384615
1088.324304	177.149650
1090.447948	175.717483
1092.567259	170.681818
1094.691798	167.588811
1096.810092	163.379720
1098.929791	162.270629
1101.047071	160.262238
1103.163845	159.786713
1105.280112	157.687413
1107.393964	158.738462
1109.509219	155.754545
1111.620152	157.467832
1113.734396	157.238462
1115.844320	159.984615
1117.955648	158.788112
1120.066471	158.423776
1122.172979	154.450350
1124.282795	156.901399
1126.388297	156.433566
1128.495202	156.753147
1130.595892	155.306294
1132.701794	153.664336
1134.803387	151.021678
1136.906383	151.613287
1139.008878	153.455245
1141.105166	154.218182
1143.206662	151.407692
1145.303855	149.829371
1147.400549	147.990909
1149.496745	150.418182
1151.592444	144.920280
1153.687645	145.632867
1155.780449	145.570629
1157.874655	147.895105
1159.962670	149.488811
1162.055883	154.761538
1164.142908	156.169231
1166.233232	155.319580
1168.319269	152.493706
1170.408603	150.869930
1172.491756	148.232168
1174.576311	144.044056
1176.662268	141.581119
1178.743943	143.057343
1180.827020	141.869930
1182.907711	143.465035
1184.987910	146.397902
1187.067618	153.067832
1189.146835	153.816783
1191.223670	154.771329
1193.298124	154.726573
1195.375870	153.104196
1197.449345	153.434965
1199.524221	151.979021
1201.594830	151.654545
1203.666841	147.735664
1205.736475	143.226573
1207.807510	143.431469
1209.878057	143.674126
1211.944343	144.882517
1214.012030	144.084615
1216.077345	144.167832
1218.144060	144.621678
1220.206519	143.783916
1222.272263	143.497203
1224.333754	142.281119
1226.396644	137.522378
1228.457167	135.009790
1230.517206	131.785315
1232.576763	132.073427
1234.633954	128.453846
1236.690664	129.855944
1238.745011	128.339860
1240.802638	130.052448
1242.857903	130.823077
1244.908927	133.313986
1246.961351	131.621678
1249.013295	132.874126
1251.062881	133.655944
1253.111988	137.179720
1255.160617	137.335664
1257.208767	137.190210
1259.256439	136.930070
1261.299880	139.862937
1263.346596	138.827273
1265.390959	140.138462
1267.434846	137.676224
1269.476382	138.532168
1271.515567	135.261538
1273.558026	137.272028
1275.596262	136.831469
1277.635897	136.246154
1279.675057	134.381119
1281.709998	135.407692
1283.746339	136.446853
1285.780334	139.004196
1287.815728	136.943357
1289.846908	137.327972
1291.879487	136.675524
1293.911593	136.527972
1295.941359	135.270629
1297.972523	135.939860
1299.999479	134.274126
1302.027833	132.834965
1304.051983	133.439860
1306.079397	136.994406
1308.102609	136.290210
1310.127219	135.111888
1312.149495	133.550350
1314.173168	134.924476
1316.194508	135.541259
1318.215380	132.313287
1320.235786	133.650350
1322.251997	135.201399
1324.269606	136.790210
1326.284888	138.309091
1328.303427	140.265035
1330.317778	140.909790
1332.329803	140.573427
1334.345085	138.860140
1336.356182	139.092308
1338.368676	136.745455
1340.376987	136.913287
1342.388554	135.875524
1344.394081	133.877622
1346.402864	133.003497
1348.407469	134.343357
1350.415328	134.830769
1352.422725	134.132168
1354.424091	134.858042
1356.426854	134.986713
1358.429156	135.281818
1360.430999	135.338462
1362.432382	133.645455
1364.431452	135.027972
1366.430063	135.156643
1368.428216	133.937063
1370.425911	134.400000
1372.419442	135.796503
1374.414370	136.150350
1376.408841	137.377622
1378.402855	136.839860
1380.394561	134.244056
1382.385813	133.427972
1384.374759	133.833566
1386.365100	132.963636
1388.354986	131.853846
1390.342569	132.852448
1392.329697	134.127972
1394.314525	133.329371
1396.300746	134.172028
1398.284668	135.379021
1400.268137	134.860839
1402.251154	130.703497
1404.231872	130.141958
1406.213986	132.057343
1408.193802	134.038462
1410.173168	133.586014
1412.148394	133.140559
1414.126860	136.152448
1416.103031	138.024476
1418.078754	141.876224
1420.054027	144.534266
1422.027009	146.534266
1423.999543	145.155245
1425.971630	145.559441
1427.943268	146.568531
1429.910778	147.155944
1431.883363	145.053846
1433.848141	142.267832
1435.817991	139.031469
1437.783718	138.118881
1439.750837	137.106993
1441.715673	138.062238
1443.676390	137.444755
1445.642174	137.158042
1447.602003	136.272028
1449.563225	138.530769
1451.525840	138.623077
1453.484340	137.788112
1455.442398	136.767133
1457.400013	134.828671
1459.357187	132.985315
1461.312085	135.583217
1463.268375	134.488112
1465.222391	135.929371
1467.175967	136.364336
1469.127270	138.250350
1471.079965	138.249650
1473.030389	137.595105
1474.980373	135.880420
1476.929919	136.061538
1478.877196	134.800000
1480.822206	135.680420
1482.768607	135.590210
1484.714572	138.672727
1486.660098	137.590210
1488.603360	136.646853
1490.546185	136.055944
1492.486747	137.410490
1494.428700	133.130769
1496.368392	133.404196
1498.307648	134.921678
1500.246469	139.078322
1502.183031	139.046154
1504.120984	142.876224
1506.056679	141.361538
1507.991939	142.559441
1509.924944	140.141958
1511.857516	136.928671
1513.789656	139.030769
1515.721364	138.148252
1517.650818	139.388112
1519.581663	141.197902
1521.512077	143.781119
1523.438417	146.707692
1525.366149	145.683916
1527.291630	146.018182
1529.216682	141.417483
1531.141305	140.792308
1533.065499	137.601399
1534.987446	139.298601
1536.910782	140.850350
1538.831873	142.746853
1540.750719	146.529371
1542.670955	146.774126
1544.588947	149.057343
1546.506513	151.649650
1548.421837	151.077622
1550.338551	150.026573
1552.251210	146.524476
1554.167073	143.337762
1556.080696	141.372028
1557.992082	139.390909
1559.904856	136.796503
1561.813581	139.241259
1563.723696	139.915385
1565.633387	142.182517
1567.542654	143.806294
1569.449688	146.978322
1571.354489	147.964336
1573.260679	148.776923
1575.164637	149.837762
1577.068175	149.895105
1578.971291	150.379720
1580.872179	148.808392
1582.774454	146.274126
1584.674502	145.768531
1586.575937	145.569231
1588.473339	145.320280
1590.370322	144.699301
1592.266887	146.163636
1594.164840	147.155944
1596.056958	150.552448
1597.952269	153.158042
1599.847163	154.564336
1601.739835	153.552448
1603.632091	152.469231
1605.522126	148.373427
1607.411747	146.467133
1609.300951	144.198601
1611.189741	141.923077
1613.076314	140.195804
1614.964273	140.714685
1616.848216	140.846853
1618.733547	144.069231
1620.618463	143.862937
1622.501166	145.844755
1624.385256	146.151049
1626.265335	146.033566
1628.146800	144.455944
1630.026055	144.662937
1631.906696	142.453846
1633.781533	140.619580
1635.661352	136.237063
1637.537165	137.674126
1639.412568	138.406993
1641.289358	139.697902
1643.160350	138.302098
1645.034524	140.014685
1646.904700	139.718182
1648.778056	139.197203
1650.649209	136.651049
1652.518160	138.355245
1654.388497	134.688112
1656.254840	134.156643
1658.122569	131.505594
1659.988100	133.804895
1661.855015	132.793007
1663.717942	133.925175
1665.582254	134.593706
1667.444370	135.022378
1669.306082	134.391608
1671.169178	134.946853
1673.030080	133.547552
1674.888788	136.279720
1676.747093	134.302797
1678.606783	135.572727
1680.460706	135.769231
1682.317801	137.369930
1684.174494	138.002797
1686.027211	138.901399
1687.883098	136.260839
1689.735012	135.749650
1691.586525	131.328671
1693.437637	130.505594
1695.288349	128.737063
1697.138660	128.976923
1698.986787	127.579720
1700.836297	129.974126
1702.680059	130.472727
1704.528770	131.581818
1706.371736	131.215385
1708.217867	131.089510
1710.060037	130.253846
1711.905371	131.248252
1713.744965	128.540559
1715.585943	132.310490
1717.428304	133.409091
1719.266709	134.186014
1721.106497	135.430769
1722.944110	137.717483
1724.781327	136.544755
1726.616371	139.350350
1728.452798	136.316084
1730.287053	135.827972
1732.120913	131.477622
1733.954380	130.952448
1735.783900	129.665734
1737.616579	133.539161
1739.445314	132.843357
1741.277207	133.154545
1743.105157	134.139161
1744.932715	137.463636
1746.759881	139.965734
1748.586656	141.534266
1750.413040	137.044056
1752.235487	135.134965
1754.061088	130.003497
1755.882755	130.530769
1757.705804	128.265734
1759.526692	131.555944
1761.347190	130.457343
1763.169070	133.344755
1764.985250	134.679021
1766.804582	137.662238
1768.619987	138.660140
1770.438542	138.276224
1772.253172	137.616783
1774.067416	136.692308
1775.881272	135.304895
1777.694742	136.700699
1779.506059	136.083916
1781.318757	138.411888
1783.131068	137.233566
1784.939462	139.465035
1786.749237	138.615385
1788.555096	137.739161
1790.364101	136.776224
1792.169193	137.254545
1793.975666	136.151748
1795.781755	134.749650
1797.583934	133.557343
1799.389256	135.872727
1801.190670	133.904196
1802.993464	132.653846
1804.792352	128.223776
1806.592621	130.087413
1808.392508	129.679021
1810.190254	131.346853
1811.987618	129.862238
1813.784603	131.951049
1815.581207	131.701399
1817.375672	132.100699
1819.171516	130.218182
1820.961706	134.041259
1822.756792	132.911888
1824.546225	133.081818
1826.338795	132.030070
1828.129230	133.887413
1829.917531	133.985315
1831.708967	136.962238
1833.494757	135.418182
1835.281927	137.481119
1837.066965	138.130769
1838.855137	138.772727
1840.639423	137.688811
1842.421580	140.686713
1844.205115	139.502098
1845.986522	137.502098
1847.769308	137.113287
1849.548214	134.963636
1851.328498	131.492308
1853.106656	131.109790
1854.886193	128.223077
1856.663605	127.729371
1858.438893	130.744056
1860.215560	131.907692
1861.990103	134.135664
1863.766025	135.038462
1865.536326	135.562238
1867.309755	137.284615
1869.081064	139.900699
1870.852003	138.038462
1872.624318	135.797902
1874.391020	136.900000
1876.160848	133.444056
1877.926812	135.927972
1879.695900	137.665035
1881.461126	136.113986
1883.225983	137.449650
1884.992218	137.031469
1886.754594	137.025175
1888.516603	139.525874
1890.278244	140.086713
1892.039519	139.631469
1893.800426	138.072028
1895.560967	138.300000
1897.319398	135.118182
1899.077464	134.982517
1900.833421	133.837063
1902.590756	131.069231
1904.347724	131.180420
1906.102587	132.953147
1907.855344	132.879021
1909.607738	137.210490
1911.361507	138.450350
1913.113173	137.992308
1914.862737	134.544056
1916.613677	134.815385
1918.364253	131.904895
1920.110990	131.054545
1921.859104	132.138462
1923.605118	132.346853
1925.352508	132.467832
1927.097799	132.711189
1928.840993	129.719580
1930.585563	129.732168
1932.328036	128.855245
1934.070149	128.192308
1935.811902	127.321329
1937.553296	129.590210
1939.292596	130.381469
1941.031536	130.826573
1942.770119	133.438112
1944.506609	134.590210
1946.242742	134.724126
1947.980249	133.083217
1949.713934	131.754196
1951.448994	131.025175
1953.181966	130.805944
1954.914581	130.162238
1956.646839	129.408741
1958.378741	130.468531
1960.108557	130.012587
1961.836289	129.188811
1963.565394	130.265035
1965.294145	129.683217
1967.020812	130.891608
1968.747125	131.648951
1970.474811	133.570629
1972.196961	134.608392
1973.922212	131.962937
1975.643657	129.865035
1977.368201	129.150350
1979.090666	130.331469
1980.809327	129.016084
1982.531087	128.405594
1984.249045	127.243357
1985.968376	127.704895
1987.683908	130.853846
1989.404261	134.040559
1991.120814	135.167832
1992.833571	133.776923
1994.549425	130.480420
1996.263205	131.669231
1997.976636	130.906294
1999.687996	129.161538
2001.400729	127.396503
2003.109670	127.269231
2004.821705	126.060839
2006.528230	129.746154
2008.237848	135.313986
2009.945398	137.585315
2011.652601	137.119580
2013.357738	135.295804
2015.062528	137.767133
2016.768690	140.046853
2018.471070	137.520280
2020.174822	133.760140
2021.876510	130.232168
2023.577854	126.821678
2025.278852	120.484615
2026.977790	121.401399
2028.678098	121.397203
2030.374632	119.408392
2032.072537	119.762937
2033.768383	120.953147
2035.467315	126.961538
2037.160761	130.029371
2038.855579	131.062937
2040.550053	132.474825
2042.240759	133.086713
2043.934549	132.292308
2045.624572	128.373427
2047.315966	129.948252
2049.005307	128.559441
2050.696018	125.932867
2052.382966	125.408392
2054.069575	126.486713
2055.757554	129.421678
2057.441773	130.956643
2059.127362	131.941958
2060.812612	132.313986
2062.495814	130.355245
2064.180385	129.159441
2065.859494	128.469231
2067.543388	131.014685
2069.221822	130.196503
2070.903332	128.389510
2072.581092	126.390909
2074.258514	129.133566
2075.937306	129.520979
2077.614056	130.281119
2079.288764	128.781818
2080.964841	127.186014
2082.638878	125.946154
2084.312579	129.658741
2085.985945	130.641958
2087.657273	134.018182
2089.328266	133.065734
2090.998925	132.132867
2092.669249	130.579720
2094.339240	134.268531
2096.007195	133.118182
2097.674817	132.527273
2099.340404	129.460140
2101.007361	130.565734
2102.672283	132.528671
2104.336874	135.983916
2105.999433	134.557343
2107.663360	136.500699
2109.325257	135.043357
2110.986822	136.297902
2112.648056	138.391608
2114.307262	140.427273
2115.966137	137.506993
2117.624683	136.386713
2119.282899	132.927972
2120.937391	133.127273
2122.594948	133.448951
2124.252176	133.462238
2125.905682	131.976224
2127.560556	132.328671
2129.211712	132.866434
2130.865929	132.669930
2132.516430	136.459441
2134.168297	134.146154
2135.814756	133.261538
2137.465970	133.022378
2139.113470	131.967832
2140.762337	133.978322
2142.409186	134.833566
2144.055708	136.218182
2145.701905	135.666434
2147.344394	137.844056
2148.989941	136.156643
2150.631781	132.969930
2152.276678	132.502797
2153.917870	130.313986
2155.558738	129.903497
2157.199282	131.383916
2158.837814	131.378322
2160.477712	132.090909
2162.113910	131.672727
2163.751475	131.699301
2165.388716	131.674126
2167.023948	131.586014
2168.658859	129.315385
2170.293448	128.932867
2171.927715	128.632168
2173.558289	133.446853
2175.191915	133.053846
2176.821849	135.909790
2178.453148	135.317483
2180.082442	135.972028
2181.711417	134.627972
2183.340073	133.055245
2184.968409	129.230769
2186.594742	128.434965
2188.220757	123.499301
2189.844771	123.195105
2191.470149	123.058042
2193.093528	121.455944
2194.718270	119.086713
2196.339332	122.714685
2197.960077	123.744755
2199.582187	128.582517
2201.202299	130.001399
2202.820414	133.401399
2204.438214	134.831469
2206.055699	136.737063
2207.672868	136.272727
2209.289722	140.920280
2210.906261	139.795105
2212.520806	133.944755
2214.133359	130.153147
2215.747276	127.844056
2217.359202	124.990909
2218.972491	125.502797
2220.583790	122.601399
2222.193099	122.983217
2223.803772	123.176923
2225.412456	124.002098
2227.020828	127.088811
2228.627212	125.700699
2230.234960	123.235664
2231.840721	122.687413
2233.446171	122.056643
2235.049636	122.189510
2236.654464	125.334266
2238.257309	127.451049
2239.858170	126.208392
2241.460393	126.370629
2243.060635	126.240559
2244.662239	128.249650
2246.260191	128.361538
2247.859505	122.953147
2249.456839	122.091608
2251.053864	124.751049
2252.652252	125.937063
2254.246991	126.927273
2255.839753	130.098601
2257.433878	130.982517
2259.029364	128.983217
2260.621206	128.940559
2262.212741	129.066434
2263.805637	131.452448
2265.393224	131.525874
2266.985508	128.460140
2268.572484	130.031469
2270.162489	132.630769
2271.747189	132.618881
2273.336583	133.654545
2274.920674	134.280420
2276.506127	132.204196
2278.089610	129.382517
2279.676120	129.529371
2281.258996	126.006294
2282.841568	123.507692
2284.423837	120.944056
2286.002477	122.991608
2287.584140	124.287413
2289.162175	126.444755
2290.743233	126.286014
2292.320665	128.267133
2293.896132	125.539860
2295.474622	125.435664
2297.049488	123.693706
2298.624053	126.163636
2300.198318	122.392308
2301.772282	124.604196
2303.345946	127.106294
2304.919309	129.276923
2306.489054	129.060839
2308.058500	130.639860
2309.630965	129.520979
2311.198154	127.776923
2312.768362	122.799301
2314.334955	122.917483
2315.902908	120.411888
2317.468905	120.951049
2319.034605	120.853846
2320.600008	127.386014
2322.163456	131.710490
2323.728264	135.802098
2325.289464	138.572028
2326.853678	142.514685
2328.412631	142.681818
2329.974597	139.900000
2331.534613	135.486014
2333.094333	132.739161
2334.652104	125.333566
2336.209580	121.239860
2337.766762	115.873427
2339.321997	112.017483
2340.876937	112.123077
2342.431584	111.796503
2343.985937	109.687413
2345.539996	110.784615
2347.093761	111.921678
2348.645583	113.116783
2350.195461	117.800000
2351.748347	120.509790
2353.295991	122.806294
2354.846642	128.947552
2356.393702	127.739860
2357.942121	128.921678
2359.490247	130.152448
2361.034785	127.186014
2362.580681	123.458741
2364.124639	120.937762
2365.669954	119.751748
2367.211684	117.586014
2368.754771	119.509091
2370.295923	117.734266
2371.836785	118.625175
2373.377358	119.304895
2374.917641	118.562937
2376.457636	120.139860
2377.994053	117.941259
2379.533471	120.144056
2381.069312	120.487413
2382.606509	123.180420
2384.140131	124.735664
2385.676754	128.032867
2387.211445	130.886713
2388.744207	131.004895
2390.276682	126.543357
2391.807230	123.334965
2393.340775	122.506993
2394.869109	120.945455
2396.398799	120.367832
2397.928204	123.158741
2399.457323	120.641259
2400.986158	123.181818
2402.509787	123.042657
2404.038053	127.713986
2405.561115	127.335664
2407.088811	128.381818
2408.609668	126.442657
2410.135158	129.388811
2411.657087	129.762238
2413.180372	130.990909
2414.701736	131.915385
2416.221180	130.120280
2417.741979	126.493706
2419.260859	125.820979
2420.779457	122.432168
2422.296138	124.627273
2423.814173	123.969231
2425.331927	125.988112
2426.846130	127.323077
2428.360052	129.434266
2429.873694	130.216084
2431.388691	131.016783
2432.900139	131.711189
2434.412942	131.583217
2435.923832	130.314685
2437.434442	128.085315
2438.943141	125.730070
2440.454827	126.084615
2441.962968	122.874126
2443.470832	124.276923
2444.978418	122.367832
2446.482463	124.285315
2447.989494	125.000699
2449.494616	126.107692
2450.999461	129.534965
2452.502399	130.211888
2454.005060	128.081119
2455.507445	126.084615
2457.007925	122.794406
2458.509758	121.859441
2460.009687	118.881818
2461.509340	118.230070
2463.008717	115.972028
2464.506192	116.121678
2466.001765	114.826573
2467.500319	116.140559
2468.995343	115.180420
2470.491721	113.744755
2471.984571	113.236364
2473.478775	113.856643
2474.972705	113.079720
2476.463112	116.601399
2477.956495	119.761538
2479.447981	121.532867
2480.937570	125.687413
2482.426887	124.869930
2483.914309	121.676224
2485.404706	120.584615
2486.891584	118.076923
2488.379814	118.027972
2489.864528	114.778322
2491.348971	113.810490
2492.834766	114.413986
2494.318668	118.094406
2495.803922	119.983916
2497.284042	124.830070
2498.767134	125.425874
2500.248336	123.300000
2501.729269	120.418182
2503.208313	119.796503
2504.687088	117.663636
2506.165595	115.855245
2507.643834	111.080420
2509.121804	111.218182
2510.596270	109.928671
2512.073704	111.023776
2513.547635	109.182517
2515.022916	112.147552
2516.497931	111.632867
2517.969444	112.948951
2519.442307	112.773427
2520.913288	114.032867
2522.385619	113.719580
2523.852837	111.534965
2525.323020	110.531469
2526.791323	110.928671
2528.259361	110.436364
2529.727134	112.451049
2531.194642	110.149650
2532.661885	111.302098
2534.125636	112.016084
2535.590737	113.089510
2537.053961	114.997203
2538.518535	116.322378
2539.979619	117.892308
2541.442053	119.719580
2542.904224	119.967133
2544.362909	119.572727
2545.826166	118.404895
2547.284326	117.845455
2548.743835	115.294406
2550.198251	116.619580
2551.657236	117.389510
2553.114350	118.443357
2554.569593	120.827972
2556.024575	119.550350
2557.477687	120.999301
2558.932148	123.382517
2560.384740	119.002098
2561.837072	116.680420
2563.287536	114.151049
2564.740956	112.283916
2566.189294	110.448951
2567.640588	111.678322
2569.090015	111.332867
2570.535970	108.767832
2571.984881	110.111888
2573.430320	106.365734
2574.877108	106.791608
2576.322032	108.469231
2577.766699	107.941259
2579.212713	111.430769
2580.655260	112.311888
2582.099155	113.404895
2583.539585	115.370629
2584.981362	116.090210
2586.421280	114.885315
2587.862545	114.043357
2589.300349	112.245455
2590.741102	109.579720
2592.176792	109.324476
2593.615432	108.482517
2595.052215	109.810490
2596.487141	109.465035
2597.925016	106.769930
2599.357832	107.689510
2600.791996	107.527273
2602.224306	107.061538
2603.657962	106.155245
2605.089765	107.525175
2606.521315	106.404196
2607.952611	106.333566
2609.382055	107.803497
2610.811248	110.468531
2612.238589	110.044056
2613.667277	109.473427
2615.095712	110.846154
2616.520700	114.260839
2617.947035	114.277622
2619.371521	116.791608
2620.797353	118.574825
2622.219741	119.520979
2623.643475	118.144056
2625.065362	114.648252
2626.487000	113.653147
2627.906792	110.379720
2629.327930	104.653846
2630.748818	105.845455
2632.166268	106.800699
2633.586657	108.590909
2635.003609	112.400000
2636.420313	116.830070
2637.836768	120.869930
2639.252975	124.982517
2640.668933	124.637762
2642.083051	123.124476
2643.496922	120.053147
2644.908953	116.411189
2646.322329	113.114685
2647.732275	110.798601
2649.145156	108.037762
2650.554610	106.009790
2651.963817	104.986713
2653.371187	105.569231
2654.781493	106.415385
2656.189962	108.757343
2657.596596	107.238462
2659.002985	108.902797
2660.407540	111.334266
2661.813439	115.209091
2663.217505	116.190210
2664.621326	117.546853
2666.024904	119.887413
2667.426649	119.155245
2668.829738	117.220280
2670.229409	117.319580
2671.630424	116.420280
2673.028023	115.742657
2674.428552	114.572727
2675.825666	114.373427
2677.224123	114.675524
2678.620752	117.081119
2680.017139	119.303497
2681.413285	119.970629
2682.807604	120.473427
2684.203266	117.264336
2685.595518	115.450350
2686.989114	112.239161
2688.380885	113.259441
2689.773998	113.361538
2691.165288	112.423077
2692.554755	110.974825
2693.943982	108.495804
2695.332970	110.903497
2696.723300	112.878322
2698.108645	111.492308
2699.496914	108.116783
2700.883363	105.770629
2702.269573	104.125175
2703.655545	103.565734
2705.038117	109.427972
2706.422032	112.599301
2707.805709	111.008392
2709.189148	108.825874
2710.569191	105.513287
2711.950576	106.967832
2713.330145	106.852448
2714.711056	106.272727
2716.090151	103.815385
2717.467433	103.255245
2718.846056	102.336364
2720.222866	104.974126
2721.599440	107.003497
2722.975778	108.059441
2724.350304	107.710490
2725.726171	108.810490
2727.098651	108.573427
2728.474047	111.880420
2729.844483	114.249650
2731.216260	115.446154
2732.587802	115.902797
2733.957536	115.823776
2735.328611	112.997203
2736.697877	111.155245
2738.066911	108.628671
2739.434137	109.079021
2740.801131	109.887413
2742.167892	110.890909
2743.534420	109.640559
2744.899143	112.116084
2746.263635	112.979021
2747.627894	110.833566
2748.991921	109.618881
2750.355717	110.004895
2751.716139	105.686713
2753.079472	103.454545
2754.437862	103.100000
2755.799162	101.914685
2757.157091	101.333566
2758.517930	101.955944
2759.876968	101.723077
2761.232638	102.650350
2762.591216	103.751049
2763.946428	102.283217
2765.301410	104.085315
2766.654595	107.796503
2768.010687	107.100000
2769.363415	104.701399
2770.715914	104.593706
2772.068185	102.716783
2773.421795	101.620280
2774.772043	100.490210
2776.120498	99.865734
2777.471857	100.496503
2778.819857	100.663636
2780.169196	101.361538
2781.516742	104.524476
2782.864061	107.662238
2784.211154	107.707692
2785.556456	104.995804
2786.901532	102.760140
2788.246382	102.062937
2789.591005	100.524476
2790.932277	98.456643
2792.274887	97.955944
2793.617271	98.172727
2794.959431	96.314685
2796.298241	97.167133
2797.639950	96.276923
2798.978312	100.684615
2800.318011	100.868531
2801.655924	101.367832
2802.992053	101.190210
2804.327958	107.125874
2805.665201	108.641259
2807.000660	109.960140
2808.335896	110.836364
2809.669349	110.842657
2811.004140	111.330070
2812.335589	111.209790
2813.669934	111.393706
2814.999381	112.482517
2816.330165	110.124476
2817.660727	110.239161
2818.989510	106.822378
2820.319629	111.299301
2821.647970	108.981119
2822.976090	110.392308
2824.302432	108.557343
2825.630111	106.441958
2826.954457	106.852448
2828.280138	105.306993
2829.604044	104.158741
2830.927731	102.837762
2832.252753	101.351748
2833.574445	101.983217
2834.895919	100.364336
2836.217174	104.281818
2837.538210	104.218182
2838.857474	107.248951
2840.178073	103.165734
2841.496900	102.241958
2842.815509	99.745455
2844.132347	97.057343
2845.448968	95.738462
2846.765372	94.351748
2848.080007	91.848951
2849.395976	93.802797
2850.708625	95.813287
2852.022610	97.403497
2853.336377	97.182517
2854.649929	97.533566
2855.961713	96.075524
2857.271731	97.193007
2858.583084	94.341958
2859.891122	97.736364
2861.200495	97.461538
2862.509652	97.053846
2863.818594	99.176923
2865.125773	103.783217
2866.431188	108.433566
2867.737938	107.516783
2869.042925	103.552448
2870.347699	103.520280
2871.650711	100.394406
2872.956605	97.072028
2874.257643	95.883916
2875.560016	97.946154
2876.860629	94.053147
2878.162576	95.574825
2879.464310	97.812587
2880.762739	101.073427
2882.062503	104.746154
2883.360508	105.061538
2884.658302	104.311189
2885.954340	105.477622
2887.251711	101.567832
2888.547326	103.434266
2889.842730	103.296503
2891.137924	101.746853
2892.429819	97.184615
2893.724591	96.520280
2895.016066	94.049650
2896.308874	95.118881
2897.601472	93.801399
2898.890776	92.756643
2900.181412	92.883217
2901.470297	93.418881
2902.760515	94.643357
2904.047440	96.606294
2905.335699	95.113986
2906.622207	96.811189
2907.908508	96.355944
2909.194600	97.651049
2910.478944	97.765734
2911.766160	97.630769
2913.048548	96.432168
2914.332269	97.015385
2915.614244	94.952448
2916.896012	94.282517
2918.176034	95.014685
2919.458926	94.297902
2920.740073	93.073427
2922.017938	96.676923
2923.298672	97.953147
2924.576125	98.654545
2925.853372	101.384615
2927.128878	101.555944
2928.407251	102.431469
2929.680809	103.410490
2930.957235	97.416783
2932.231920	98.809790
2933.504865	99.233566
2934.779140	97.478322
2936.051676	94.372028
2937.324008	93.019580
2938.593066	90.596503
2939.864990	92.284615
2941.135176	94.582517
2942.405159	94.251049
2943.674938	92.510490
2944.942980	93.593007
2946.209287	89.224476
2947.475391	89.925874
2948.742825	88.768531
2950.008525	89.884615
2951.274022	89.144755
2952.539317	87.182517
2953.801347	87.279720
2955.064708	90.482517
2956.327866	91.070629
2957.589293	90.360140
2958.852049	91.154545
2960.113074	92.136364
2961.372367	90.653846
2962.631461	91.267133
2963.890354	92.067133
2965.149047	93.057343
2966.407540	91.834266
2967.664304	90.266434
2968.920868	87.982517
2970.175705	87.223776
2971.431871	83.638462
2972.684781	82.498601
2973.939021	84.465734
2975.193062	86.619580
2976.445377	87.504196
2977.697494	89.074126
2978.947886	89.638462
2980.201133	89.384615
2981.449603	89.795105
2982.700927	88.522378
2983.949003	86.686713
2985.196881	86.522378
2986.444562	83.402098
2987.692047	87.142657
2988.937810	89.911888
2990.183376	91.982517
2991.430270	91.597902
2992.673920	93.495804
2993.918898	93.733566
2995.160633	92.968531
2996.405218	93.606294
2997.648085	92.339161
2998.887711	92.227972
3000.130187	91.001399
3001.369424	88.211189
3002.609988	89.293007
3003.848835	87.163636
3005.087488	85.258741
3006.324425	85.080420
3007.562689	87.590909
3008.799239	87.072028
3010.035594	88.861538
3011.271756	87.092308
3012.506205	87.537063
3013.740460	89.146853
3014.974522	86.339860
3016.206872	84.691608
3017.437510	85.264336
3018.670994	84.639860
3019.902766	85.786713
3021.132828	87.846154
3022.362698	92.552448
3023.590858	94.197203
3024.820344	95.409790
3026.048122	92.246853
3027.275708	95.807692
3028.504620	95.648252
3029.728790	92.858042
3030.955803	92.427972
3032.179592	90.885315
3033.404708	86.904895
3034.628117	85.374126
3035.851337	85.232867
3037.072851	87.301399
3038.297206	84.709790
3039.516826	84.698601
3040.737771	83.134266
3041.958528	84.720280
3043.177581	83.783916
3044.397960	84.815385
3045.615122	85.800699
3046.833609	83.980420
3048.050394	80.472727
3049.266992	80.838462
3050.483401	79.872028
3051.696598	79.433566
3052.912632	75.679021
3054.125454	76.683217
3055.341113	78.502797
3056.552049	78.941259
3057.764310	79.772727
3058.976385	82.224476
3060.188273	85.203497
3061.398463	85.175524
3062.608467	84.668182
3063.818286	85.218881
3065.026408	84.308042
3066.234344	84.753846
3067.440586	83.939510
3068.648151	83.772727
3069.854023	83.515035
3071.059709	81.669930
3072.265210	79.248601
3073.469018	81.444056
3074.674150	82.277273
3075.877590	82.313287
3077.079337	81.787063
3078.280901	80.678322
3079.482281	79.495105
3080.683477	78.587413
3081.882983	78.600699
3083.082305	78.281818
3084.282951	77.914685
3085.481907	78.995804
3086.677669	78.281818
3087.876260	83.538462
3089.071657	85.002797
3090.268377	89.188811
3091.461905	88.041259
3092.658261	88.300000
3093.852931	86.376224
3095.044410	84.396503
3096.240220	81.471329
3097.431337	79.153147
3098.623776	77.993007
3099.813028	75.694406
3101.005106	74.485315
3102.195499	77.845455
3103.382707	79.320280
3104.571238	84.029371
3105.761091	84.220979
3106.947759	86.334965
3108.134248	85.746154
3109.320557	82.354545
3110.508188	77.902098
3111.692638	76.058042
3112.875407	74.932867
3114.061000	71.914685
3115.244912	71.593007
3116.427146	75.810490
3117.609201	77.609091
3118.791079	81.638462
3119.972778	84.672727
3121.152799	89.141259
3122.331144	89.430070
3123.512310	86.431469
3124.690300	83.162937
3125.868113	82.004895
3127.045749	80.816084
3128.221710	78.595105
3129.397494	78.455245
3130.574600	79.706294
3131.750031	79.063636
3132.923789	78.530769
3134.095875	78.981119
3135.269281	78.979720
3136.442512	76.218881
3137.614070	76.025175
3138.786950	74.113986
3139.956662	75.170629
3141.127695	75.490210
3142.297057	76.059441
3143.464750	77.898601
3144.635258	79.393706
3145.801107	79.683217
3146.971266	79.739161
3148.136767	81.088112
3149.302095	79.800699
3150.467249	80.911189
3151.632229	81.903497
3152.798530	82.627972
3153.960177	81.069930
3155.123145	76.956643
3156.285939	73.093007
3157.448561	74.476923
3158.609518	76.152448
3159.770302	75.858042
3160.930914	77.983217
3162.089863	78.254545
3163.248639	78.280420
3164.407244	79.974825
3165.565677	80.856643
3166.723938	80.564336
3167.880537	76.381818
3169.035475	73.753147
3170.191732	74.317483
3171.346329	76.688112
3172.500754	77.525874
3173.653520	74.677622
3174.806116	75.295105
3175.958541	74.248951
3177.110797	72.797203
3178.262883	70.199301
3179.411822	70.951748
3180.563568	69.482517
3181.713656	71.494406
3182.862088	73.858741
3184.010351	76.924476
3185.158444	76.742657
3186.306369	80.572028
3187.452639	80.739860
3188.598740	82.630769
3189.743186	80.766434
3190.887465	77.839860
3192.031576	78.822378
3193.177005	80.353846
3194.319294	78.588811
3195.461417	77.512587
3196.603372	76.085315
3197.745161	78.768531
3198.886782	77.120979
3200.025267	78.353846
3201.165070	78.311888
3202.306191	78.209091
3203.444177	77.332168
3204.580514	78.410490
3205.716685	78.766434
3206.854174	76.846154
3207.990013	74.153147
3209.127170	72.825175
3210.259714	71.975524
3211.396540	72.241958
3212.528754	69.083916
3213.662286	66.562238
3214.795652	64.854545
3215.925891	63.406294
3217.058928	65.069930
3218.188839	64.643357
3219.320067	63.639860
3220.448169	64.369930
3221.579068	64.623776
3222.708324	69.481818
3223.835935	69.988811
3224.960425	71.455944
3226.089190	71.919580
3227.214833	72.516084
3228.340313	71.620280
3229.464152	72.887413
3230.590785	72.800699
3231.712821	71.467832
3232.836173	69.696503
3233.959363	68.342657
3235.082391	65.427273
3236.203779	70.042657
3237.325006	67.110490
3238.444594	68.589510
3239.564021	67.033566
3240.681810	70.028671
3241.802392	66.846154
3242.919859	67.398601
3244.037167	67.955245
3245.154313	68.488811
3246.269824	69.751049
3247.386650	70.935664
3248.500365	71.431469
3249.616870	74.532867
3250.731741	74.774825
3251.843503	76.139860
3252.955106	74.497203
3254.068023	76.862937
3255.180782	73.695804
3256.290434	74.716084
3257.401400	73.776923
3258.512208	73.694406
3259.621385	74.581818
3260.728930	71.943357
3261.837790	72.290909
3262.946491	72.500699
3264.052090	72.904196
3265.159003	73.237063
3266.264288	73.101399
3267.370886	74.513287
3268.474384	73.575524
3269.579196	71.934965
3270.683851	67.751049
3271.785407	66.418182
3272.886808	63.446154
3273.989522	64.432168
3275.092079	67.539860
3276.191540	70.214685
3277.293785	71.706993
3278.392934	77.514685
3279.490459	77.863636
3280.587828	80.718182
3281.687980	79.137762
3282.785038	76.520280
3283.881941	71.772028
3284.978689	70.384615
3286.070879	69.301399
3287.167317	70.500699
3288.262134	69.567832
3289.356795	70.898601
3290.449835	69.750350
3291.542721	71.316783
3292.633986	69.809790
3293.726564	69.886713
3294.817521	65.678322
3295.906859	65.210490
3296.996044	66.600699
3298.086542	68.770629
3299.173955	67.302098
3300.261216	64.467832
3301.349789	63.266434
3302.438209	62.644755
3303.522082	61.746853
3304.610197	62.569231
3305.695231	62.929371
3306.778648	63.814685
3307.863378	62.143357
3308.946493	65.919580
3310.030919	68.765734
3311.112267	70.584615
3312.194927	66.443357
3313.275973	65.314685
3314.356868	62.582517
3315.436150	60.800699
3316.515281	61.786713
3317.595723	62.406294
3318.673092	63.652448
3319.751771	64.140559
3320.828840	61.512587
3321.905758	64.983217
3322.981065	64.351748
3324.056223	64.595804
3325.132692	61.221678
3326.206091	62.071329
3327.279341	60.941958
3328.353902	63.095804
3329.426853	64.479021
3330.498197	66.122378
3331.570851	67.816084
3332.640438	67.811189
3333.711336	65.897902
3334.780627	68.388112
3335.851229	66.810490
3336.920224	65.709790
3337.987613	63.858042
3339.053397	62.404895
3340.123407	62.444056
3341.190354	60.647552
3342.254239	59.250350
3343.320892	60.502098
3344.385940	63.100699
3345.449385	65.746154
3346.512684	67.223776
3347.575836	69.256643
3348.638842	69.821678
3349.701702	70.497203
3350.762960	68.251049
3351.821161	67.970629
3352.883583	63.221678
3353.942948	59.886713
3355.002168	57.454545
3356.062698	58.565734
3357.118718	60.725175
3358.177503	62.117483
3359.231780	61.670629
3360.288820	62.059441
3361.344263	61.795804
3362.401014	61.709091
3363.456168	59.931469
3364.509724	62.218881
3365.561683	56.999301
3366.616404	56.723776
3367.668076	52.541259
3368.719605	54.139161
3369.772443	56.355245
3370.822233	57.711189
3371.873331	60.637762
3372.921384	62.350350
3373.972197	62.878322
3375.019964	61.795105
3376.067589	63.551049
3377.115071	65.758741
3378.160961	63.479720
3379.208159	63.667133
3380.252315	60.105594
3381.299229	61.241958
3382.344551	60.593007
3383.386833	60.762238
3384.428973	60.692308
3385.472421	58.838462
3386.515729	57.262238
3387.557446	54.375524
3388.599022	54.536364
3389.640458	54.526573
3390.680304	54.452448
3391.718563	56.751049
3392.758129	57.265035
3393.797554	59.558741
3394.835392	60.045455
3395.871643	64.444056
3396.907755	66.132168
3397.945174	67.695804
3398.979560	67.241259
3400.015253	68.583916
3401.050807	69.320979
3402.083330	68.855944
3403.118606	66.984615
3404.150851	65.086713
3405.182958	64.170629
3406.213481	62.172727
3407.245312	60.317483
3408.277003	60.627273
3409.305668	59.916783
3410.334194	61.266434
3411.364028	62.012587
3412.393723	65.064336
3413.420393	64.033566
3414.448370	61.909790
3415.473322	61.847552
3416.501024	60.093706
3417.525703	59.590909
3418.551688	59.524476
3419.576093	59.788811
3420.600362	62.282517
3421.623052	60.046154
3422.645606	60.552448
3423.669466	59.818182
3424.690306	62.526573
3425.711011	61.303596
3426.733021	59.149950
3427.752013	55.991508
3428.770870	51.754146
3429.791032	46.363736
3430.808178	39.746154
