-118.448435	-0.285165
-115.778835	5.616484
-113.112170	8.726973
-110.446257	9.624276
-107.783276	8.886364
-105.118866	7.091209
-102.457386	4.816783
-99.794476	3.218881
-97.136674	4.286713
-94.477441	2.088112
-91.818958	5.065734
-89.163398	5.527972
-86.506410	5.756643
-83.854519	5.851748
-81.201199	9.113287
-78.550799	8.395804
-75.898969	11.900699
-73.252230	10.264336
-70.604061	10.577622
-67.956636	11.743357
-65.312124	12.692308
-62.666184	12.057343
-60.025325	12.634266
-57.383037	11.762937
-54.743657	13.643357
-52.102849	13.003497
-49.462781	15.219580
-46.827785	17.669930
-44.191360	20.809091
-41.557839	18.930070
-38.922889	18.969930
-36.293004	19.367832
-33.659527	18.986713
-31.031112	18.539161
-28.403430	15.927273
-25.774321	7.323077
-23.150268	-39.723776
-20.522626	-205.981818
-17.900037	-613.181818
-15.278180	-536.455944
-12.657053	754.538462
-10.036656	2785.525175
-7.419147	4509.015385
-4.800210	5697.822378
-2.184159	6345.413986
0.431164	6447.529371
3.045760	6011.419580
5.657473	5046.671329
8.270615	3585.846853
10.878723	1752.981818
13.490413	-58.517483
16.097072	-894.083916
18.705159	-593.950350
21.312522	-85.234266
23.914860	13.758741
26.520776	16.137063
29.121670	17.346853
31.723992	14.206294
34.321297	13.496503
36.922177	14.920280
39.518043	13.788811
42.115336	12.621678
44.711910	13.806993
47.303475	8.178322
49.896468	6.997203
52.486600	8.236364
55.078160	9.158741
57.666860	10.374126
60.256987	10.972028
62.842116	11.194406
65.428671	12.763636
68.014513	15.344056
70.597501	13.639161
73.181915	15.655245
75.759201	17.420280
78.340053	15.957343
80.918056	19.051049
83.495349	18.768531
86.074068	16.581119
88.647806	15.544056
91.222970	17.067133
93.795291	17.193007
96.366904	16.941958
98.935677	17.915385
101.505877	16.793007
104.073239	19.113986
106.642026	19.993706
109.207977	22.604196
111.771093	24.932867
114.337765	23.183916
116.895216	25.773427
119.458352	31.375524
122.016529	45.062238
124.578259	63.843357
127.135034	97.699301
129.693234	146.887413
132.246482	211.111189
134.799031	289.909790
137.355131	383.089510
139.906284	483.885315
142.456738	584.651748
145.006496	676.832867
147.553434	757.709790
150.099676	822.355944
152.647344	866.715385
155.194317	891.185315
157.736353	902.318881
160.277696	899.839161
162.818346	892.675524
165.360422	877.893706
167.899687	864.280420
170.436142	857.734266
172.971907	851.490909
175.509097	843.357343
178.045595	842.331469
180.579288	842.907692
183.110178	837.452448
185.640379	836.174825
188.172005	834.754545
190.700830	833.260839
193.226856	833.779720
195.752197	826.665035
198.278962	821.234266
200.802930	819.164336
203.326214	809.623077
205.848813	803.502797
208.368619	801.692308
210.887742	798.220979
213.406182	793.101399
215.926046	795.069231
218.438909	797.169930
220.955303	800.626573
223.471015	804.211888
225.981838	799.927273
228.494085	798.429371
231.003549	794.665734
233.512335	791.562238
236.020443	789.107692
238.529974	786.232168
241.034625	788.355245
243.538601	788.831469
246.044000	795.476923
248.544524	805.730769
251.048571	814.321678
253.545648	826.187413
256.046247	834.924476
258.544075	851.447552
261.041230	865.899301
263.537712	883.044056
266.029331	905.379720
268.524470	938.483916
271.016843	979.413287
273.508545	1015.239860
275.997483	1045.295804
278.487846	1052.346853
280.975447	1047.796503
283.460288	1174.351049
285.948643	1763.867832
288.430059	3177.513287
290.914989	5203.275524
293.395074	7205.653147
295.878671	8735.423776
298.357425	9621.755944
300.837603	9787.102098
303.315028	9234.146154
305.791790	8014.792308
308.267889	6261.050350
310.741239	4240.862238
313.213927	2385.241958
315.685954	1188.535664
318.157320	847.884615
320.625942	950.782517
323.093904	1039.100699
325.563289	1041.594406
328.027850	1023.081119
330.495916	988.588112
332.959162	960.432867
335.421750	938.037762
337.883682	929.544755
340.344957	929.532168
342.803498	929.049650
345.263461	924.158042
347.720691	921.677622
350.177267	910.907692
352.633189	901.452448
355.086382	896.678322
357.540996	894.199301
359.990809	885.969231
362.444119	882.107692
364.892629	872.255944
367.340489	863.665035
369.789770	852.872727
372.234258	843.608392
374.680168	829.291608
377.125429	817.586014
379.567970	807.960140
382.009864	800.838462
384.451111	796.771329
386.889642	796.273427
389.329595	793.055944
391.766834	794.156643
394.201361	792.011189
396.639376	792.537762
399.072614	792.136364
401.507274	791.018182
403.937160	788.111189
406.370532	785.740559
408.799134	787.616084
411.227095	785.298601
413.656476	783.231469
416.081092	786.026573
418.507130	786.452448
420.932527	787.702797
423.357284	789.576224
425.777283	795.226573
428.198703	795.808392
430.617426	800.858741
433.037570	804.954545
435.455019	808.278322
437.873888	809.512587
440.290064	812.418182
442.701493	814.727972
445.116398	820.042657
447.528613	823.369930
449.940194	823.132168
452.351141	824.855245
454.759402	827.281119
457.167030	821.734266
459.574027	820.953846
461.980391	817.783916
464.384073	816.699301
466.787125	807.840559
469.189547	801.611888
471.591340	796.874126
473.990454	794.264336
476.390988	790.208392
478.790893	784.845455
481.186075	781.425874
483.584724	773.401399
485.978653	764.052448
488.371956	752.955245
490.764633	740.300000
493.156685	726.063636
495.550156	703.070629
497.938914	683.861538
500.325006	666.909790
502.712518	646.980420
505.099406	623.949650
507.483631	607.221678
509.869275	593.074825
512.252256	578.686014
514.632577	568.548951
517.014317	561.790210
519.393398	555.837762
521.773898	551.128671
524.151740	548.766434
526.526927	547.928671
528.901496	550.197902
531.277484	550.199301
533.650818	550.881818
536.025570	561.120280
538.395637	565.938462
540.765088	571.094406
543.135957	578.708392
545.502146	589.573427
547.869753	593.572727
550.234714	600.209091
552.599062	605.244755
554.962798	609.804895
557.327951	620.517483
559.688431	630.288112
562.050330	638.796503
564.409589	644.737762
566.766209	643.002797
569.126274	639.779720
571.479649	632.460839
573.836468	624.347552
576.190651	612.416783
578.544227	606.423776
580.897194	593.076224
583.247530	587.225874
585.599282	585.375524
587.944358	581.351748
590.294898	575.221678
592.638765	561.955245
594.988092	548.270629
597.332772	532.587413
599.674826	513.616783
602.018298	497.086713
604.359147	476.923077
606.699394	464.183217
609.037020	449.462238
611.378081	439.034965
613.714504	432.958042
616.052345	430.284615
618.387567	428.006993
620.720174	419.467133
623.054197	413.604196
625.385607	411.927972
627.716418	410.500000
630.046631	408.523776
632.376246	402.167832
634.701239	401.302797
637.031673	400.249650
639.357485	398.965035
641.680691	399.654545
644.005312	404.098601
646.327329	400.739860
648.648751	397.144755
650.967570	396.030769
653.287805	394.893007
655.607447	394.360839
657.924488	390.972028
660.240937	389.553147
662.554788	390.215385
664.870055	390.714685
667.182725	390.872727
669.496810	389.425175
671.806295	388.051748
674.117196	385.739161
676.425504	387.051049
678.733224	386.473427
681.042359	382.554545
683.346901	381.417483
685.650856	376.427972
687.954226	376.083916
690.259010	376.191608
692.559208	374.006294
694.860820	374.204196
697.161848	370.570629
699.458293	368.169930
701.756154	369.276224
704.053431	368.316783
706.350125	369.704196
708.642243	369.742657
710.937772	369.331469
713.228728	365.874126
715.521098	366.282517
717.810892	367.084615
720.100107	367.441958
722.388741	373.310490
724.674804	373.588112
726.962280	377.427273
729.247186	376.863636
731.531513	379.667133
733.813272	383.370629
736.096445	386.681818
738.379041	387.355944
740.657082	385.746154
742.936536	387.245455
745.215415	385.478322
747.493718	386.272727
749.767472	389.643357
752.042640	389.697203
754.317234	391.150350
756.589268	388.532867
758.862716	388.389510
761.133606	385.736364
763.401940	387.134965
765.671687	387.426573
767.938880	387.060839
770.205502	387.041958
772.471555	388.710490
774.735055	393.061538
776.999969	396.168531
779.264313	399.700000
781.524128	403.694406
783.785356	402.646853
786.046015	402.604196
788.304129	402.996503
790.559698	406.353147
792.818658	401.959441
795.071119	400.051049
797.328947	396.557343
799.582255	394.309790
801.833024	390.041259
804.085205	383.916783
806.334848	384.369231
808.585902	384.216783
810.832445	379.646154
813.080400	381.364336
815.325821	382.283217
817.572653	382.510490
819.818924	379.732168
822.060691	382.667133
824.305840	377.592308
826.544517	373.962937
828.786577	372.147552
831.024138	373.238462
833.263110	376.805594
835.499556	375.248252
837.737413	375.257343
839.972745	376.267133
842.205554	379.651748
844.439774	380.153846
846.671472	380.931469
848.902615	378.204895
851.133203	374.219580
853.363236	372.307692
855.592716	372.183916
857.817714	371.614685
860.046087	367.409091
862.269981	366.333566
864.495285	364.374126
866.716114	364.458741
868.940315	368.759441
871.160043	370.042657
873.381182	368.698601
875.601770	370.184615
877.819848	370.669231
880.039337	372.190210
882.254359	373.820280
884.468833	370.556643
886.682760	369.743357
888.896139	369.317483
891.108971	362.838462
893.321257	366.567832
895.531040	363.405594
897.740278	363.930769
899.948971	361.033566
902.155165	361.520280
904.362768	360.930070
906.567874	364.202098
908.772436	363.392308
910.974502	366.116084
913.177978	368.181818
915.378960	367.950350
917.579401	368.246853
919.781249	373.945455
921.976707	371.898601
924.175524	371.679720
926.369902	369.921678
928.567638	370.410490
930.760938	371.322378
932.955647	371.213287
935.147870	373.493007
937.339555	378.504196
939.530702	376.620280
941.719366	377.767133
943.907493	378.041958
946.093140	381.737063
948.282139	381.605594
950.466715	381.699301
952.650756	386.100000
954.838147	390.537762
957.017234	394.713986
959.199672	400.467133
961.381576	407.837063
963.561006	414.572028
965.737963	417.353147
967.916327	422.170629
970.096099	421.626573
972.269522	427.216084
974.446291	426.483916
976.618653	430.896503
978.792423	432.456643
980.961789	432.028671
983.134500	434.601399
985.304744	439.829371
987.474460	439.864336
989.643647	443.959441
991.808437	446.083217
993.976568	446.427273
996.140305	448.888811
998.305448	453.148252
1000.468133	455.902797
1002.630291	464.382517
1004.789993	464.905594
1006.949171	469.306993
1009.109755	475.549650
1011.267884	477.971329
1013.425489	475.042657
1015.582571	475.547552
1017.739130	472.676923
1019.891309	470.111888
1022.044894	474.082517
1024.197958	474.537063
1026.348574	474.485315
1028.500595	480.407692
1030.648243	483.958042
1032.799223	490.793706
1034.945832	494.255245
1037.091923	493.618182
1039.237494	496.610490
1041.384471	498.560140
1043.525159	500.418881
1045.669177	498.849650
1047.810754	498.360839
1049.951815	498.773427
1052.094280	496.894406
1054.230466	504.742657
1056.369978	507.936364
1058.505134	509.036364
1060.643615	507.330070
1062.777742	507.530769
1064.911356	507.298601
1067.046375	504.793706
1069.177044	500.865035
1071.309118	494.197203
1073.438763	490.657343
1075.567896	489.126573
1077.696517	486.883916
1079.824627	487.297203
1081.950311	481.647552
1084.075485	478.271329
1086.202063	472.051748
1088.324304	470.060140
1090.447948	466.579720
1092.567259	466.562238
1094.691798	463.533566
1096.810092	464.101399
1098.929791	461.864336
1101.047071	456.104895
1103.163845	452.555944
1105.280112	451.932168
1107.393964	443.872727
1109.509219	438.958042
1111.620152	431.539161
1113.734396	430.418881
1115.844320	430.033566
1117.955648	431.473427
1120.066471	431.520979
1122.172979	430.232168
1124.282795	427.177622
1126.388297	422.235664
1128.495202	422.200699
1130.595892	423.678322
1132.701794	415.820280
1134.803387	416.920280
1136.906383	413.189510
1139.008878	411.972028
1141.105166	411.259441
1143.206662	411.006993
1145.303855	410.697902
1147.400549	407.967133
1149.496745	408.818182
1151.592444	405.740559
1153.687645	405.746853
1155.780449	404.255245
1157.874655	401.022378
1159.962670	403.651049
1162.055883	400.131469
1164.142908	400.067133
1166.233232	399.253147
1168.319269	401.065734
1170.408603	403.369930
1172.491756	408.756643
1174.576311	411.251049
1176.662268	409.208392
1178.743943	408.405594
1180.827020	404.932168
1182.907711	402.509790
1184.987910	400.617483
1187.067618	396.523776
1189.146835	398.039860
1191.223670	397.606993
1193.298124	400.622378
1195.375870	404.125874
1197.449345	406.561538
1199.524221	403.574126
1201.594830	399.611888
1203.666841	396.687413
1205.736475	393.715385
1207.807510	392.687413
1209.878057	390.613986
1211.944343	390.785315
1214.012030	393.137063
1216.077345	393.981119
1218.144060	391.300699
1220.206519	390.200699
1222.272263	387.837063
1224.333754	386.023776
1226.396644	384.776224
1228.457167	384.720979
1230.517206	386.063636
1232.576763	391.507692
1234.633954	391.341259
1236.690664	391.280420
1238.745011	391.084615
1240.802638	390.428671
1242.857903	388.388112
1244.908927	387.655245
1246.961351	387.505594
1249.013295	385.993007
1251.062881	384.351049
1253.111988	382.423776
1255.160617	385.992308
1257.208767	387.447552
1259.256439	384.347552
1261.299880	381.761538
1263.346596	382.939161
1265.390959	381.574126
1267.434846	385.622378
1269.476382	386.067133
1271.515567	387.406294
1273.558026	385.834965
1275.596262	386.120979
1277.635897	388.602797
1279.675057	395.132168
1281.709998	393.664336
1283.746339	396.105594
1285.780334	393.469231
1287.815728	393.625175
1289.846908	388.051748
1291.879487	388.998601
1293.911593	387.996503
1295.941359	386.102797
1297.972523	381.853846
1299.999479	380.147552
1302.027833	378.169231
1304.051983	378.572727
1306.079397	377.780420
1308.102609	378.890210
1310.127219	377.130070
1312.149495	376.154545
1314.173168	372.120979
1316.194508	376.959441
1318.215380	378.700699
1320.235786	379.023077
1322.251997	378.449650
1324.269606	378.558741
1326.284888	376.677622
1328.303427	378.091608
1330.317778	377.015385
1332.329803	374.430769
1334.345085	374.148951
1336.356182	371.266434
1338.368676	370.223077
1340.376987	375.424476
1342.388554	376.651049
1344.394081	377.690909
1346.402864	377.767133
1348.407469	380.507692
1350.415328	379.958741
1352.422725	377.918182
1354.424091	376.986713
1356.426854	377.418881
1358.429156	376.145455
1360.430999	375.506294
1362.432382	375.386713
1364.431452	377.797203
1366.430063	376.294406
1368.428216	377.462238
1370.425911	378.818182
1372.419442	379.676923
1374.414370	377.630070
1376.408841	374.804895
1378.402855	375.552448
1380.394561	374.586713
1382.385813	372.260839
1384.374759	371.697902
1386.365100	372.121678
1388.354986	371.754545
1390.342569	370.853147
1392.329697	376.258042
1394.314525	378.337762
1396.300746	378.387413
1398.284668	378.540559
1400.268137	380.159441
1402.251154	378.793706
1404.231872	380.536364
1406.213986	378.499301
1408.193802	378.974825
1410.173168	381.014685
1412.148394	381.160839
1414.126860	379.963636
1416.103031	383.597902
1418.078754	386.462937
1420.054027	385.494406
1422.027009	386.711888
1423.999543	387.682517
1425.971630	385.535664
1427.943268	388.365035
1429.910778	384.100000
1431.883363	385.216783
1433.848141	384.186014
1435.817991	384.258042
1437.783718	380.640559
1439.750837	381.798601
1441.715673	382.155245
1443.676390	377.491608
1445.642174	378.164336
1447.602003	379.868531
1449.563225	382.022378
1451.525840	386.269231
1453.484340	386.627972
1455.442398	392.212587
1457.400013	393.401399
1459.357187	395.369231
1461.312085	397.411189
1463.268375	394.793706
1465.222391	390.133566
1467.175967	386.469930
1469.127270	384.934965
1471.079965	384.394406
1473.030389	382.621678
1474.980373	385.135664
1476.929919	384.580420
1478.877196	388.268531
1480.822206	388.002797
1482.768607	392.352448
1484.714572	392.079021
1486.660098	390.126573
1488.603360	386.315385
1490.546185	387.827972
1492.486747	384.125175
1494.428700	381.850350
1496.368392	381.613986
1498.307648	383.626573
1500.246469	381.095804
1502.183031	384.401399
1504.120984	383.696503
1506.056679	386.592308
1507.991939	386.077622
1509.924944	387.302098
1511.857516	388.267133
1513.789656	391.421678
1515.721364	391.458042
1517.650818	391.634266
1519.581663	392.627972
1521.512077	396.077622
1523.438417	388.976224
1525.366149	391.762238
1527.291630	389.157343
1529.216682	389.979720
1531.141305	388.961538
1533.065499	386.670629
1534.987446	389.612587
1536.910782	391.508392
1538.831873	394.068531
1540.750719	393.343357
1542.670955	394.467832
1544.588947	398.429371
1546.506513	400.499301
1548.421837	410.949650
1550.338551	412.691608
1552.251210	420.166434
1554.167073	420.155944
1556.080696	419.492308
1557.992082	417.908392
1559.904856	416.474825
1561.813581	410.301399
1563.723696	404.924476
1565.633387	399.811888
1567.542654	396.822378
1569.449688	398.570629
1571.354489	399.758741
1573.260679	402.237063
1575.164637	410.760839
1577.068175	410.532168
1578.971291	414.990210
1580.872179	416.613287
1582.774454	417.962937
1584.674502	414.335664
1586.575937	413.854545
1588.473339	408.663636
1590.370322	404.705594
1592.266887	403.613287
1594.164840	402.502098
1596.056958	401.807692
1597.952269	401.371329
1599.847163	400.378322
1601.739835	404.254545
1603.632091	401.865035
1605.522126	398.585315
1607.411747	396.916084
1609.300951	396.681818
1611.189741	395.779021
1613.076314	397.741259
1614.964273	398.372727
1616.848216	399.120280
1618.733547	399.390210
1620.618463	401.153147
1622.501166	402.230070
1624.385256	405.479720
1626.265335	401.777622
1628.146800	400.781119
1630.026055	402.074126
1631.906696	401.322378
1633.781533	399.193706
1635.661352	398.821678
1637.537165	397.612587
1639.412568	395.948252
1641.289358	391.329371
1643.160350	387.396503
1645.034524	383.981818
1646.904700	384.465734
1648.778056	381.264336
1650.649209	382.153846
1652.518160	382.534965
1654.388497	382.777622
1656.254840	380.503497
1658.122569	384.587413
1659.988100	384.509091
1661.855015	384.822378
1663.717942	383.347552
1665.582254	384.762238
1667.444370	385.244056
1669.306082	385.668531
1671.169178	382.759441
1673.030080	383.030070
1674.888788	380.657343
1676.747093	378.536364
1678.606783	373.413287
1680.460706	375.204895
1682.317801	371.142657
1684.174494	373.232867
1686.027211	373.765035
1687.883098	374.174126
1689.735012	372.140559
1691.586525	371.667133
1693.437637	370.171329
1695.288349	370.769231
1697.138660	368.690909
1698.986787	369.536364
1700.836297	365.234965
1702.680059	368.362238
1704.528770	366.477622
1706.371736	371.376224
1708.217867	372.484615
1710.060037	373.480420
1711.905371	373.353846
1713.744965	373.858741
1715.585943	372.786014
1717.428304	373.494406
1719.266709	375.069930
1721.106497	376.354545
1722.944110	374.153147
1724.781327	374.755245
1726.616371	372.602098
1728.452798	374.446853
1730.287053	374.139860
1732.120913	373.190210
1733.954380	368.777622
1735.783900	368.376923
1737.616579	365.983217
1739.445314	368.682517
1741.277207	367.892308
1743.105157	366.730070
1744.932715	365.025175
1746.759881	364.412587
1748.586656	364.898601
1750.413040	366.794406
1752.235487	367.054545
1754.061088	367.632867
1755.882755	366.153147
1757.705804	368.344755
1759.526692	366.567832
1761.347190	368.946154
1763.169070	368.183217
1764.985250	368.591608
1766.804582	366.286713
1768.619987	369.532867
1770.438542	369.748252
1772.253172	369.639860
1774.067416	368.323776
1775.881272	366.846853
1777.694742	363.202797
1779.506059	364.534266
1781.318757	360.431469
1783.131068	358.881119
1784.939462	360.248951
1786.749237	359.553846
1788.555096	362.463636
1790.364101	368.230769
1792.169193	371.524476
1793.975666	374.930070
1795.781755	377.027273
1797.583934	376.722378
1799.389256	375.700000
1801.190670	374.152448
1802.993464	366.697203
1804.792352	363.306294
1806.592621	360.848252
1808.392508	360.883916
1810.190254	363.993007
1811.987618	364.281818
1813.784603	366.720979
1815.581207	368.879021
1817.375672	369.465035
1819.171516	369.874825
1820.961706	368.384615
1822.756792	370.816783
1824.546225	370.665734
1826.338795	371.035664
1828.129230	370.470629
1829.917531	376.057343
1831.708967	377.415385
1833.494757	376.597902
1835.281927	375.527972
1837.066965	373.665035
1838.855137	372.779720
1840.639423	370.603497
1842.421580	369.292308
1844.205115	374.716783
1845.986522	374.119580
1847.769308	374.500000
1849.548214	375.306294
1851.328498	379.046154
1853.106656	378.539161
1854.886193	378.346154
1856.663605	377.118881
1858.438893	376.454545
1860.215560	376.074825
1861.990103	372.830070
1863.766025	373.718182
1865.536326	378.086014
1867.309755	378.972727
1869.081064	381.393007
1870.852003	379.095804
1872.624318	380.811189
1874.391020	378.495804
1876.160848	382.007692
1877.926812	382.201399
1879.695900	383.479720
1881.461126	382.013287
1883.225983	381.232168
1884.992218	382.132867
1886.754594	381.644056
1888.516603	378.974126
1890.278244	376.320979
1892.039519	370.427972
1893.800426	370.750350
1895.560967	364.527273
1897.319398	367.343357
1899.077464	365.293706
1900.833421	364.223077
1902.590756	364.388112
1904.347724	363.486713
1906.102587	362.909091
1907.855344	360.799301
1909.607738	358.264336
1911.361507	361.467832
1913.113173	363.143357
1914.862737	365.728671
1916.613677	361.763636
1918.364253	364.891608
1920.110990	362.166434
1921.859104	362.160839
1923.605118	360.190210
1925.352508	358.033566
1927.097799	357.392308
1928.840993	357.056643
1930.585563	356.788112
1932.328036	361.572028
1934.070149	361.983916
1935.811902	362.073427
1937.553296	360.344755
1939.292596	364.502797
1941.031536	367.707692
1942.770119	371.523077
1944.506609	372.411888
1946.242742	374.738462
1947.980249	373.334266
1949.713934	373.753147
1951.448994	374.167832
1953.181966	372.791608
1954.914581	369.067832
1956.646839	364.883916
1958.378741	364.555245
1960.108557	366.506294
1961.836289	367.964336
1963.565394	368.527273
1965.294145	370.102797
1967.020812	370.881818
1968.747125	370.063636
1970.474811	373.807692
1972.196961	376.306294
1973.922212	377.320280
1975.643657	378.755944
1977.368201	379.806993
1979.090666	379.574126
1980.809327	379.353147
1982.531087	378.337063
1984.249045	374.158042
1985.968376	372.969231
1987.683908	369.897902
1989.404261	366.559441
1991.120814	365.565035
1992.833571	362.862937
1994.549425	362.369231
1996.263205	359.752448
1997.976636	361.343357
1999.687996	363.339161
2001.400729	369.283916
2003.109670	372.403497
2004.821705	374.825175
2006.528230	375.599301
2008.237848	375.946853
2009.945398	377.176923
2011.652601	376.933566
2013.357738	372.033566
2015.062528	367.328671
2016.768690	364.027273
2018.471070	364.069930
2020.174822	365.714685
2021.876510	366.785315
2023.577854	368.076224
2025.278852	370.043357
2026.977790	369.096503
2028.678098	370.986014
2030.374632	372.483916
2032.072537	370.872727
2033.768383	366.774825
2035.467315	367.888811
2037.160761	369.690210
2038.855579	366.763636
2040.550053	366.692308
2042.240759	364.750350
2043.934549	363.432867
2045.624572	363.204895
2047.315966	361.631469
2049.005307	362.011189
2050.696018	360.513287
2052.382966	360.227273
2054.069575	360.039161
2055.757554	366.380420
2057.441773	368.194406
2059.127362	366.772028
2060.812612	366.326573
2062.495814	364.921678
2064.180385	362.388112
2065.859494	365.119580
2067.543388	364.834965
2069.221822	367.053147
2070.903332	367.446154
2072.581092	368.238462
2074.258514	367.599301
2075.937306	372.822378
2077.614056	371.272028
2079.288764	369.797203
2080.964841	365.901399
2082.638878	364.182517
2084.312579	361.679720
2085.985945	362.943357
2087.657273	360.848252
2089.328266	359.549650
2090.998925	359.788811
2092.669249	358.662937
2094.339240	361.014685
2096.007195	364.897902
2097.674817	365.835664
2099.340404	369.928671
2101.007361	370.481818
2102.672283	373.420979
2104.336874	371.427972
2105.999433	369.701399
2107.663360	367.455245
2109.325257	366.171329
2110.986822	365.192308
2112.648056	363.372028
2114.307262	362.220979
2115.966137	363.434266
2117.624683	363.823077
2119.282899	368.555245
2120.937391	370.331469
2122.594948	368.875524
2124.252176	368.079720
2125.905682	369.441958
2127.560556	368.106993
2129.211712	368.513986
2130.865929	363.558741
2132.516430	359.660140
2134.168297	355.333566
2135.814756	355.193706
2137.465970	354.346154
2139.113470	356.357343
2140.762337	356.572028
2142.409186	355.034965
2144.055708	359.863636
2145.701905	363.950350
2147.344394	365.023776
2148.989941	364.677622
2150.631781	361.884615
2152.276678	361.096503
2153.917870	360.088811
2155.558738	360.500699
2157.199282	361.537762
2158.837814	361.037063
2160.477712	357.760839
2162.113910	358.509091
2163.751475	359.315385
2165.388716	361.428671
2167.023948	360.748951
2168.658859	359.765734
2170.293448	358.423776
2171.927715	360.251748
2173.558289	361.390909
2175.191915	364.758042
2176.821849	367.490210
2178.453148	366.160140
2180.082442	363.935664
2181.711417	364.755944
2183.340073	362.085315
2184.968409	360.618182
2186.594742	357.327273
2188.220757	358.135664
2189.844771	354.426573
2191.470149	354.755944
2193.093528	356.197902
2194.718270	357.667133
2196.339332	356.808392
2197.960077	357.164336
2199.582187	357.500699
2201.202299	356.797902
2202.820414	353.509790
2204.438214	349.923077
2206.055699	348.673427
2207.672868	349.225874
2209.289722	347.608392
2210.906261	348.798601
2212.520806	350.188112
2214.133359	348.840559
2215.747276	348.983217
2217.359202	352.151049
2218.972491	351.711189
2220.583790	355.055944
2222.193099	355.441259
2223.803772	358.758042
2225.412456	360.605594
2227.020828	362.246853
2228.627212	364.602098
2230.234960	365.615385
2231.840721	364.473427
2233.446171	361.633566
2235.049636	359.706294
2236.654464	357.839860
2238.257309	355.127273
2239.858170	356.675524
2241.460393	351.881119
2243.060635	351.180420
2244.662239	348.911888
2246.260191	349.975524
2247.859505	352.623776
2249.456839	352.791608
2251.053864	354.011189
2252.652252	355.315385
2254.246991	358.890210
2255.839753	361.969231
2257.433878	363.467832
2259.029364	363.410490
2260.621206	357.562238
2262.212741	358.169231
2263.805637	356.648252
2265.393224	357.290909
2266.985508	357.437762
2268.572484	357.613287
2270.162489	354.843357
2271.747189	355.110490
2273.336583	354.528671
2274.920674	354.082517
2276.506127	353.386713
2278.089610	352.836364
2279.676120	347.450350
2281.258996	347.793706
2282.841568	344.780070
2284.423837	343.339860
2286.002477	342.327622
2287.584140	342.543357
2289.162175	336.401748
2290.743233	337.278322
2292.320665	336.252797
2293.896132	338.106294
2295.474622	340.701748
2297.049488	342.417483
2298.624053	340.947902
2300.198318	345.502098
2301.772282	342.554895
2303.345946	340.678322
2304.919309	340.390210
2306.489054	337.099301
2308.058500	334.555944
2309.630965	335.781818
2311.198154	335.038462
2312.768362	338.239161
2314.334955	337.602797
2315.902908	338.653147
2317.468905	336.867133
2319.034605	342.518881
2320.600008	346.074126
2322.163456	357.652448
2323.728264	366.365734
2325.289464	370.228671
2326.853678	372.432867
2328.412631	371.081818
2329.974597	368.460140
2331.534613	363.950350
2333.094333	354.502098
2334.652104	346.286713
2336.209580	337.309790
2337.766762	334.700699
2339.321997	333.531469
2340.876937	338.004196
2342.431584	338.795105
2343.985937	339.118881
2345.539996	337.042657
2347.093761	339.705594
2348.645583	340.765035
2350.195461	341.132168
2351.748347	342.306294
2353.295991	342.822378
2354.846642	341.352448
2356.393702	341.160140
2357.942121	339.104196
2359.490247	340.190909
2361.034785	339.022378
2362.580681	337.577622
2364.124639	336.074825
2365.669954	337.269930
2367.211684	337.281818
2368.754771	337.422378
2370.295923	333.696503
2371.836785	332.443357
2373.377358	332.664336
2374.917641	335.306993
2376.457636	337.866434
2377.994053	341.608392
2379.533471	341.196503
2381.069312	344.139860
2382.606509	343.316084
2384.140131	343.267133
2385.676754	341.592308
2387.211445	337.530070
2388.744207	333.716783
2390.276682	333.115385
2391.807230	331.564336
2393.340775	330.534965
2394.869109	331.445455
2396.398799	332.058042
2397.928204	332.948252
2399.457323	334.850350
2400.986158	331.852448
2402.509787	333.990909
2404.038053	334.865734
2405.561115	336.445455
2407.088811	336.601399
2408.609668	338.330769
2410.135158	335.964336
2411.657087	336.058741
2413.180372	336.110490
2414.701736	336.484615
2416.221180	337.328671
2417.741979	333.688811
2419.260859	334.002098
2420.779457	337.102098
2422.296138	336.286014
2423.814173	335.587413
2425.331927	335.052448
2426.846130	336.916084
2428.360052	334.268531
2429.873694	334.604196
2431.388691	335.168531
2432.900139	335.430070
2434.412942	336.872727
2435.923832	335.985315
2437.434442	336.858741
2438.943141	338.860140
2440.454827	337.435664
2441.962968	341.297203
2443.470832	341.860140
2444.978418	340.455944
2446.482463	340.673427
2447.989494	338.627972
2449.494616	337.402797
2450.999461	337.529371
2452.502399	335.572028
2454.005060	331.953846
2455.507445	328.819580
2457.007925	329.736364
2458.509758	330.199301
2460.009687	333.269231
2461.509340	332.247552
2463.008717	331.344755
2464.506192	330.069231
2466.001765	328.872028
2467.500319	328.184615
2468.995343	332.165035
2470.491721	331.732168
2471.984571	330.647552
2473.478775	334.355245
2474.972705	336.169930
2476.463112	335.851748
2477.956495	334.311189
2479.447981	331.714685
2480.937570	333.223776
2482.426887	331.030769
2483.914309	331.437762
2485.404706	330.443357
2486.891584	334.142657
2488.379814	332.388112
2489.864528	329.322378
2491.348971	328.825874
2492.834766	324.525175
2494.318668	321.425874
2495.803922	321.008392
2497.284042	323.425175
2498.767134	327.905594
2500.248336	326.308392
2501.729269	326.586713
2503.208313	327.906294
2504.687088	329.186014
2506.165595	324.731469
2507.643834	324.211189
2509.121804	323.889510
2510.596270	323.326573
2512.073704	323.779720
2513.547635	323.289510
2515.022916	323.211888
2516.497931	324.200000
2517.969444	325.051748
2519.442307	325.222378
2520.913288	325.211888
2522.385619	324.915385
2523.852837	322.379720
2525.323020	325.092308
2526.791323	325.997203
2528.259361	324.795105
2529.727134	323.693007
2531.194642	322.267133
2532.661885	322.672028
2534.125636	322.765734
2535.590737	323.041259
2537.053961	322.950350
2538.518535	321.851049
2539.979619	320.801399
2541.442053	317.594406
2542.904224	319.839860
2544.362909	321.248252
2545.826166	320.749650
2547.284326	323.987413
2548.743835	325.109790
2550.198251	324.053147
2551.657236	319.631469
2553.114350	318.176923
2554.569593	321.286014
2556.024575	320.725175
2557.477687	322.716783
2558.932148	321.546154
2560.384740	325.813986
2561.837072	325.939161
2563.287536	326.029371
2564.740956	327.012587
2566.189294	324.783217
2567.640588	321.634266
2569.090015	320.278322
2570.535970	318.883916
2571.984881	322.620280
2573.430320	324.193706
2574.877108	325.777622
2576.322032	326.312587
2577.766699	328.509091
2579.212713	326.494406
2580.655260	323.177622
2582.099155	323.149650
2583.539585	323.266434
2584.981362	317.148252
2586.421280	314.400699
2587.862545	311.138462
2589.300349	312.751049
2590.741102	313.158042
2592.176792	314.375524
2593.615432	314.735664
2595.052215	313.704196
2596.487141	311.233566
2597.925016	311.133566
2599.357832	313.155944
2600.791996	310.773427
2602.224306	306.980420
2603.657962	308.669930
2605.089765	310.203497
2606.521315	310.774825
2607.952611	308.351049
2609.382055	309.866434
2610.811248	307.754545
2612.238589	304.365734
2613.667277	301.212587
2615.095712	301.531469
2616.520700	299.090909
2617.947035	298.256643
2619.371521	300.870629
2620.797353	305.813986
2622.219741	306.862238
2623.643475	308.139161
2625.065362	311.151049
2626.487000	316.739161
2627.906792	317.143357
2629.327930	316.147552
2630.748818	319.600000
2632.166268	317.837762
2633.586657	315.562937
2635.003609	314.150350
2636.420313	313.825874
2637.836768	314.366434
2639.252975	310.707692
2640.668933	312.097902
2642.083051	312.009091
2643.496922	309.723776
2644.908953	309.218881
2646.322329	312.708392
2647.732275	314.354545
2649.145156	314.374126
2650.554610	313.999301
2651.963817	313.770629
2653.371187	313.110490
2654.781493	311.777622
2656.189962	308.651748
2657.596596	310.173427
2659.002985	307.850350
2660.407540	305.869231
2661.813439	309.856643
2663.217505	313.326573
2664.621326	313.006993
2666.024904	316.804895
2667.426649	314.802098
2668.829738	317.863636
2670.229409	315.778322
2671.630424	314.183916
2673.028023	313.332168
2674.428552	312.596503
2675.825666	309.410490
2677.224123	309.220979
2678.620752	310.767832
2680.017139	310.758042
2681.413285	311.201399
2682.807604	309.402098
2684.203266	307.695804
2685.595518	308.516783
2686.989114	305.793007
2688.380885	304.306294
2689.773998	304.697902
2691.165288	305.463636
2692.554755	306.355944
2693.943982	309.637063
2695.332970	310.059441
2696.723300	311.239161
2698.108645	311.425175
2699.496914	306.691608
2700.883363	304.323077
2702.269573	302.749650
2703.655545	297.742657
2705.038117	297.219580
2706.422032	301.255944
2707.805709	303.481818
2709.189148	302.141958
2710.569191	303.030070
2711.950576	300.405594
2713.330145	304.498601
2714.711056	304.396503
2716.090151	303.069231
2717.467433	301.976923
2718.846056	303.063636
2720.222866	300.010490
2721.599440	305.432867
2722.975778	307.392308
2724.350304	304.660839
2725.726171	301.335664
2727.098651	300.181119
2728.474047	297.300000
2729.844483	299.860140
2731.216260	298.130070
2732.587802	298.783217
2733.957536	302.364336
2735.328611	305.559441
2736.697877	303.078322
2738.066911	305.960140
2739.434137	304.905594
2740.801131	303.432867
2742.167892	302.666434
2743.534420	300.051748
2744.899143	297.818182
2746.263635	295.525175
2747.627894	295.612587
2748.991921	296.720280
2750.355717	297.759441
2751.716139	296.805594
2753.079472	295.353846
2754.437862	295.134266
2755.799162	296.221678
2757.157091	296.766434
2758.517930	297.081119
2759.876968	296.478322
2761.232638	292.455245
2762.591216	289.841259
2763.946428	288.641259
2765.301410	286.907692
2766.654595	285.248951
2768.010687	284.661538
2769.363415	286.267832
2770.715914	283.648252
2772.068185	285.262937
2773.421795	288.891608
2774.772043	290.283217
2776.120498	293.535664
2777.471857	291.682517
2778.819857	293.433566
2780.169196	294.143357
2781.516742	295.253147
2782.864061	295.313287
2784.211154	294.032168
2785.556456	294.353147
2786.901532	290.567832
2788.246382	289.862937
2789.591005	291.504196
2790.932277	287.087413
2792.274887	288.144755
2793.617271	287.803497
2794.959431	289.986713
2796.298241	290.851049
2797.639950	291.781119
2798.978312	288.755944
2800.318011	287.244056
2801.655924	285.594406
2802.992053	285.886713
2804.327958	285.213986
2805.665201	285.241958
2807.000660	283.486014
2808.335896	285.920979
2809.669349	289.469231
2811.004140	292.525874
2812.335589	291.948252
2813.669934	294.231469
2814.999381	293.431469
2816.330165	295.462937
2817.660727	294.920280
2818.989510	297.573427
2820.319629	296.126573
2821.647970	293.906993
2822.976090	292.229371
2824.302432	292.202797
2825.630111	289.718881
2826.954457	286.489510
2828.280138	283.629371
2829.604044	285.780420
2830.927731	284.818881
2832.252753	285.418881
2833.574445	286.451049
2834.895919	288.250350
2836.217174	286.449650
2837.538210	287.348951
2838.857474	286.339161
2840.178073	288.018881
2841.496900	284.341958
2842.815509	283.232168
2844.132347	281.607692
2845.448968	281.142657
2846.765372	277.316783
2848.080007	274.834266
2849.395976	273.399301
2850.708625	274.582517
2852.022610	273.486713
2853.336377	275.109790
2854.649929	272.957343
2855.961713	274.731469
2857.271731	275.756643
2858.583084	278.813986
2859.891122	279.814685
2861.200495	279.143357
2862.509652	276.487413
2863.818594	276.688811
2865.125773	274.447552
2866.431188	275.486713
2867.737938	271.512587
2869.042925	270.461538
2870.347699	269.930070
2871.650711	270.318182
2872.956605	272.955245
2874.257643	275.267832
2875.560016	273.269231
2876.860629	275.531469
2878.162576	278.369930
2879.464310	283.432168
2880.762739	283.754545
2882.062503	282.248951
2883.360508	279.447552
2884.658302	277.366434
2885.954340	273.206294
2887.251711	270.274825
2888.547326	268.533566
2889.842730	264.495804
2891.137924	259.386713
2892.429819	262.134266
2893.724591	262.593706
2895.016066	266.515385
2896.308874	267.492308
2897.601472	265.938462
2898.890776	268.608392
2900.181412	269.913287
2901.470297	271.486713
2902.760515	272.158741
2904.047440	273.423776
2905.335699	271.413986
2906.622207	268.528671
2907.908508	266.811888
2909.194600	264.204895
2910.478944	262.894406
2911.766160	259.001399
2913.048548	258.113986
2914.332269	261.683217
2915.614244	264.435664
2916.896012	266.399301
2918.176034	266.420979
2919.458926	268.937063
2920.740073	269.648252
2922.017938	269.071329
2923.298672	265.110490
2924.576125	263.798601
2925.853372	264.439860
2927.128878	260.911189
2928.407251	263.292308
2929.680809	264.639161
2930.957235	263.722378
2932.231920	262.538462
2933.504865	260.899301
2934.779140	261.287413
2936.051676	261.922378
2937.324008	260.369930
2938.593066	258.792308
2939.864990	258.642657
2941.135176	257.365035
2942.405159	253.408392
2943.674938	256.536364
2944.942980	255.188811
2946.209287	255.290210
2947.475391	253.851049
2948.742825	255.314685
2950.008525	255.770629
2951.274022	255.584615
2952.539317	254.625874
2953.801347	256.441259
2955.064708	252.330769
2956.327866	250.765035
2957.589293	247.830070
2958.852049	249.193007
2960.113074	248.836364
2961.372367	250.541259
2962.631461	249.295105
2963.890354	251.771329
2965.149047	251.701399
2966.407540	253.152448
2967.664304	254.190210
2968.920868	257.232867
2970.175705	257.694406
2971.431871	258.381818
2972.684781	255.184615
2973.939021	253.769930
2975.193062	253.879720
2976.445377	253.946853
2977.697494	252.526573
2978.947886	251.020280
2980.201133	249.934965
2981.449603	252.736364
2982.700927	252.862238
2983.949003	258.298601
2985.196881	259.110490
2986.444562	258.498601
2987.692047	254.479720
2988.937810	251.954545
2990.183376	252.734266
2991.430270	252.273427
2992.673920	250.332168
2993.918898	250.660140
2995.160633	247.842657
2996.405218	249.762238
2997.648085	248.095804
2998.887711	253.587413
3000.130187	252.302797
3001.369424	253.327273
3002.609988	250.492308
3003.848835	252.162238
3005.087488	250.808392
3006.324425	252.681818
3007.562689	253.286014
3008.799239	255.867133
3010.035594	249.798601
3011.271756	251.030769
3012.506205	249.014685
3013.740460	250.138462
3014.974522	251.655245
3016.206872	252.357343
3017.437510	251.666434
3018.670994	255.704196
3019.902766	254.678322
3021.132828	257.419580
3022.362698	256.793007
3023.590858	258.274825
3024.820344	256.684615
3026.048122	258.548951
3027.275708	253.925175
3028.504620	252.449650
3029.728790	251.120280
3030.955803	245.904196
3032.179592	242.457343
3033.404708	242.259441
3034.628117	239.729371
3035.851337	236.844755
3037.072851	233.281818
3038.297206	234.616084
3039.516826	234.816084
3040.737771	235.815385
3041.958528	235.400699
3043.177581	238.709091
3044.397960	240.863636
3045.615122	242.497902
3046.833609	243.516783
3048.050394	246.347552
3049.266992	245.637063
3050.483401	246.852448
3051.696598	245.407692
3052.912632	247.396503
3054.125454	246.460140
3055.341113	244.590210
3056.552049	243.748951
3057.764310	244.921678
3058.976385	245.133566
3060.188273	245.072028
3061.398463	244.481119
3062.608467	243.217483
3063.818286	240.204196
3065.026408	241.277622
3066.234344	238.108392
3067.440586	240.932867
3068.648151	238.078322
3069.854023	236.784615
3071.059709	233.361538
3072.265210	234.213986
3073.469018	236.804895
3074.674150	238.761538
3075.877590	239.037063
3077.079337	237.119580
3078.280901	233.211189
3079.482281	234.297902
3080.683477	232.709790
3081.882983	234.560140
3083.082305	231.358042
3084.282951	232.818182
3085.481907	229.379720
3086.677669	231.046154
3087.876260	230.509091
3089.071657	229.533566
3090.268377	226.413287
3091.461905	224.240559
3092.658261	222.849650
3093.852931	227.567133
3095.044410	227.524476
3096.240220	228.969231
3097.431337	227.731469
3098.623776	229.665035
3099.813028	230.566434
3101.005106	233.754545
3102.195499	233.285315
3103.382707	233.665035
3104.571238	230.500699
3105.761091	232.151748
3106.947759	233.431469
3108.134248	235.130769
3109.320557	232.658741
3110.508188	230.176923
3111.692638	223.669930
3112.875407	222.325874
3114.061000	221.724476
3115.244912	222.930070
3116.427146	220.158741
3117.609201	220.755245
3118.791079	221.095105
3119.972778	224.166434
3121.152799	222.913287
3122.331144	223.018881
3123.512310	221.775524
3124.690300	221.722378
3125.868113	217.685315
3127.045749	218.081818
3128.221710	216.986713
3129.397494	218.809091
3130.574600	219.515385
3131.750031	223.600699
3132.923789	225.422378
3134.095875	227.957343
3135.269281	227.077622
3136.442512	229.604196
3137.614070	229.474825
3138.786950	231.162238
3139.956662	231.065035
3141.127695	232.576224
3142.297057	233.269231
3143.464750	234.398601
3144.635258	232.398601
3145.801107	228.617483
3146.971266	226.738462
3148.136767	226.923776
3149.302095	223.388112
3150.467249	223.367133
3151.632229	220.420280
3152.798530	221.567832
3153.960177	222.088112
3155.123145	224.927972
3156.285939	224.872727
3157.448561	225.566434
3158.609518	222.217483
3159.770302	218.174825
3160.930914	215.370629
3162.089863	216.086713
3163.248639	212.739860
3164.407244	214.014685
3165.565677	210.886014
3166.723938	210.825874
3167.880537	211.725175
3169.035475	211.755944
3170.191732	209.689510
3171.346329	210.206993
3172.500754	208.441958
3173.653520	208.674825
3174.806116	207.493706
3175.958541	212.477622
3177.110797	214.341259
3178.262883	216.383916
3179.411822	215.852448
3180.563568	220.121678
3181.713656	218.974825
3182.862088	219.279720
3184.010351	218.689510
3185.158444	217.742657
3186.306369	217.313287
3187.452639	219.367133
3188.598740	219.081119
3189.743186	220.940559
3190.887465	219.532168
3192.031576	219.083217
3193.177005	218.611189
3194.319294	219.043357
3195.461417	213.116783
3196.603372	216.042657
3197.745161	214.210490
3198.886782	214.497203
3200.025267	216.630769
3201.165070	217.761538
3202.306191	217.853846
3203.444177	216.473427
3204.580514	214.565035
3205.716685	215.703497
3206.854174	212.828671
3207.990013	209.844056
3209.127170	205.952448
3210.259714	206.349650
3211.396540	205.965035
3212.528754	207.621678
3213.662286	210.151049
3214.795652	209.616084
3215.925891	209.216783
3217.058928	210.442657
3218.188839	209.909790
3219.320067	207.206294
3220.448169	204.227972
3221.579068	201.558741
3222.708324	197.160140
3223.835935	198.295105
3224.960425	200.269231
3226.089190	201.622378
3227.214833	203.448951
3228.340313	202.912587
3229.464152	202.725175
3230.590785	204.462238
3231.712821	200.787413
3232.836173	198.825874
3233.959363	196.180420
3235.082391	198.116783
3236.203779	198.816084
3237.325006	204.500000
3238.444594	208.288112
3239.564021	211.637063
3240.681810	210.386713
3241.802392	209.783916
3242.919859	206.497902
3244.037167	203.511189
3245.154313	196.348951
3246.269824	192.920280
3247.386650	188.707692
3248.500365	190.176224
3249.616870	190.289510
3250.731741	190.825874
3251.843503	193.142657
3252.955106	194.247552
3254.068023	192.070629
3255.180782	196.351748
3256.290434	196.677622
3257.401400	198.510490
3258.512208	196.118182
3259.621385	199.249650
3260.728930	202.359441
3261.837790	205.783916
3262.946491	203.136364
3264.052090	202.660140
3265.159003	201.660140
3266.264288	199.520979
3267.370886	195.340559
3268.474384	197.699301
3269.579196	195.006993
3270.683851	196.606993
3271.785407	197.849650
3272.886808	200.929371
3273.989522	205.653147
3275.092079	209.575524
3276.191540	208.009790
3277.293785	208.591608
3278.392934	206.874126
3279.490459	203.659441
3280.587828	200.333566
3281.687980	198.346154
3282.785038	192.672727
3283.881941	192.377622
3284.978689	193.026573
3286.070879	193.869930
3287.167317	195.360839
3288.262134	197.714685
3289.356795	197.007692
3290.449835	195.481119
3291.542721	193.251049
3292.633986	192.387413
3293.726564	191.781119
3294.817521	191.432867
3295.906859	190.065035
3296.996044	192.663636
3298.086542	193.616783
3299.173955	195.251748
3300.261216	193.841259
3301.349789	196.513287
3302.438209	195.462238
3303.522082	195.122378
3304.610197	192.097203
3305.695231	192.267832
3306.778648	190.393706
3307.863378	192.761538
3308.946493	193.120979
3310.030919	195.353846
3311.112267	194.302098
3312.194927	195.344056
3313.275973	193.688811
3314.356868	194.760839
3315.436150	193.294406
3316.515281	193.474825
3317.595723	191.315385
3318.673092	191.976224
3319.751771	190.448252
3320.828840	196.370629
3321.905758	197.558741
3322.981065	198.129371
3324.056223	196.751049
3325.132692	194.770629
3326.206091	190.511189
3327.279341	191.117483
3328.353902	188.119580
3329.426853	187.644755
3330.498197	185.979021
3331.570851	185.832168
3332.640438	188.405594
3333.711336	196.297203
3334.780627	196.941958
3335.851229	195.982517
3336.920224	198.072028
3337.987613	196.401399
3339.053397	195.101399
3340.123407	198.163636
3341.190354	193.017483
3342.254239	191.484615
3343.320892	189.132867
3344.385940	186.828671
3345.449385	189.025874
3346.512684	188.441958
3347.575836	185.690909
3348.638842	186.855245
3349.701702	187.834965
3350.762960	185.805594
3351.821161	185.055245
3352.883583	184.709790
3353.942948	182.965035
3355.002168	182.986713
3356.062698	183.802797
3357.118718	183.981119
3358.177503	185.828671
3359.231780	187.228671
3360.288820	189.205594
3361.344263	192.446853
3362.401014	191.012587
3363.456168	192.509790
3364.509724	192.625874
3365.561683	192.181818
3366.616404	191.180420
3367.668076	187.552448
3368.719605	188.275524
3369.772443	188.997203
3370.822233	186.995105
3371.873331	188.836364
3372.921384	189.213986
3373.972197	187.179021
3375.019964	184.197203
3376.067589	184.592308
3377.115071	181.290909
3378.160961	178.367832
3379.208159	175.800699
3380.252315	175.544755
3381.299229	177.952448
3382.344551	178.410490
3383.386833	176.702797
3384.428973	180.306294
3385.472421	181.272028
3386.515729	181.044056
3387.557446	178.967832
3388.599022	180.074126
3389.640458	180.866434
3390.680304	181.609091
3391.718563	182.675524
3392.758129	182.093706
3393.797554	179.188112
3394.835392	177.832168
3395.871643	174.068531
3396.907755	173.449650
3397.945174	170.826573
3398.979560	172.030070
3400.015253	172.916084
3401.050807	176.535664
3402.083330	180.387413
3403.118606	183.031469
3404.150851	182.841958
3405.182958	181.633566
3406.213481	179.686713
3407.245312	180.779021
3408.277003	178.176224
3409.305668	179.767832
3410.334194	179.433566
3411.364028	184.072028
3412.393723	185.949650
3413.420393	186.918182
3414.448370	186.330070
3415.473322	187.072028
3416.501024	183.634965
3417.525703	182.325874
3418.551688	179.945455
3419.576093	180.187413
3420.600362	178.250350
3421.623052	179.975524
3422.645606	179.726573
3423.669466	181.548252
3424.690306	180.209091
3425.711011	178.757642
3426.733021	177.266359
3427.752013	175.971429
3428.770870	175.109041
3429.791032	174.915385
3430.808178	175.626648
