-118.385087	-5.390110
-115.715486	-2.135165
-113.048821	1.116583
-110.382909	4.166533
-107.719928	6.816084
-105.055517	8.866633
-102.394037	10.119580
-99.731128	8.431469
-97.073326	6.760839
-94.414093	5.194406
-91.755609	3.190909
-89.100050	1.258741
-86.443062	0.928671
-83.791171	1.474825
-81.137851	2.051748
-78.487451	5.473427
-75.835621	5.583916
-73.188882	5.582517
-70.540713	5.995105
-67.893288	4.947552
-65.248776	5.419580
-62.602835	5.716084
-59.961977	5.218182
-57.319688	5.079021
-54.680309	6.359441
-52.039501	5.716084
-49.399432	4.927273
-46.764437	5.169930
-44.128012	3.411888
-41.494491	4.327273
-38.859540	6.254545
-36.229656	6.916783
-33.596178	8.458741
-30.967763	10.290909
-28.340082	10.439161
-25.710973	9.053147
-23.086920	0.662937
-20.459278	-26.979720
-17.836689	-71.373427
-15.214831	-77.732168
-12.593704	122.883916
-9.973308	430.524476
-7.355799	681.913986
-4.736862	855.873427
-2.120811	950.937762
0.494512	960.501399
3.109108	891.995804
5.720822	745.061538
8.333963	524.360140
10.942071	253.330769
13.553761	-5.102797
16.160420	-145.124476
18.768507	-84.016084
21.375870	-8.434965
23.978208	3.383217
26.584124	5.513287
29.185019	8.719580
31.787341	6.313287
34.384645	6.239161
36.985525	3.725175
39.581391	3.488112
42.178684	4.817483
44.775258	5.709790
47.366823	7.373427
49.959816	6.688112
52.549948	5.646853
55.141508	5.051049
57.730208	3.358042
60.320336	4.614685
62.905464	-0.258042
65.492020	-1.646154
68.077861	-1.091608
70.660849	1.039860
73.245264	3.520979
75.822549	7.166434
78.403401	10.823077
80.981404	10.341259
83.558697	7.497203
86.137416	5.258042
88.711154	3.738462
91.286318	1.243357
93.858639	-2.851748
96.430253	-0.134266
98.999026	0.762937
101.569226	0.620979
104.136587	0.696503
106.705375	6.518182
109.271325	9.055944
111.834441	8.958741
114.401114	8.172028
116.958564	10.083916
119.521700	12.518881
122.079877	15.580420
124.641607	22.100699
127.198382	36.538462
129.756582	52.120979
132.309830	74.562937
134.862379	106.469930
137.418480	145.444056
139.969632	185.379720
142.520086	224.604196
145.069844	260.654545
147.616782	293.797902
150.163024	316.379720
152.710693	329.728671
155.257665	337.844056
157.799701	340.264336
160.341044	337.769231
162.881695	333.406993
165.423770	330.433566
167.963035	325.393706
170.499490	323.488811
173.035255	318.339860
175.572445	317.105594
178.108943	318.036364
180.642636	315.872727
183.173526	316.409790
185.703727	318.614685
188.235353	320.592308
190.764179	321.819580
193.290205	321.358042
195.815545	319.132867
198.342310	314.013986
200.866279	307.118182
203.389562	302.088112
205.912161	301.431469
208.431967	300.781818
210.951090	301.755245
213.469530	304.333566
215.989394	306.504895
218.502257	311.253846
221.018651	314.040559
223.534364	318.971329
226.045186	321.569930
228.557433	320.834965
231.066897	321.777622
233.575683	327.165734
236.083791	327.625175
238.593323	329.102797
241.097974	333.055245
243.601949	334.918182
246.107348	336.478322
248.607872	336.776923
251.111919	341.853846
253.608996	347.390210
256.109595	347.596503
258.607423	348.826573
261.104578	351.930769
263.601060	357.797902
266.092680	360.359441
268.587818	366.446154
271.080191	378.029371
273.571893	388.778322
276.060832	407.469231
278.551194	440.920979
281.038795	499.040559
283.523636	582.980420
286.011991	721.617483
288.493408	913.816783
290.978338	1118.297902
293.458422	1282.923776
295.942019	1373.457343
298.420774	1383.609091
300.900951	1319.653846
303.378377	1184.190210
305.855139	1002.660140
308.331237	796.899301
310.804587	600.278322
313.277276	446.421678
315.749303	372.169930
318.220668	355.646154
320.689290	364.869930
323.157252	368.281818
325.626637	365.758741
328.091199	364.027273
330.559264	362.252448
333.022510	358.424476
335.485099	357.920979
337.947030	355.941958
340.408305	357.111888
342.866846	358.405594
345.326809	359.418182
347.784040	355.882517
350.240616	349.681119
352.696537	344.223077
355.149730	339.867133
357.604345	333.622378
360.054158	332.760140
362.507467	330.616084
364.955977	328.460140
367.403837	326.004895
369.853118	322.666434
372.297606	323.099301
374.743516	319.234266
377.188777	320.791608
379.631319	319.476224
382.073213	320.176923
384.514459	319.102098
386.952990	318.841958
389.392943	324.626573
391.830182	324.358042
394.264709	321.320979
396.702724	322.287413
399.135962	321.898601
401.570622	321.198601
404.000509	320.151049
406.433881	324.274825
408.862482	320.213986
411.290443	320.041958
413.719824	320.096503
416.144441	320.708392
418.570478	321.406993
420.995876	320.661538
423.420633	320.016783
425.840631	323.309091
428.262051	321.613986
430.680774	318.818881
433.100918	317.642657
435.518367	319.328671
437.937236	315.524476
440.353412	317.080420
442.764841	321.817483
445.179746	324.204196
447.591961	327.660839
450.003542	331.637063
452.414489	332.090210
454.822750	333.670629
457.230379	332.877622
459.637375	335.304895
462.043739	334.745455
464.447422	336.893706
466.850474	336.018881
469.252896	337.137762
471.654688	342.583217
474.053802	342.345455
476.454336	345.308392
478.854241	344.095105
481.249423	340.553846
483.648072	337.472028
486.042001	336.816084
488.435304	335.822378
490.827981	330.663636
493.220033	327.774825
495.613504	323.354545
498.002262	320.106294
500.388354	317.749650
502.775866	315.000000
505.162754	312.688811
507.546979	307.490909
509.932623	304.686713
512.315604	299.674825
514.695925	297.725175
517.077665	295.333566
519.456746	294.111189
521.837246	296.258042
524.215088	294.732867
526.590275	298.727972
528.964844	300.763636
531.340832	304.618182
533.714166	305.318881
536.088919	304.939860
538.458985	305.438462
540.828436	305.386014
543.199306	301.332867
545.565494	300.312587
547.933101	297.834266
550.298062	298.979720
552.662410	297.513287
555.026146	299.273427
557.391299	299.179720
559.751780	300.374825
562.113678	299.720280
564.472937	301.471329
566.829557	301.500000
569.189623	303.555944
571.542997	301.541259
573.899816	300.997203
576.254000	300.677622
578.607575	304.004196
580.960542	301.332168
583.310878	300.524476
585.662630	297.856643
588.007706	294.068531
590.358246	289.178322
592.702113	285.716084
595.051441	277.690909
597.396120	279.015385
599.738175	275.534965
602.081647	271.604895
604.422496	271.645455
606.762742	269.482517
609.100368	263.784615
611.441429	264.320280
613.777853	263.893007
616.115693	264.395105
618.450915	262.886014
620.783522	263.456643
623.117546	262.532867
625.448955	266.416084
627.779766	262.899301
630.109979	262.053147
632.439595	262.141958
634.764587	262.164336
637.095021	259.248252
639.420833	259.458042
641.744039	259.821678
644.068661	259.809091
646.390677	257.903497
648.712099	259.083217
651.030918	258.098601
653.351153	257.891608
655.670795	254.297203
657.987836	253.727972
660.304286	253.266434
662.618137	254.634266
664.933403	255.231469
667.246073	256.799301
669.560158	259.196503
671.869644	261.654545
674.180544	262.561538
676.488852	266.468531
678.796572	267.165734
681.105707	267.132867
683.410249	266.391608
685.714205	266.451049
688.017574	264.365734
690.322358	264.019580
692.622556	266.156643
694.924169	266.991608
697.225196	267.483217
699.521642	265.895105
701.819502	265.524476
704.116780	267.978322
706.413473	268.107692
708.705591	271.520280
711.001120	273.384615
713.292076	275.395804
715.584446	275.938462
717.874240	278.439161
720.163455	281.005594
722.452089	282.936364
724.738152	282.348252
727.025628	281.569930
729.310534	281.505594
731.594861	282.954545
733.876621	284.381818
736.159794	284.209790
738.442390	283.881818
740.720430	283.720280
742.999884	283.263636
745.278763	283.308392
747.557066	283.627273
749.830820	282.594406
752.105988	281.257343
754.380582	281.425175
756.652617	279.993007
758.926065	277.328671
761.196955	275.480420
763.465288	274.819580
765.735036	274.190210
768.002228	272.236364
770.268850	274.012587
772.534903	276.228671
774.798404	275.867133
777.063317	276.452448
779.327662	276.949650
781.587476	280.679021
783.848704	282.262238
786.109364	281.325175
788.367477	283.781818
790.623046	288.068531
792.882006	290.127972
795.134467	290.149650
797.392295	292.484615
799.645604	289.944755
801.896372	285.151748
804.148553	285.365734
806.398196	284.216783
808.649250	286.137063
810.895793	285.139161
813.143749	284.427972
815.389169	283.990210
817.636002	283.858042
819.882272	283.727273
822.124039	281.031469
824.369188	277.418182
826.607865	274.588112
828.849925	274.669231
831.087486	274.266434
833.326458	277.265734
835.562904	279.793706
837.800762	280.614685
840.036094	282.134965
842.268902	281.430769
844.503122	280.068531
846.734820	281.522378
848.965963	284.752448
851.196551	281.129371
853.426585	278.820979
855.656064	276.809091
857.881063	275.389510
860.109435	276.278322
862.333329	274.288112
864.558633	275.899301
866.779462	276.412587
869.003663	274.668531
871.223391	275.218881
873.444530	277.719580
875.665118	278.912587
877.883197	275.295105
880.102685	273.073427
882.317707	274.181119
884.532181	278.285315
886.746108	277.307692
888.959487	275.986713
891.172320	282.891608
893.384605	280.038462
895.594389	279.517483
897.803627	279.530070
900.012319	278.456643
902.218513	275.428671
904.426116	274.600699
906.631222	275.744056
908.835784	277.264336
911.037851	281.893007
913.241327	281.708392
915.442309	285.321678
917.642749	287.565035
919.844598	284.744755
922.040056	286.582517
924.238872	289.582517
926.433251	293.527972
928.630987	295.809790
930.824287	297.678322
933.018995	298.702098
935.211218	298.711189
937.402903	299.724476
939.594050	296.969930
941.782714	299.255245
943.970841	296.915385
946.156488	299.711189
948.345487	300.944056
950.530063	305.673427
952.714104	311.097203
954.901495	311.602098
957.080583	310.927972
959.263020	308.416783
961.444924	304.586713
963.624354	298.563636
965.801311	287.713986
967.979676	289.495105
970.159447	292.520979
972.332870	298.354545
974.509639	305.565035
976.682002	315.288811
978.855771	321.467832
981.025138	325.705594
983.197848	330.681818
985.368092	330.517483
987.537808	323.841259
989.706995	317.194406
991.871785	310.849650
994.039917	315.881119
996.203653	319.702797
998.368797	323.022378
1000.531481	326.200000
1002.693640	329.231469
1004.853341	323.872727
1007.012519	325.228671
1009.173103	324.144056
1011.331232	323.417483
1013.488837	323.830070
1015.645919	323.039860
1017.802478	324.533566
1019.954657	333.425175
1022.108243	336.205594
1024.261306	334.997203
1026.411922	331.751049
1028.563943	327.569930
1030.711591	328.962238
1032.862571	335.167133
1035.009181	335.047552
1037.155271	333.767133
1039.300843	329.073427
1041.447819	325.582517
1043.588508	319.546154
1045.732525	322.716783
1047.874103	322.448951
1050.015163	323.127273
1052.157628	326.788811
1054.293814	325.743357
1056.433326	337.290210
1058.568482	347.667832
1060.706963	349.051748
1062.841091	352.018881
1064.974705	351.086713
1067.109723	352.459441
1069.240392	336.972727
1071.372467	332.295804
1073.502111	326.795804
1075.631244	321.491608
1077.759866	313.141259
1079.887976	301.032867
1082.013660	301.042657
1084.138834	305.715385
1086.265411	306.646154
1088.387652	308.872028
1090.511297	309.987413
1092.630607	311.106294
1094.755146	312.869231
1096.873441	318.962937
1098.993139	319.795105
1101.110419	325.830070
1103.227193	325.155944
1105.343460	321.940559
1107.457312	322.274825
1109.572567	318.706294
1111.683500	317.094406
1113.797744	311.080420
1115.907669	311.939860
1118.018996	316.606294
1120.129820	326.320979
1122.236327	325.537063
1124.346143	328.161538
1126.451645	336.066434
1128.558551	330.395804
1130.659240	326.306993
1132.765142	325.883217
1134.866735	319.330070
1136.969731	318.383916
1139.072226	316.853147
1141.168515	321.204196
1143.270010	326.946154
1145.367203	323.637063
1147.463897	321.212587
1149.560094	323.948252
1151.655792	321.202797
1153.750993	316.194406
1155.843797	317.320979
1157.938003	318.759441
1160.026018	316.204196
1162.119231	314.619580
1164.206256	316.682517
1166.296581	317.637762
1168.382617	318.819580
1170.471951	315.644755
1172.555104	319.576224
1174.639660	319.904895
1176.725616	321.388811
1178.807291	326.213986
1180.890368	329.158042
1182.971059	332.082517
1185.051259	334.740559
1187.130967	335.895105
1189.210183	336.176224
1191.287018	333.803497
1193.361472	335.604196
1195.439218	335.171329
1197.512693	329.960140
1199.587570	327.274126
1201.658179	323.418881
1203.730189	318.139860
1205.799823	319.226573
1207.870858	318.242657
1209.941405	321.089510
1212.007691	322.476923
1214.075378	325.324476
1216.140693	325.702098
1218.207408	327.965035
1220.269867	328.770629
1222.335612	323.780420
1224.397102	325.353846
1226.459992	326.881119
1228.520515	329.113287
1230.580555	334.116783
1232.640111	337.676923
1234.697303	342.650350
1236.754012	343.595804
1238.808359	348.889510
1240.865986	350.466434
1242.921251	355.594406
1244.972275	356.055944
1247.024699	359.430769
1249.076644	367.978322
1251.126230	373.118881
1253.175337	374.018182
1255.223965	375.274126
1257.272115	383.290909
1259.319787	384.697203
1261.363228	383.525874
1263.409944	388.323077
1265.454308	389.802797
1267.498194	393.339860
1269.539730	390.918881
1271.578916	391.827972
1273.621374	393.213986
1275.659611	392.583916
1277.699245	389.020979
1279.738405	385.213986
1281.773347	385.116783
1283.809687	375.327273
1285.843682	369.189510
1287.879076	367.746853
1289.910256	367.400000
1291.942835	373.772727
1293.974941	376.567133
1296.004707	379.323077
1298.035871	383.711888
1300.062827	393.572727
1302.091181	392.304895
1304.115331	390.400699
1306.142746	386.709091
1308.165958	380.630769
1310.190568	376.249650
1312.212843	377.896503
1314.236516	381.043357
1316.257856	383.310490
1318.278729	386.218182
1320.299134	384.086014
1322.315345	386.016783
1324.332955	389.061538
1326.348236	383.669930
1328.366776	378.032168
1330.381126	372.916783
1332.393151	368.448252
1334.408434	360.857343
1336.419531	357.678322
1338.432024	351.197902
1340.440335	339.390210
1342.451902	336.727972
1344.457430	332.194406
1346.466212	332.483916
1348.470818	332.823077
1350.478677	333.823077
1352.486073	336.625175
1354.487439	341.937063
1356.490202	345.861538
1358.492505	349.400000
1360.494347	354.195105
1362.495731	359.015385
1364.494800	359.280420
1366.493411	367.632168
1368.491564	371.495105
1370.489259	372.625874
1372.482790	372.945455
1374.477718	373.855245
1376.472189	376.520979
1378.466203	374.201399
1380.457910	370.367133
1382.449161	363.248951
1384.438107	362.830769
1386.428448	360.129371
1388.418334	356.883217
1390.405917	354.549650
1392.393046	350.117483
1394.377873	348.169930
1396.364095	349.297902
1398.348016	354.123776
1400.331485	356.302797
1402.314502	358.558042
1404.295221	359.592308
1406.277334	358.205594
1408.257150	363.918182
1410.236516	366.547552
1412.211743	370.697902
1414.190208	369.110490
1416.166380	369.436364
1418.142102	372.674825
1420.117375	375.295105
1422.090357	377.812587
1424.062892	376.248951
1426.034978	376.602098
1428.006616	369.514685
1429.974127	365.886713
1431.946711	362.235664
1433.911489	360.606993
1435.881340	359.658042
1437.847066	356.811189
1439.814186	359.697902
1441.779022	364.509790
1443.739738	370.401399
1445.705522	377.440559
1447.665351	382.988811
1449.626573	389.298601
1451.589188	390.192308
1453.547688	394.015385
1455.505746	392.243357
1457.463361	396.504196
1459.420535	399.663636
1461.375433	401.693007
1463.331723	407.244755
1465.285739	411.520280
1467.239315	411.620280
1469.190618	410.525175
1471.143313	406.451748
1473.093737	404.393007
1475.043722	398.730070
1476.993267	395.921678
1478.940544	387.804895
1480.885554	382.381119
1482.831956	379.517483
1484.777920	375.963636
1486.723446	377.058741
1488.666708	376.144056
1490.609533	374.358741
1492.550095	373.266434
1494.492048	367.462238
1496.431740	370.544056
1498.370996	370.720979
1500.309818	370.902098
1502.246380	367.385315
1504.184332	364.992308
1506.120027	366.888811
1508.055288	369.427273
1509.988292	373.911888
1511.920864	377.683217
1513.853004	381.483916
1515.784712	386.017483
1517.714167	388.037063
1519.645011	390.643357
1521.575425	389.237063
1523.501766	388.502797
1525.429497	389.749650
1527.354978	390.044056
1529.280030	389.925175
1531.204653	392.921678
1533.128847	393.469231
1535.050794	395.134965
1536.974130	397.915385
1538.895221	400.456643
1540.814067	402.145455
1542.734303	397.593706
1544.652295	398.617483
1546.569861	401.001399
1548.485185	403.869231
1550.401899	404.363636
1552.314558	399.302797
1554.230421	399.510490
1556.144045	400.140559
1558.055430	403.666434
1559.968204	408.377622
1561.876929	405.690909
1563.787044	409.048951
1565.696735	410.640559
1567.606002	414.667133
1569.513036	412.117483
1571.417837	411.499301
1573.324027	405.538462
1575.227985	397.243357
1577.131523	393.380420
1579.034639	395.027273
1580.935527	398.669930
1582.837803	398.532168
1584.737850	394.573427
1586.639286	400.925874
1588.536687	401.072727
1590.433671	398.793007
1592.330236	396.459441
1594.228188	399.744755
1596.120306	398.772727
1598.015618	398.411888
1599.910511	397.367832
1601.803183	395.265734
1603.695439	395.462238
1605.585475	391.519580
1607.475095	389.637762
1609.364300	395.609790
1611.253089	390.276923
1613.139662	391.114685
1615.027621	392.488112
1616.911565	395.029371
1618.796895	394.783217
1620.681812	389.744755
1622.564515	382.169231
1624.448604	373.181119
1626.328683	371.248252
1628.210148	369.741259
1630.089403	368.667832
1631.970044	372.474126
1633.844881	374.500000
1635.724700	374.298601
1637.600513	370.800699
1639.475917	365.869930
1641.352706	364.698601
1643.223698	360.300000
1645.097872	359.535664
1646.968048	361.592308
1648.841404	365.895105
1650.712557	365.195105
1652.581508	361.834266
1654.451845	359.551049
1656.318188	355.020979
1658.185918	343.395804
1660.051448	334.292308
1661.918363	331.842657
1663.781290	335.253147
1665.645602	340.090210
1667.507719	341.460140
1669.369430	347.763636
1671.232526	353.488112
1673.093428	352.634266
1674.952136	353.954545
1676.810441	355.149650
1678.670131	349.679021
1680.524054	347.037063
1682.381149	346.324476
1684.237842	346.054545
1686.090559	339.200000
1687.946447	343.131469
1689.798361	330.129371
1691.649873	322.255245
1693.500986	322.085315
1695.351697	317.107692
1697.202008	315.658042
1699.050135	317.365734
1700.899645	315.876923
1702.743407	320.404895
1704.592119	323.462937
1706.435084	325.560140
1708.281215	330.550350
1710.123385	337.004196
1711.968719	329.067832
1713.808313	327.204895
1715.649291	329.992308
1717.491652	329.809790
1719.330057	325.840559
1721.169845	322.053147
1723.007458	320.377622
1724.844675	321.493007
1726.679719	318.348951
1728.516146	316.700699
1730.350401	316.992308
1732.184262	307.235664
1734.017728	305.530070
1735.847248	307.891608
1737.679927	309.741259
1739.508662	322.320979
1741.340555	324.930070
1743.168505	321.317483
1744.996063	321.395105
1746.823230	319.837063
1748.650004	317.890909
1750.476388	309.812587
1752.298835	306.271329
1754.124436	292.916084
1755.946103	294.186713
1757.769152	295.842657
1759.590040	303.376923
1761.410538	321.046853
1763.232418	322.704895
1765.048598	317.190909
1766.867930	315.518182
1768.683335	318.241958
1770.501891	321.981818
1772.316521	318.727273
1774.130764	315.323077
1775.944621	313.974825
1777.758091	314.409091
1779.569407	311.602098
1781.382105	313.164336
1783.194416	317.151049
1785.002810	312.369231
1786.812585	307.297203
1788.618444	301.360839
1790.427450	302.617483
1792.232542	303.010490
1794.039014	305.643357
1795.845103	304.183916
1797.647282	311.362937
1799.452604	311.269231
1801.254018	313.244755
1803.056812	314.318182
1804.855701	316.379021
1806.655969	312.935664
1808.455857	311.593007
1810.253602	309.487413
1812.050967	306.960140
1813.847951	307.166434
1815.644555	308.555245
1817.439020	309.217483
1819.234865	317.525175
1821.025054	326.839860
1822.820140	325.809091
1824.609573	322.179720
1826.402144	324.857343
1828.192579	320.844755
1829.980879	321.982517
1831.772315	320.475524
1833.558105	317.272727
1835.345275	320.429371
1837.130313	321.584615
1838.918485	322.459441
1840.702771	326.495804
1842.484928	331.808392
1844.268463	326.242657
1846.049871	327.009790
1847.832656	327.802098
1849.611562	323.698601
1851.391846	318.925175
1853.170005	318.020979
1854.949541	319.708392
1856.726953	323.430769
1858.502241	327.305594
1860.278908	325.379720
1862.053452	325.565035
1863.829373	331.394406
1865.599675	332.032867
1867.373104	339.244056
1869.144413	342.676923
1870.915351	344.690909
1872.687666	347.472727
1874.454369	351.100000
1876.224196	353.612587
1877.990160	357.358741
1879.759248	360.090210
1881.524474	355.163636
1883.289332	356.097902
1885.055566	353.182517
1886.817942	349.982517
1888.579951	356.492308
1890.341593	355.098601
1892.102867	351.151748
1893.863775	350.801399
1895.624315	346.052448
1897.382746	336.052448
1899.140812	333.401399
1900.896770	331.802797
1902.654104	328.546154
1904.411072	331.034965
1906.165935	324.990909
1907.918692	321.434965
1909.671086	324.204895
1911.424856	319.832867
1913.176522	316.451049
1914.926085	316.313287
1916.677025	315.726573
1918.427601	308.233566
1920.174339	309.888112
1921.922452	311.667832
1923.668466	312.711888
1925.415856	312.867832
1927.161147	313.318881
1928.904341	311.040559
1930.648911	312.478322
1932.391384	310.606993
1934.133497	311.952448
1935.875251	314.713986
1937.616644	315.072727
1939.355944	316.802797
1941.094885	319.085315
1942.833467	317.950350
1944.569957	318.109790
1946.306090	311.194406
1948.043597	307.764336
1949.777283	305.216084
1951.512343	308.884615
1953.245314	310.072727
1954.977929	313.067133
1956.710187	314.605594
1958.442089	319.302098
1960.171905	329.888112
1961.899637	333.709091
1963.628742	337.960140
1965.357493	339.842657
1967.084160	335.695105
1968.810473	331.740559
1970.538159	330.537063
1972.260309	329.489510
1973.985561	323.932867
1975.707005	319.162238
1977.431549	315.976923
1979.154014	316.029371
1980.872675	318.848951
1982.594435	315.970629
1984.312393	318.989510
1986.031725	320.950350
1987.747256	322.522378
1989.467609	320.749650
1991.184162	314.562238
1992.896920	314.120280
1994.612773	313.088112
1996.326554	315.160140
1998.039984	312.377622
1999.751344	313.013287
2001.464077	311.403497
2003.173018	311.576923
2004.885053	315.732867
2006.591578	316.952448
2008.301196	316.297203
2010.008746	315.081119
2011.715949	312.870629
2013.421086	314.511888
2015.125876	313.651049
2016.832038	314.405594
2018.534418	308.879720
2020.238170	305.694406
2021.939859	303.487413
2023.641202	305.112587
2025.342200	308.536364
2027.041138	308.100000
2028.741447	310.038462
2030.437980	309.932168
2032.135885	310.567832
2033.831732	308.276224
2035.530664	307.274126
2037.224110	307.558741
2038.918927	302.745455
2040.613401	297.269231
2042.304107	298.287413
2043.997897	299.730769
2045.687920	302.981818
2047.379314	305.932867
2049.068655	306.713986
2050.759366	305.997902
2052.446315	306.327972
2054.132923	307.365734
2055.820902	311.432168
2057.505121	318.850350
2059.190710	323.143357
2060.875960	328.609091
2062.559162	331.651748
2064.243734	332.941259
2065.922842	333.030769
2067.606736	337.619580
2069.285170	333.017483
2070.966681	328.516084
2072.644440	325.809091
2074.321863	319.781119
2076.000655	315.136364
2077.677404	315.354545
2079.352112	312.871329
2081.028189	313.332168
2082.702226	309.123776
2084.375927	310.677622
2086.049293	313.679720
2087.720621	318.905594
2089.391614	319.230070
2091.062273	321.760839
2092.732598	320.225874
2094.402588	314.007692
2096.070543	312.482517
2097.738165	313.838462
2099.403753	313.836364
2101.070709	314.113986
2102.735632	316.982517
2104.400222	321.566434
2106.062781	324.279021
2107.726709	327.205594
2109.388605	329.123776
2111.050170	330.916084
2112.711405	328.992308
2114.370610	328.048951
2116.029486	329.523776
2117.688031	325.675524
2119.346247	322.928671
2121.000739	318.802098
2122.658297	323.493007
2124.315524	318.783217
2125.969031	317.141259
2127.623905	315.353846
2129.275060	313.405594
2130.929278	313.577622
2132.579778	311.862937
2134.231646	311.766434
2135.878105	306.494406
2137.529318	299.465035
2139.176818	295.299301
2140.825686	295.767832
2142.472534	300.688112
2144.119056	298.645455
2145.765254	297.681818
2147.407742	302.739161
2149.053289	302.674825
2150.695129	306.256643
2152.340026	312.410490
2153.981218	314.828671
2155.622086	311.346853
2157.262631	311.637762
2158.901163	309.635664
2160.541061	314.966434
2162.177259	317.726573
2163.814823	319.313986
2165.452065	318.113287
2167.087297	322.702098
2168.722207	321.254545
2170.356796	327.086713
2171.991064	329.778322
2173.621638	326.666434
2175.255263	321.942657
2176.885197	317.920979
2178.516496	318.113986
2180.145791	317.725175
2181.774765	319.002098
2183.403421	318.590909
2185.031757	313.244755
2186.658090	311.397203
2188.284105	307.738462
2189.908119	307.552448
2191.533498	307.990909
2193.156876	303.825874
2194.781619	303.770629
2196.402680	306.798601
2198.023426	311.968531
2199.645535	317.734266
2201.265647	320.299301
2202.883763	317.162937
2204.501563	311.662238
2206.119047	307.942657
2207.736216	302.306993
2209.353070	301.511189
2210.969609	302.490909
2212.584154	301.597203
2214.196707	303.106294
2215.810625	302.511189
2217.422550	305.960839
2219.035840	307.976224
2220.647138	302.901399
2222.256448	302.164336
2223.867120	299.983916
2225.475804	295.187413
2227.084176	292.410490
2228.690560	291.223077
2230.298308	289.556643
2231.904069	293.705594
2233.509519	291.530070
2235.112985	293.918881
2236.717813	295.946853
2238.320657	292.625175
2239.921518	294.334965
2241.523742	296.625175
2243.123983	300.220979
2244.725588	304.875524
2246.323539	307.537063
2247.922853	311.947552
2249.520187	317.196503
2251.117213	322.439860
2252.715600	323.367832
2254.310339	322.525874
2255.903102	315.851748
2257.497226	312.905594
2259.092712	314.325175
2260.684554	312.906993
2262.276089	314.801399
2263.868985	323.612587
2265.456572	326.243357
2267.048856	329.443357
2268.635832	334.281818
2270.225837	332.820979
2271.810537	335.891608
2273.399931	335.118881
2274.984022	334.473427
2276.569475	332.348252
2278.152959	330.815385
2279.739468	320.511189
2281.322344	316.251748
2282.904916	316.512587
2284.487186	310.048252
2286.065825	302.583916
2287.647488	299.246853
2289.225524	293.300000
2290.806582	296.982517
2292.384013	299.210490
2293.959481	300.859441
2295.537971	300.673427
2297.112836	308.420280
2298.687401	311.327972
2300.261666	317.013287
2301.835630	315.241958
2303.409294	312.438462
2304.982657	310.460140
2306.552402	309.118182
2308.121848	309.581119
2309.694313	306.355944
2311.261503	306.041259
2312.831710	307.900699
2314.398303	310.896503
2315.966256	308.644755
2317.532254	308.452448
2319.097954	304.527273
2320.663356	299.666434
2322.226805	294.602797
2323.791613	295.521678
2325.352812	297.037762
2326.917026	305.402797
2328.475979	307.776224
2330.037945	316.383217
2331.597961	317.344056
2333.157681	317.795804
2334.715452	313.739860
2336.272929	313.978322
2337.830110	309.678322
2339.385345	305.886014
2340.940285	295.760140
2342.494932	293.616783
2344.049285	293.274825
2345.603344	295.184615
2347.157110	296.393706
2348.708931	293.067832
2350.258809	293.761538
2351.811695	297.399301
2353.359339	306.500699
2354.909990	308.964336
2356.457051	313.663636
2358.005469	316.418182
2359.553595	314.532168
2361.098134	312.390210
2362.644030	310.991608
2364.187987	307.261538
2365.733302	299.974825
2367.275032	291.883916
2368.818120	296.195804
2370.359271	298.337762
2371.900133	300.773427
2373.440706	304.231469
2374.980990	304.376224
2376.520985	301.879720
2378.057401	299.963636
2379.596819	294.876224
2381.132660	295.400699
2382.669857	291.446154
2384.203480	281.711189
2385.740102	281.409790
2387.274793	280.238462
2388.807555	278.633566
2390.340031	275.960839
2391.870578	278.935664
2393.404123	279.685315
2394.932457	279.624476
2396.462147	281.611189
2397.991552	283.807692
2399.520672	295.102098
2401.049506	298.790210
2402.573136	296.650350
2404.101401	305.755944
2405.624463	300.180420
2407.152160	302.947552
2408.673016	302.269231
2410.198506	303.234965
2411.720436	306.694406
2413.243720	308.974126
2414.765084	309.747552
2416.284528	316.591608
2417.805327	324.258741
2419.324207	327.876224
2420.842805	328.327972
2422.359486	334.900000
2423.877522	326.608392
2425.395276	318.039860
2426.909478	311.739860
2428.423400	311.862238
2429.937043	311.890909
2431.452039	316.904196
2432.963487	319.044056
2434.476290	317.274126
2435.987180	319.367133
2437.497790	321.715385
2439.006489	320.903497
2440.518175	320.451049
2442.026317	318.000000
2443.534180	310.721678
2445.041766	307.832168
2446.545812	305.225175
2448.052842	300.084615
2449.557964	305.030070
2451.062809	301.992308
2452.565747	296.090909
2454.068408	302.000699
2455.570793	303.874825
2457.071273	310.272028
2458.573106	316.159441
2460.073035	318.576923
2461.572688	315.459441
2463.072066	313.165734
2464.569541	313.042657
2466.065114	310.723077
2467.563667	316.033566
2469.058691	313.699301
2470.555069	311.479720
2472.047920	312.931469
2473.542123	308.615385
2475.036053	305.153147
2476.526460	300.917483
2478.019844	295.553147
2479.511329	290.907692
2481.000918	293.783916
2482.490236	298.316783
2483.977657	299.920979
2485.468054	297.758741
2486.954932	296.727273
2488.443162	300.521678
2489.927876	307.526573
2491.412319	311.218881
2492.898114	318.493706
2494.382016	318.323077
2495.867270	316.302797
2497.347390	314.202797
2498.830482	310.618881
2500.311684	306.088811
2501.792617	291.396503
2503.271661	279.650350
2504.750437	276.460140
2506.228944	276.367832
2507.707182	275.003497
2509.185152	277.951049
2510.659618	279.639860
2512.137052	284.726573
2513.610983	293.827273
2515.086265	300.834965
2516.561279	301.658042
2518.032792	306.262937
2519.505656	309.606294
2520.976637	312.700000
2522.448967	313.195804
2523.916185	303.479021
2525.386369	297.802797
2526.854671	289.272028
2528.322709	285.132867
2529.790482	288.752448
2531.257990	284.488811
2532.725233	283.040559
2534.188985	276.232867
2535.654086	282.256643
2537.117310	284.649650
2538.581883	285.326573
2540.042967	291.258042
2541.505402	292.840559
2542.967573	293.129371
2544.426257	292.072727
2545.889514	291.355944
2547.347674	296.574126
2548.807183	294.008392
2550.261599	292.294406
2551.720585	289.311189
2553.177698	288.092308
2554.632941	285.888112
2556.087923	281.692308
2557.541035	282.658042
2558.995496	277.486014
2560.448088	273.239860
2561.900420	275.916084
2563.350884	274.553846
2564.804304	283.209790
2566.252642	278.375524
2567.703936	276.064336
2569.153363	279.115385
2570.599319	272.166434
2572.048229	272.408392
2573.493668	270.790909
2574.940456	274.966434
2576.385380	279.189510
2577.830047	287.676224
2579.276061	296.530070
2580.718608	298.534266
2582.162503	304.255944
2583.602933	296.890909
2585.044711	293.276923
2586.484629	286.079021
2587.925894	281.529371
2589.363697	282.722378
2590.804450	284.576923
2592.240140	285.095804
2593.678780	288.948951
2595.115563	289.000699
2596.550489	293.025874
2597.988364	294.295804
2599.421181	297.682517
2600.855345	294.287413
2602.287654	286.484615
2603.721310	281.274126
2605.153113	278.787413
2606.584663	275.921678
2608.015959	271.632867
2609.445404	266.959441
2610.874596	268.123077
2612.301937	269.140559
2613.730625	271.951748
2615.159060	282.134266
2616.584049	292.130070
2618.010383	292.049650
2619.434869	290.679021
2620.860701	293.523776
2622.283089	292.702098
2623.706823	295.372028
2625.128711	294.220979
2626.550348	290.681119
2627.970140	291.415385
2629.391278	284.290909
2630.812166	287.375524
2632.229616	292.195804
2633.650005	291.306294
2635.066957	285.050350
2636.483661	288.308392
2637.900116	288.474825
2639.316323	286.869231
2640.732281	282.493706
2642.146399	275.858741
2643.560270	271.251748
2644.972301	269.845455
2646.385677	266.418182
2647.795623	273.912587
2649.208505	273.359441
2650.617958	275.245455
2652.027165	273.044056
2653.434536	279.814685
2654.844841	277.865035
2656.253310	271.669231
2657.659944	265.626573
2659.066333	261.720280
2660.470888	263.303497
2661.876787	269.267832
2663.280853	270.488112
2664.684675	280.316084
2666.088252	283.172727
2667.489997	288.867832
2668.893086	285.676224
2670.292758	287.313986
2671.693773	287.407692
2673.091371	284.700000
2674.491900	284.413287
2675.889014	283.995105
2677.287471	285.300699
2678.684100	286.258042
2680.080488	287.873427
2681.476633	291.929371
2682.870952	288.367832
2684.266614	287.207692
2685.658866	282.980420
2687.052462	286.513287
2688.444233	284.232867
2689.837346	282.838462
2691.228636	285.283217
2692.618103	287.557343
2694.007331	289.099301
2695.396318	287.689510
2696.786648	288.667133
2698.171993	286.487413
2699.560263	281.481818
2700.946712	281.558042
2702.332922	283.541259
2703.718893	284.538462
2705.101466	278.159441
2706.485380	278.714685
2707.869057	279.361538
2709.252496	284.608392
2710.632539	283.061538
2712.013924	275.916783
2713.393493	272.230070
2714.774404	265.541259
2716.153500	265.741958
2717.530781	265.276923
2718.909404	263.348252
2720.286214	261.119580
2721.662788	266.000699
2723.039126	270.625175
2724.413652	276.915385
2725.789519	286.104196
2727.161999	284.736364
2728.537396	286.460839
2729.907831	285.258042
2731.279608	276.586014
2732.651151	271.425874
2734.020885	263.712587
2735.391959	259.882517
2736.761226	255.626573
2738.130259	255.508392
2739.497485	255.100699
2740.864479	253.220979
2742.231240	255.525874
2743.597768	255.266434
2744.962492	259.330070
2746.326983	257.647552
2747.691242	253.466434
2749.055270	249.184615
2750.419065	258.861538
2751.779487	265.306993
2753.142820	269.372028
2754.501210	267.289510
2755.862510	262.675524
2757.220439	259.568531
2758.581278	260.065734
2759.940316	254.581818
2761.295986	255.023077
2762.654565	256.672727
2764.009776	260.896503
2765.364758	259.388811
2766.717943	267.119580
2768.074035	268.647552
2769.426763	272.683916
2770.779262	270.809790
2772.131533	267.367133
2773.485143	266.852448
2774.835391	269.434965
2776.183846	264.882517
2777.535205	265.462937
2778.883205	265.826573
2780.232544	265.890909
2781.580090	261.191608
2782.927409	260.265734
2784.274502	255.384615
2785.619804	257.976923
2786.964880	258.305594
2788.309730	262.083916
2789.654354	261.674126
2790.995625	269.521678
2792.338235	267.057343
2793.680620	273.854545
2795.022779	272.066434
2796.361589	271.035664
2797.703299	270.288112
2799.041660	267.478322
2800.381359	265.950350
2801.719272	265.188112
2803.055401	261.396503
2804.391307	263.703497
2805.728549	261.540559
2807.064008	268.504196
2808.399244	266.537063
2809.732698	270.078322
2811.067488	265.514685
2812.398937	265.959441
2813.733282	269.465734
2815.062729	274.312587
2816.393513	274.679021
2817.724075	271.374825
2819.052858	269.656643
2820.382978	271.300000
2821.711318	266.762238
2823.039438	265.023776
2824.365781	252.555944
2825.693459	249.550350
2827.017805	246.669930
2828.343486	241.905594
2829.667393	243.223776
2830.991079	240.143357
2832.316101	236.024476
2833.637794	237.813287
2834.959267	239.690909
2836.280522	242.457343
2837.601558	242.356643
2838.920822	245.985315
2840.241421	242.712587
2841.560248	249.791608
2842.878857	247.890909
2844.195696	243.062238
2845.512317	245.513986
2846.828720	241.955245
2848.143355	239.384615
2849.459324	238.878322
2850.771973	240.472727
2852.085958	241.223077
2853.399726	246.225175
2854.713277	246.270629
2856.025061	242.913287
2857.335080	245.193007
2858.646433	242.583916
2859.954470	240.146154
2861.263843	243.412587
2862.573000	240.795105
2863.881942	238.120979
2865.189121	240.281818
2866.494536	242.080420
2867.801286	243.743357
2869.106273	251.630070
2870.411047	248.152448
2871.714059	252.884615
2873.019953	257.732867
2874.320992	258.336364
2875.623364	257.365035
2876.923977	259.637063
2878.225924	257.597902
2879.527658	261.794406
2880.826088	260.705594
2882.125851	255.553846
2883.423857	253.287413
2884.721651	250.302797
2886.017688	241.890909
2887.315059	241.162238
2888.610674	239.148951
2889.906079	239.777622
2891.201272	238.356643
2892.493167	242.099301
2893.787939	243.313986
2895.079415	244.170629
2896.372223	239.920280
2897.664821	235.271329
2898.954124	231.627273
2900.244760	228.977622
2901.533646	223.775524
2902.823863	222.851049
2904.110789	222.621678
2905.399047	224.853846
2906.685556	228.160839
2907.971856	236.786014
2909.257948	240.934266
2910.542292	241.653846
2911.829508	243.811888
2913.111897	247.306294
2914.395618	247.546853
2915.677592	247.768531
2916.959360	245.158042
2918.239382	243.406993
2919.522274	230.454545
2920.803421	229.430070
2922.081286	225.020280
2923.362020	225.868531
2924.639473	217.762238
2925.916721	213.769930
2927.192226	217.983916
2928.470599	227.153846
2929.744157	225.760140
2931.020583	228.269930
2932.295268	231.353147
2933.568213	238.467133
2934.842488	236.747552
2936.115024	245.039860
2937.387356	242.325175
2938.656415	242.673427
2939.928339	236.607692
2941.198525	237.804196
2942.468507	240.304196
2943.738286	240.888112
2945.006328	230.146853
2946.272635	222.941259
2947.538739	218.550350
2948.806174	218.382517
2950.071873	213.771329
2951.337370	212.393007
2952.602665	216.295804
2953.864696	214.226573
2955.128056	218.238462
2956.391215	218.511888
2957.652641	216.966434
2958.915397	221.744755
2960.176422	216.134965
2961.435716	216.996503
2962.694809	217.230070
2963.953702	220.665734
2965.212395	221.540559
2966.470888	226.351049
2967.727652	228.749650
2968.984217	228.593706
2970.239053	231.763636
2971.495219	225.964336
2972.748129	220.453147
2974.002369	222.097203
2975.256410	217.753147
2976.508725	224.596503
2977.760842	227.080420
2979.011234	233.849650
2980.264481	232.702098
2981.512951	237.379720
2982.764275	233.660839
2984.012351	237.732168
2985.260229	233.149650
2986.507910	228.405594
2987.755395	231.781119
2989.001158	234.423077
2990.246724	237.524476
2991.493619	243.032867
2992.737268	241.987413
2993.982246	240.421678
2995.223981	234.373427
2996.468567	231.363636
2997.711434	222.053147
2998.951059	221.045455
3000.193536	216.406294
3001.432772	218.088811
3002.673336	220.804196
3003.912183	225.372727
3005.150836	227.890909
3006.387773	231.609790
3007.626037	235.132168
3008.862587	239.605594
3010.098943	238.292308
3011.335105	235.525175
3012.569553	235.866434
3013.803808	238.614685
3015.037870	236.525874
3016.270220	236.655245
3017.500858	232.549650
3018.734342	233.173427
3019.966115	231.119580
3021.196176	235.267832
3022.426046	237.051049
3023.654206	233.580420
3024.883693	225.686014
3026.111470	221.902797
3027.339056	224.111189
3028.567968	227.397902
3029.792138	225.865035
3031.019151	230.254545
3032.242941	228.589510
3033.468056	229.779021
3034.691465	231.820979
3035.914685	237.220979
3037.136199	234.271329
3038.360554	229.320280
3039.580174	229.288811
3040.801120	228.883217
3042.021876	226.334965
3043.240929	229.117483
3044.461308	224.320979
3045.678470	229.069930
3046.896957	225.490909
3048.113743	226.853846
3049.330340	222.887413
3050.546750	222.242657
3051.759946	218.008392
3052.975980	218.415385
3054.188802	221.494406
3055.404461	218.037762
3056.615397	216.784615
3057.827659	218.414685
3059.039733	217.120280
3060.251621	218.430070
3061.461811	214.686713
3062.671816	215.410490
3063.881634	212.809790
3065.089756	213.987413
3066.297692	213.644056
3067.503934	215.990909
3068.711500	215.340559
3069.917371	214.932168
3071.123057	217.060140
3072.328559	216.637063
3073.532367	216.089510
3074.737499	215.553846
3075.940938	212.797902
3077.142685	215.361538
3078.344249	216.400699
3079.545629	212.901399
3080.746825	213.626573
3081.946331	211.551049
3083.145653	208.009790
3084.346299	209.068531
3085.545256	208.113287
3086.741017	205.590909
3087.939608	205.148951
3089.135005	204.515385
3090.331726	200.491608
3091.525254	198.050350
3092.721610	198.779021
3093.916279	194.369930
3095.107758	202.789510
3096.303568	201.528671
3097.494685	203.336364
3098.687125	204.436364
3099.876376	201.739161
3101.068454	202.499301
3102.258848	208.467133
3103.446055	206.111189
3104.634586	205.358741
3105.824439	202.254545
3107.011107	205.249650
3108.197596	204.600699
3109.383905	210.044056
3110.571537	209.903497
3111.755986	204.493706
3112.938755	203.290210
3114.124348	200.581119
3115.308260	201.320979
3116.490494	203.921678
3117.672550	201.709790
3118.854427	201.446853
3120.036126	201.683916
3121.216148	203.353147
3122.394492	209.485315
3123.575658	212.155245
3124.753648	216.666434
3125.931461	214.599301
3127.109097	215.058042
3128.285058	212.429371
3129.460843	207.535664
3130.637948	206.544755
3131.813380	206.825175
3132.987138	200.118881
3134.159223	201.141259
3135.332629	192.390909
3136.505860	194.081818
3137.677418	189.533566
3138.850298	191.858741
3140.020010	189.982517
3141.191043	190.406294
3142.360405	195.526573
3143.528098	196.026573
3144.698606	198.121678
3145.864455	200.664336
3147.034614	201.780420
3148.200115	206.308392
3149.365443	199.262937
3150.530597	201.311888
3151.695578	198.199301
3152.861878	199.739161
3154.023525	196.597902
3155.186493	194.508392
3156.349287	195.461538
3157.511909	192.152448
3158.672866	190.269930
3159.833650	190.733566
3160.994263	193.095804
3162.153211	188.332168
3163.311987	188.487413
3164.470592	190.596503
3165.629025	195.131469
3166.787286	195.188811
3167.943885	192.816084
3169.098823	192.409091
3170.255080	198.211888
3171.409677	200.586713
3172.564102	199.745455
3173.716868	197.016084
3174.869464	192.197203
3176.021890	184.545455
3177.174145	185.279720
3178.326231	185.609091
3179.475170	186.834266
3180.626916	187.160839
3181.777005	190.038462
3182.925436	193.431469
3184.073699	198.816084
3185.221793	197.390909
3186.369717	192.134965
3187.515987	187.968531
3188.662088	186.668531
3189.806535	182.037762
3190.950813	184.234266
3192.094924	187.586713
3193.240353	190.398601
3194.382643	199.169930
3195.524765	205.655245
3196.666721	207.616783
3197.808509	208.620280
3198.950130	206.475524
3200.088615	197.051049
3201.228419	196.422378
3202.369539	194.837063
3203.507525	194.891608
3204.643862	198.961538
3205.780033	200.341259
3206.917522	202.482517
3208.053362	206.958042
3209.190518	203.308392
3210.323063	197.574825
3211.459888	190.422378
3212.592102	185.979021
3213.725634	179.476224
3214.859000	179.245455
3215.989239	177.503497
3217.122277	181.620280
3218.252187	180.370629
3219.383415	175.546853
3220.511517	172.864336
3221.642417	175.776224
3222.771672	175.058741
3223.899283	173.700000
3225.023773	176.894406
3226.152538	182.968531
3227.278181	185.602098
3228.403661	187.683916
3229.527500	186.625874
3230.654134	187.336364
3231.776169	179.740559
3232.899521	173.084615
3234.022711	173.656643
3235.145739	173.240559
3236.267127	173.790210
3237.388354	175.434266
3238.507942	186.544755
3239.627369	187.776923
3240.745159	189.987413
3241.865740	190.858741
3242.983208	184.716783
3244.100515	186.780420
3245.217661	183.037063
3246.333172	181.461538
3247.449998	179.963636
3248.563713	172.860839
3249.680219	175.705594
3250.795089	177.011888
3251.906851	175.826573
3253.018454	171.800699
3254.131372	171.158042
3255.244130	168.967832
3256.353782	171.539161
3257.464749	175.230769
3258.575557	177.678322
3259.684733	178.397902
3260.792278	182.284615
3261.901138	181.959441
3263.009839	187.596503
3264.115438	183.007692
3265.222352	179.788112
3266.327636	179.926573
3267.434234	178.194406
3268.537732	181.072727
3269.642544	184.055245
3270.747199	181.227273
3271.848756	183.215385
3272.950156	181.921678
3274.052870	183.011888
3275.155427	181.446853
3276.254889	183.611888
3277.357133	180.632168
3278.456283	181.079021
3279.553807	180.758042
3280.651176	179.913287
3281.751328	180.860140
3282.848386	176.802797
3283.945290	175.092308
3285.042038	172.740559
3286.134227	166.998601
3287.230666	169.111888
3288.325482	164.078322
3289.420143	160.746154
3290.513183	157.504895
3291.606069	157.511189
3292.697334	160.038462
3293.789912	162.123077
3294.880870	164.207692
3295.970208	167.062937
3297.059393	171.004895
3298.149890	168.767832
3299.237303	166.560140
3300.324564	170.251049
3301.413137	161.073427
3302.501557	158.106294
3303.585430	159.909790
3304.673545	164.083916
3305.758579	167.788112
3306.841997	172.113287
3307.926727	175.730070
3309.009841	183.957343
3310.094267	187.791608
3311.175615	189.118881
3312.258275	186.974126
3313.339321	188.553147
3314.420216	186.991608
3315.499498	182.881818
3316.578629	187.461538
3317.659072	180.918881
3318.736440	175.646154
3319.815120	170.407692
3320.892188	161.744755
3321.969106	161.765734
3323.044414	162.927972
3324.119572	165.500699
3325.196041	165.586713
3326.269439	168.568531
3327.342689	172.258741
3328.417250	170.355944
3329.490201	177.523776
3330.561545	175.329371
3331.634199	174.890909
3332.703786	167.625175
3333.774684	162.290909
3334.843975	167.776224
3335.914577	168.976224
3336.983572	169.768531
3338.050961	173.888112
3339.116745	176.001399
3340.186755	173.091608
3341.253702	175.172028
3342.317587	180.663636
3343.384240	182.126573
3344.449289	176.767133
3345.512734	170.014685
3346.576032	171.689510
3347.639185	173.651049
3348.702191	169.075524
3349.765050	169.952448
3350.826308	168.008392
3351.884509	166.015385
3352.946931	163.609790
3354.006296	170.154545
3355.065517	173.558741
3356.126046	173.646853
3357.182066	171.811888
3358.240851	169.537063
3359.295128	167.518881
3360.352169	169.323776
3361.407611	166.556643
3362.464362	165.282517
3363.519516	160.889510
3364.573072	160.686713
3365.625031	164.109790
3366.679752	168.646154
3367.731425	169.694406
3368.782953	168.883916
3369.835791	168.344755
3370.885581	168.781818
3371.936680	169.473427
3372.984732	173.130070
3374.035545	175.578322
3375.083312	175.984615
3376.130937	172.632168
3377.178420	165.267832
3378.224309	166.568531
3379.271508	163.315385
3380.315663	160.118881
3381.362577	156.600699
3382.407899	152.837063
3383.450181	151.486713
3384.492321	147.088112
3385.535770	147.616783
3386.579077	150.674825
3387.620794	150.039161
3388.662370	148.256643
3389.703806	149.910490
3390.743653	156.293007
3391.781911	158.881818
3392.821477	166.350350
3393.860903	165.330769
3394.898741	162.234266
3395.934992	162.961538
3396.971103	161.297203
3398.008522	157.663636
3399.042908	156.310490
3400.078602	151.786014
3401.114156	149.712587
3402.146678	149.202098
3403.181954	147.420280
3404.214199	150.335664
3405.246306	150.994406
3406.276829	152.323077
3407.308660	150.638462
3408.340352	149.445455
3409.369016	148.830070
3410.397542	149.262937
3411.427376	153.660839
3412.457072	152.872028
3413.483741	153.302797
3414.511718	155.335664
3415.536670	156.990909
3416.564372	160.937063
3417.589051	161.181818
3418.615036	162.741259
3419.639442	157.488112
3420.663710	157.857343
3421.686400	154.183916
3422.708955	155.576923
3423.732814	152.142657
3424.753654	151.176923
3425.774359	150.133766
3426.796369	150.930794
3427.815361	154.251049
3428.834218	160.777572
3429.854381	171.193407
3430.871526	186.181593
