-118.385087	2.000000
-115.715486	8.000000
-113.048821	-10.000000
-110.382909	-51.000000
-107.719928	-4.000000
-105.055517	-27.000000
-102.394037	-21.000000
-99.731128	-14.000000
-97.073326	-16.000000
-94.414093	14.000000
-91.755609	19.000000
-89.100050	-15.000000
-86.443062	-4.000000
-83.791171	11.000000
-81.137851	-34.000000
-78.487451	23.000000
-75.835621	6.000000
-73.188882	12.000000
-70.540713	-7.000000
-67.893288	-13.000000
-65.248776	-63.000000
-62.602835	30.000000
-59.961977	37.000000
-57.319688	-2.000000
-54.680309	-56.000000
-52.039501	0.000000
-49.399432	22.000000
-46.764437	-28.000000
-44.128012	-42.000000
-41.494491	17.000000
-38.859540	-25.000000
-36.229656	-8.000000
-33.596178	29.000000
-30.967763	16.000000
-28.340082	6.000000
-25.710973	33.000000
-23.086920	45.000000
-20.459278	-8.000000
-17.836689	29.000000
-15.214831	-1.000000
-12.593704	100.000000
-9.973308	162.000000
-7.355799	533.000000
-4.736862	1746.000000
-2.120811	4576.000000
0.494512	6014.000000
3.109108	3204.000000
5.720822	344.000000
8.333963	76.000000
10.942071	59.000000
13.553761	6.000000
16.160420	38.000000
18.768507	-21.000000
21.375870	-29.000000
23.978208	6.000000
26.584124	-14.000000
29.185019	60.000000
31.787341	49.000000
34.384645	9.000000
36.985525	9.000000
39.581391	28.000000
42.178684	27.000000
44.775258	4.000000
47.366823	2.000000
49.959816	-54.000000
52.549948	51.000000
55.141508	-18.000000
57.730208	18.000000
60.320336	-48.000000
62.905464	-37.000000
65.492020	38.000000
68.077861	-38.000000
70.660849	22.000000
73.245264	3.000000
75.822549	-54.000000
78.403401	-52.000000
80.981404	-42.000000
83.558697	-12.000000
86.137416	-9.000000
88.711154	-16.000000
91.286318	35.000000
93.858639	-20.000000
96.430253	-27.000000
98.999026	-39.000000
101.569226	31.000000
104.136587	-29.000000
106.705375	-31.000000
109.271325	-18.000000
111.834441	2.000000
114.401114	69.000000
116.958564	-3.000000
119.521700	50.000000
122.079877	34.000000
124.641607	35.000000
127.198382	67.000000
129.756582	136.000000
132.309830	182.000000
134.862379	251.000000
137.418480	357.000000
139.969632	451.000000
142.520086	475.000000
145.069844	585.000000
147.616782	663.000000
150.163024	614.000000
152.710693	693.000000
155.257665	823.000000
157.799701	711.000000
160.341044	709.000000
162.881695	744.000000
165.423770	732.000000
167.963035	683.000000
170.499490	755.000000
173.035255	715.000000
175.572445	675.000000
178.108943	731.000000
180.642636	703.000000
183.173526	765.000000
185.703727	715.000000
188.235353	635.000000
190.764179	649.000000
193.290205	689.000000
195.815545	674.000000
198.342310	630.000000
200.866279	683.000000
203.389562	704.000000
205.912161	664.000000
208.431967	732.000000
210.951090	671.000000
213.469530	673.000000
215.989394	683.000000
218.502257	723.000000
221.018651	734.000000
223.534364	636.000000
226.045186	674.000000
228.557433	727.000000
231.066897	701.000000
233.575683	732.000000
236.083791	711.000000
238.593323	700.000000
241.097974	643.000000
243.601949	638.000000
246.107348	765.000000
248.607872	772.000000
251.111919	736.000000
253.608996	781.000000
256.109595	731.000000
258.607423	698.000000
261.104578	737.000000
263.601060	793.000000
266.092680	788.000000
268.587818	825.000000
271.080191	852.000000
273.571893	948.000000
276.060832	962.000000
278.551194	899.000000
281.038795	1012.000000
283.523636	1093.000000
286.011991	1224.000000
288.493408	1492.000000
290.978338	1877.000000
293.458422	2767.000000
295.942019	3674.000000
298.420774	4557.000000
300.900951	4734.000000
303.378377	3715.000000
305.855139	2589.000000
308.331237	1774.000000
310.804587	1398.000000
313.277276	1126.000000
315.749303	925.000000
318.220668	936.000000
320.689290	861.000000
323.157252	896.000000
325.626637	924.000000
328.091199	832.000000
330.559264	822.000000
333.022510	855.000000
335.485099	787.000000
337.947030	759.000000
340.408305	818.000000
342.866846	812.000000
345.326809	785.000000
347.784040	771.000000
350.240616	847.000000
352.696537	776.000000
355.149730	768.000000
357.604345	829.000000
360.054158	851.000000
362.507467	824.000000
364.955977	776.000000
367.403837	743.000000
369.853118	776.000000
372.297606	768.000000
374.743516	744.000000
377.188777	737.000000
379.631319	787.000000
382.073213	733.000000
384.514459	757.000000
386.952990	723.000000
389.392943	760.000000
391.830182	801.000000
394.264709	784.000000
396.702724	737.000000
399.135962	749.000000
401.570622	749.000000
404.000509	774.000000
406.433881	749.000000
408.862482	722.000000
411.290443	816.000000
413.719824	722.000000
416.144441	740.000000
418.570478	676.000000
420.995876	732.000000
423.420633	871.000000
425.840631	804.000000
428.262051	814.000000
430.680774	765.000000
433.100918	750.000000
435.518367	777.000000
437.937236	747.000000
440.353412	756.000000
442.764841	784.000000
445.179746	840.000000
447.591961	830.000000
450.003542	777.000000
452.414489	867.000000
454.822750	837.000000
457.230379	862.000000
459.637375	800.000000
462.043739	846.000000
464.447422	832.000000
466.850474	786.000000
469.252896	844.000000
471.654688	811.000000
474.053802	720.000000
476.454336	840.000000
478.854241	772.000000
481.249423	723.000000
483.648072	714.000000
486.042001	815.000000
488.435304	791.000000
490.827981	785.000000
493.220033	812.000000
495.613504	716.000000
498.002262	841.000000
500.388354	769.000000
502.775866	837.000000
505.162754	770.000000
507.546979	735.000000
509.932623	690.000000
512.315604	765.000000
514.695925	698.000000
517.077665	712.000000
519.456746	661.000000
521.837246	638.000000
524.215088	734.000000
526.590275	738.000000
528.964844	623.000000
531.340832	713.000000
533.714166	676.000000
536.088919	714.000000
538.458985	790.000000
540.828436	726.000000
543.199306	756.000000
545.565494	741.000000
547.933101	694.000000
550.298062	758.000000
552.662410	760.000000
555.026146	773.000000
557.391299	810.000000
559.751780	736.000000
562.113678	806.000000
564.472937	783.000000
566.829557	760.000000
569.189623	788.000000
571.542997	789.000000
573.899816	716.000000
576.254000	791.000000
578.607575	717.000000
580.960542	758.000000
583.310878	667.000000
585.662630	797.000000
588.007706	787.000000
590.358246	742.000000
592.702113	742.000000
595.051441	701.000000
597.396120	723.000000
599.738175	735.000000
602.081647	718.000000
604.422496	720.000000
606.762742	727.000000
609.100368	689.000000
611.441429	622.000000
613.777853	690.000000
616.115693	757.000000
618.450915	647.000000
620.783522	734.000000
623.117546	705.000000
625.448955	772.000000
627.779766	724.000000
630.109979	722.000000
632.439595	717.000000
634.764587	652.000000
637.095021	693.000000
639.420833	713.000000
641.744039	720.000000
644.068661	725.000000
646.390677	659.000000
648.712099	713.000000
651.030918	786.000000
653.351153	669.000000
655.670795	658.000000
657.987836	680.000000
660.304286	638.000000
662.618137	704.000000
664.933403	664.000000
667.246073	674.000000
669.560158	652.000000
671.869644	750.000000
674.180544	737.000000
676.488852	657.000000
678.796572	793.000000
681.105707	711.000000
683.410249	694.000000
685.714205	708.000000
688.017574	652.000000
690.322358	718.000000
692.622556	699.000000
694.924169	686.000000
697.225196	739.000000
699.521642	697.000000
701.819502	734.000000
704.116780	656.000000
706.413473	782.000000
708.705591	730.000000
711.001120	714.000000
713.292076	718.000000
715.584446	675.000000
717.874240	778.000000
720.163455	725.000000
722.452089	750.000000
724.738152	684.000000
727.025628	709.000000
729.310534	726.000000
731.594861	722.000000
733.876621	714.000000
736.159794	741.000000
738.442390	702.000000
740.720430	668.000000
742.999884	776.000000
745.278763	778.000000
747.557066	758.000000
749.830820	720.000000
752.105988	791.000000
754.380582	745.000000
756.652617	706.000000
758.926065	784.000000
761.196955	719.000000
763.465288	684.000000
765.735036	646.000000
768.002228	754.000000
770.268850	738.000000
772.534903	797.000000
774.798404	765.000000
777.063317	792.000000
779.327662	797.000000
781.587476	802.000000
783.848704	782.000000
786.109364	723.000000
788.367477	705.000000
790.623046	862.000000
792.882006	764.000000
795.134467	782.000000
797.392295	661.000000
799.645604	776.000000
801.896372	770.000000
804.148553	835.000000
806.398196	781.000000
808.649250	743.000000
810.895793	747.000000
813.143749	770.000000
815.389169	809.000000
817.636002	811.000000
819.882272	779.000000
822.124039	699.000000
824.369188	738.000000
826.607865	816.000000
828.849925	739.000000
831.087486	713.000000
833.326458	807.000000
835.562904	844.000000
837.800762	814.000000
840.036094	750.000000
842.268902	770.000000
844.503122	709.000000
846.734820	780.000000
848.965963	782.000000
851.196551	743.000000
853.426585	700.000000
855.656064	706.000000
857.881063	765.000000
860.109435	837.000000
862.333329	765.000000
864.558633	733.000000
866.779462	730.000000
869.003663	780.000000
871.223391	746.000000
873.444530	648.000000
875.665118	721.000000
877.883197	635.000000
880.102685	671.000000
882.317707	876.000000
884.532181	855.000000
886.746108	810.000000
888.959487	687.000000
891.172320	779.000000
893.384605	839.000000
895.594389	753.000000
897.803627	690.000000
900.012319	755.000000
902.218513	748.000000
904.426116	759.000000
906.631222	858.000000
908.835784	724.000000
911.037851	787.000000
913.241327	715.000000
915.442309	781.000000
917.642749	708.000000
919.844598	685.000000
922.040056	683.000000
924.238872	821.000000
926.433251	828.000000
928.630987	735.000000
930.824287	880.000000
933.018995	780.000000
935.211218	744.000000
937.402903	835.000000
939.594050	667.000000
941.782714	829.000000
943.970841	927.000000
946.156488	731.000000
948.345487	747.000000
950.530063	889.000000
952.714104	792.000000
954.901495	737.000000
957.080583	889.000000
959.263020	854.000000
961.444924	808.000000
963.624354	677.000000
965.801311	842.000000
967.979676	960.000000
970.159447	947.000000
972.332870	725.000000
974.509639	852.000000
976.682002	870.000000
978.855771	836.000000
981.025138	874.000000
983.197848	930.000000
985.368092	895.000000
987.537808	850.000000
989.706995	849.000000
991.871785	989.000000
994.039917	758.000000
996.203653	815.000000
998.368797	730.000000
1000.531481	838.000000
1002.693640	762.000000
1004.853341	739.000000
1007.012519	904.000000
1009.173103	700.000000
1011.331232	724.000000
1013.488837	865.000000
1015.645919	1030.000000
1017.802478	845.000000
1019.954657	803.000000
1022.108243	829.000000
1024.261306	767.000000
1026.411922	884.000000
1028.563943	780.000000
1030.711591	991.000000
1032.862571	787.000000
1035.009181	857.000000
1037.155271	1107.000000
1039.300843	527.000000
1041.447819	1026.000000
1043.588508	751.000000
1045.732525	743.000000
1047.874103	757.000000
1050.015163	853.000000
1052.157628	1038.000000
1054.293814	868.000000
1056.433326	769.000000
1058.568482	709.000000
1060.706963	1114.000000
1062.841091	1118.000000
1064.974705	684.000000
1067.109723	966.000000
1069.240392	640.000000
1071.372467	988.000000
1073.502111	866.000000
1075.631244	911.000000
1077.759866	809.000000
1079.887976	743.000000
1082.013660	990.000000
1084.138834	902.000000
1086.265411	819.000000
1088.387652	681.000000
1090.511297	921.000000
1092.630607	892.000000
1094.755146	752.000000
1096.873441	862.000000
1098.993139	1028.000000
1101.110419	901.000000
1103.227193	943.000000
1105.343460	803.000000
1107.457312	1045.000000
1109.572567	823.000000
1111.683500	780.000000
1113.797744	896.000000
1115.907669	897.000000
1118.018996	882.000000
1120.129820	767.000000
1122.236327	855.000000
1124.346143	904.000000
1126.451645	773.000000
1128.558551	1004.000000
1130.659240	737.000000
1132.765142	901.000000
1134.866735	991.000000
1136.969731	724.000000
1139.072226	969.000000
1141.168515	712.000000
1143.270010	895.000000
1145.367203	1109.000000
1147.463897	893.000000
1149.560094	904.000000
1151.655792	919.000000
1153.750993	839.000000
1155.843797	812.000000
1157.938003	994.000000
1160.026018	887.000000
1162.119231	909.000000
1164.206256	884.000000
1166.296581	900.000000
1168.382617	956.000000
1170.471951	931.000000
1172.555104	760.000000
1174.639660	938.000000
1176.725616	849.000000
1178.807291	873.000000
1180.890368	871.000000
1182.971059	956.000000
1185.051259	834.000000
1187.130967	754.000000
1189.210183	963.000000
1191.287018	993.000000
1193.361472	917.000000
1195.439218	922.000000
1197.512693	862.000000
1199.587570	925.000000
1201.658179	862.000000
1203.730189	1080.000000
1205.799823	874.000000
1207.870858	778.000000
1209.941405	968.000000
1212.007691	810.000000
1214.075378	789.000000
1216.140693	1016.000000
1218.207408	852.000000
1220.269867	893.000000
1222.335612	1030.000000
1224.397102	1068.000000
1226.459992	849.000000
1228.520515	812.000000
1230.580555	841.000000
1232.640111	884.000000
1234.697303	911.000000
1236.754012	954.000000
1238.808359	895.000000
1240.865986	908.000000
1242.921251	939.000000
1244.972275	867.000000
1247.024699	940.000000
1249.076644	1065.000000
1251.126230	879.000000
1253.175337	831.000000
1255.223965	888.000000
1257.272115	915.000000
1259.319787	955.000000
1261.363228	935.000000
1263.409944	902.000000
1265.454308	947.000000
1267.498194	874.000000
1269.539730	861.000000
1271.578916	950.000000
1273.621374	987.000000
1275.659611	993.000000
1277.699245	976.000000
1279.738405	751.000000
1281.773347	978.000000
1283.809687	919.000000
1285.843682	922.000000
1287.879076	965.000000
1289.910256	995.000000
1291.942835	990.000000
1293.974941	1021.000000
1296.004707	996.000000
1298.035871	968.000000
1300.062827	991.000000
1302.091181	1055.000000
1304.115331	876.000000
1306.142746	864.000000
1308.165958	933.000000
1310.190568	1075.000000
1312.212843	947.000000
1314.236516	1030.000000
1316.257856	921.000000
1318.278729	900.000000
1320.299134	852.000000
1322.315345	989.000000
1324.332955	822.000000
1326.348236	834.000000
1328.366776	931.000000
1330.381126	928.000000
1332.393151	983.000000
1334.408434	959.000000
1336.419531	864.000000
1338.432024	941.000000
1340.440335	893.000000
1342.451902	909.000000
1344.457430	896.000000
1346.466212	908.000000
1348.470818	956.000000
1350.478677	862.000000
1352.486073	938.000000
1354.487439	1058.000000
1356.490202	891.000000
1358.492505	898.000000
1360.494347	890.000000
1362.495731	1018.000000
1364.494800	892.000000
1366.493411	923.000000
1368.491564	960.000000
1370.489259	977.000000
1372.482790	862.000000
1374.477718	989.000000
1376.472189	1009.000000
1378.466203	867.000000
1380.457910	900.000000
1382.449161	933.000000
1384.438107	936.000000
1386.428448	822.000000
1388.418334	891.000000
1390.405917	1060.000000
1392.393046	899.000000
1394.377873	829.000000
1396.364095	978.000000
1398.348016	887.000000
1400.331485	877.000000
1402.314502	963.000000
1404.295221	942.000000
1406.277334	896.000000
1408.257150	1022.000000
1410.236516	954.000000
1412.211743	920.000000
1414.190208	932.000000
1416.166380	951.000000
1418.142102	816.000000
1420.117375	908.000000
1422.090357	1054.000000
1424.062892	935.000000
1426.034978	959.000000
1428.006616	951.000000
1429.974127	949.000000
1431.946711	1088.000000
1433.911489	923.000000
1435.881340	1061.000000
1437.847066	987.000000
1439.814186	890.000000
1441.779022	893.000000
1443.739738	966.000000
1445.705522	946.000000
1447.665351	915.000000
1449.626573	816.000000
1451.589188	971.000000
1453.547688	891.000000
1455.505746	1026.000000
1457.463361	1039.000000
1459.420535	933.000000
1461.375433	965.000000
1463.331723	994.000000
1465.285739	984.000000
1467.239315	1011.000000
1469.190618	858.000000
1471.143313	961.000000
1473.093737	923.000000
1475.043722	991.000000
1476.993267	731.000000
1478.940544	1006.000000
1480.885554	902.000000
1482.831956	931.000000
1484.777920	945.000000
1486.723446	863.000000
1488.666708	919.000000
1490.609533	916.000000
1492.550095	963.000000
1494.492048	865.000000
1496.431740	885.000000
1498.370996	836.000000
1500.309818	1021.000000
1502.246380	1036.000000
1504.184332	872.000000
1506.120027	895.000000
1508.055288	940.000000
1509.988292	830.000000
1511.920864	1105.000000
1513.853004	877.000000
1515.784712	947.000000
1517.714167	901.000000
1519.645011	989.000000
1521.575425	943.000000
1523.501766	872.000000
1525.429497	922.000000
1527.354978	1030.000000
1529.280030	1069.000000
1531.204653	1045.000000
1533.128847	959.000000
1535.050794	993.000000
1536.974130	904.000000
1538.895221	1086.000000
1540.814067	935.000000
1542.734303	1009.000000
1544.652295	887.000000
1546.569861	923.000000
1548.485185	924.000000
1550.401899	875.000000
1552.314558	890.000000
1554.230421	971.000000
1556.144045	981.000000
1558.055430	832.000000
1559.968204	1030.000000
1561.876929	895.000000
1563.787044	1046.000000
1565.696735	888.000000
1567.606002	935.000000
1569.513036	864.000000
1571.417837	889.000000
1573.324027	966.000000
1575.227985	945.000000
1577.131523	1075.000000
1579.034639	983.000000
1580.935527	908.000000
1582.837803	902.000000
1584.737850	980.000000
1586.639286	1013.000000
1588.536687	1007.000000
1590.433671	847.000000
1592.330236	937.000000
1594.228188	955.000000
1596.120306	906.000000
1598.015618	1114.000000
1599.910511	915.000000
1601.803183	963.000000
1603.695439	1041.000000
1605.585475	888.000000
1607.475095	1073.000000
1609.364300	928.000000
1611.253089	1007.000000
1613.139662	825.000000
1615.027621	884.000000
1616.911565	977.000000
1618.796895	873.000000
1620.681812	953.000000
1622.564515	916.000000
1624.448604	967.000000
1626.328683	886.000000
1628.210148	1105.000000
1630.089403	948.000000
1631.970044	991.000000
1633.844881	961.000000
1635.724700	870.000000
1637.600513	880.000000
1639.475917	819.000000
1641.352706	1093.000000
1643.223698	957.000000
1645.097872	762.000000
1646.968048	1015.000000
1648.841404	1051.000000
1650.712557	1131.000000
1652.581508	1048.000000
1654.451845	932.000000
1656.318188	1079.000000
1658.185918	1064.000000
1660.051448	931.000000
1661.918363	845.000000
1663.781290	1128.000000
1665.645602	896.000000
1667.507719	926.000000
1669.369430	897.000000
1671.232526	1154.000000
1673.093428	893.000000
1674.952136	873.000000
1676.810441	988.000000
1678.670131	806.000000
1680.524054	950.000000
1682.381149	1012.000000
1684.237842	961.000000
1686.090559	900.000000
1687.946447	898.000000
1689.798361	885.000000
1691.649873	777.000000
1693.500986	1002.000000
1695.351697	827.000000
1697.202008	901.000000
1699.050135	936.000000
1700.899645	668.000000
1702.743407	606.000000
1704.592119	961.000000
1706.435084	939.000000
1708.281215	798.000000
1710.123385	929.000000
1711.968719	711.000000
1713.808313	895.000000
1715.649291	927.000000
1717.491652	976.000000
1719.330057	846.000000
1721.169845	783.000000
1723.007458	623.000000
1724.844675	1119.000000
1726.679719	1069.000000
1728.516146	610.000000
1730.350401	949.000000
1732.184262	1053.000000
1734.017728	769.000000
1735.847248	826.000000
1737.679927	935.000000
1739.508662	660.000000
1741.340555	930.000000
1743.168505	1115.000000
1744.996063	1036.000000
1746.823230	919.000000
1748.650004	889.000000
1750.476388	782.000000
1752.298835	847.000000
1754.124436	981.000000
1755.946103	1075.000000
1757.769152	867.000000
1759.590040	1076.000000
1761.410538	792.000000
1763.232418	906.000000
1765.048598	953.000000
1766.867930	953.000000
1768.683335	691.000000
1770.501891	1119.000000
1772.316521	924.000000
1774.130764	814.000000
1775.944621	859.000000
1777.758091	765.000000
1779.569407	831.000000
1781.382105	905.000000
1783.194416	892.000000
1785.002810	853.000000
1786.812585	857.000000
1788.618444	769.000000
1790.427450	792.000000
1792.232542	931.000000
1794.039014	680.000000
1795.845103	868.000000
1797.647282	848.000000
1799.452604	832.000000
1801.254018	915.000000
1803.056812	824.000000
1804.855701	917.000000
1806.655969	958.000000
1808.455857	881.000000
1810.253602	799.000000
1812.050967	931.000000
1813.847951	900.000000
1815.644555	876.000000
1817.439020	890.000000
1819.234865	781.000000
1821.025054	881.000000
1822.820140	755.000000
1824.609573	751.000000
1826.402144	882.000000
1828.192579	1004.000000
1829.980879	803.000000
1831.772315	931.000000
1833.558105	951.000000
1835.345275	937.000000
1837.130313	1089.000000
1838.918485	821.000000
1840.702771	799.000000
1842.484928	919.000000
1844.268463	889.000000
1846.049871	896.000000
1847.832656	837.000000
1849.611562	879.000000
1851.391846	893.000000
1853.170005	732.000000
1854.949541	815.000000
1856.726953	840.000000
1858.502241	881.000000
1860.278908	926.000000
1862.053452	949.000000
1863.829373	953.000000
1865.599675	731.000000
1867.373104	814.000000
1869.144413	1038.000000
1870.915351	1002.000000
1872.687666	751.000000
1874.454369	943.000000
1876.224196	816.000000
1877.990160	927.000000
1879.759248	968.000000
1881.524474	899.000000
1883.289332	940.000000
1885.055566	746.000000
1886.817942	970.000000
1888.579951	709.000000
1890.341593	937.000000
1892.102867	820.000000
1893.863775	792.000000
1895.624315	820.000000
1897.382746	969.000000
1899.140812	908.000000
1900.896770	849.000000
1902.654104	817.000000
1904.411072	833.000000
1906.165935	902.000000
1907.918692	827.000000
1909.671086	916.000000
1911.424856	833.000000
1913.176522	788.000000
1914.926085	858.000000
1916.677025	867.000000
1918.427601	757.000000
1920.174339	816.000000
1921.922452	663.000000
1923.668466	831.000000
1925.415856	953.000000
1927.161147	720.000000
1928.904341	787.000000
1930.648911	671.000000
1932.391384	811.000000
1934.133497	756.000000
1935.875251	749.000000
1937.616644	841.000000
1939.355944	677.000000
1941.094885	837.000000
1942.833467	765.000000
1944.569957	950.000000
1946.306090	889.000000
1948.043597	828.000000
1949.777283	883.000000
1951.512343	746.000000
1953.245314	768.000000
1954.977929	795.000000
1956.710187	801.000000
1958.442089	869.000000
1960.171905	760.000000
1961.899637	923.000000
1963.628742	937.000000
1965.357493	838.000000
1967.084160	802.000000
1968.810473	865.000000
1970.538159	767.000000
1972.260309	1090.000000
1973.985561	958.000000
1975.707005	887.000000
1977.431549	749.000000
1979.154014	891.000000
1980.872675	886.000000
1982.594435	1038.000000
1984.312393	743.000000
1986.031725	768.000000
1987.747256	877.000000
1989.467609	783.000000
1991.184162	896.000000
1992.896920	847.000000
1994.612773	743.000000
1996.326554	984.000000
1998.039984	911.000000
1999.751344	853.000000
2001.464077	804.000000
2003.173018	1065.000000
2004.885053	895.000000
2006.591578	811.000000
2008.301196	1029.000000
2010.008746	941.000000
2011.715949	981.000000
2013.421086	891.000000
2015.125876	775.000000
2016.832038	944.000000
2018.534418	711.000000
2020.238170	790.000000
2021.939859	784.000000
2023.641202	729.000000
2025.342200	939.000000
2027.041138	819.000000
2028.741447	868.000000
2030.437980	691.000000
2032.135885	860.000000
2033.831732	813.000000
2035.530664	888.000000
2037.224110	801.000000
2038.918927	910.000000
2040.613401	713.000000
2042.304107	828.000000
2043.997897	858.000000
2045.687920	820.000000
2047.379314	911.000000
2049.068655	820.000000
2050.759366	761.000000
2052.446315	860.000000
2054.132923	816.000000
2055.820902	862.000000
2057.505121	948.000000
2059.190710	966.000000
2060.875960	911.000000
2062.559162	849.000000
2064.243734	812.000000
2065.922842	785.000000
2067.606736	847.000000
2069.285170	925.000000
2070.966681	948.000000
2072.644440	819.000000
2074.321863	932.000000
2076.000655	753.000000
2077.677404	866.000000
2079.352112	901.000000
2081.028189	821.000000
2082.702226	871.000000
2084.375927	800.000000
2086.049293	824.000000
2087.720621	814.000000
2089.391614	897.000000
2091.062273	877.000000
2092.732598	991.000000
2094.402588	819.000000
2096.070543	952.000000
2097.738165	904.000000
2099.403753	849.000000
2101.070709	893.000000
2102.735632	842.000000
2104.400222	761.000000
2106.062781	785.000000
2107.726709	868.000000
2109.388605	820.000000
2111.050170	716.000000
2112.711405	873.000000
2114.370610	880.000000
2116.029486	909.000000
2117.688031	789.000000
2119.346247	857.000000
2121.000739	864.000000
2122.658297	839.000000
2124.315524	944.000000
2125.969031	841.000000
2127.623905	870.000000
2129.275060	825.000000
2130.929278	843.000000
2132.579778	923.000000
2134.231646	886.000000
2135.878105	846.000000
2137.529318	892.000000
2139.176818	1000.000000
2140.825686	879.000000
2142.472534	914.000000
2144.119056	813.000000
2145.765254	863.000000
2147.407742	884.000000
2149.053289	777.000000
2150.695129	737.000000
2152.340026	893.000000
2153.981218	839.000000
2155.622086	857.000000
2157.262631	768.000000
2158.901163	868.000000
2160.541061	692.000000
2162.177259	893.000000
2163.814823	844.000000
2165.452065	861.000000
2167.087297	887.000000
2168.722207	825.000000
2170.356796	834.000000
2171.991064	809.000000
2173.621638	730.000000
2175.255263	918.000000
2176.885197	762.000000
2178.516496	740.000000
2180.145791	796.000000
2181.774765	794.000000
2183.403421	891.000000
2185.031757	716.000000
2186.658090	747.000000
2188.284105	929.000000
2189.908119	825.000000
2191.533498	824.000000
2193.156876	700.000000
2194.781619	775.000000
2196.402680	868.000000
2198.023426	897.000000
2199.645535	779.000000
2201.265647	773.000000
2202.883763	785.000000
2204.501563	853.000000
2206.119047	802.000000
2207.736216	926.000000
2209.353070	894.000000
2210.969609	818.000000
2212.584154	870.000000
2214.196707	772.000000
2215.810625	827.000000
2217.422550	752.000000
2219.035840	836.000000
2220.647138	798.000000
2222.256448	718.000000
2223.867120	920.000000
2225.475804	816.000000
2227.084176	815.000000
2228.690560	856.000000
2230.298308	922.000000
2231.904069	741.000000
2233.509519	769.000000
2235.112985	827.000000
2236.717813	793.000000
2238.320657	677.000000
2239.921518	832.000000
2241.523742	818.000000
2243.123983	917.000000
2244.725588	874.000000
2246.323539	740.000000
2247.922853	621.000000
2249.520187	824.000000
2251.117213	874.000000
2252.715600	676.000000
2254.310339	811.000000
2255.903102	871.000000
2257.497226	849.000000
2259.092712	808.000000
2260.684554	763.000000
2262.276089	905.000000
2263.868985	851.000000
2265.456572	792.000000
2267.048856	973.000000
2268.635832	961.000000
2270.225837	806.000000
2271.810537	814.000000
2273.399931	813.000000
2274.984022	747.000000
2276.569475	954.000000
2278.152959	698.000000
2279.739468	783.000000
2281.322344	812.000000
2282.904916	685.000000
2284.487186	856.000000
2286.065825	741.000000
2287.647488	815.000000
2289.225524	826.000000
2290.806582	717.000000
2292.384013	758.000000
2293.959481	799.000000
2295.537971	661.000000
2297.112836	676.000000
2298.687401	860.000000
2300.261666	783.000000
2301.835630	855.000000
2303.409294	580.000000
2304.982657	645.000000
2306.552402	771.000000
2308.121848	877.000000
2309.694313	757.000000
2311.261503	941.000000
2312.831710	801.000000
2314.398303	715.000000
2315.966256	880.000000
2317.532254	770.000000
2319.097954	825.000000
2320.663356	752.000000
2322.226805	856.000000
2323.791613	751.000000
2325.352812	878.000000
2326.917026	758.000000
2328.475979	625.000000
2330.037945	805.000000
2331.597961	694.000000
2333.157681	818.000000
2334.715452	790.000000
2336.272929	826.000000
2337.830110	1068.000000
2339.385345	693.000000
2340.940285	760.000000
2342.494932	792.000000
2344.049285	664.000000
2345.603344	781.000000
2347.157110	794.000000
2348.708931	589.000000
2350.258809	843.000000
2351.811695	878.000000
2353.359339	732.000000
2354.909990	785.000000
2356.457051	848.000000
2358.005469	783.000000
2359.553595	756.000000
2361.098134	983.000000
2362.644030	680.000000
2364.187987	734.000000
2365.733302	678.000000
2367.275032	686.000000
2368.818120	711.000000
2370.359271	741.000000
2371.900133	968.000000
2373.440706	870.000000
2374.980990	748.000000
2376.520985	705.000000
2378.057401	611.000000
2379.596819	892.000000
2381.132660	848.000000
2382.669857	822.000000
2384.203480	712.000000
2385.740102	753.000000
2387.274793	861.000000
2388.807555	595.000000
2390.340031	756.000000
2391.870578	884.000000
2393.404123	851.000000
2394.932457	888.000000
2396.462147	689.000000
2397.991552	751.000000
2399.520672	805.000000
2401.049506	891.000000
2402.573136	853.000000
2404.101401	940.000000
2405.624463	716.000000
2407.152160	792.000000
2408.673016	737.000000
2410.198506	610.000000
2411.720436	809.000000
2413.243720	781.000000
2414.765084	957.000000
2416.284528	880.000000
2417.805327	670.000000
2419.324207	1050.000000
2420.842805	843.000000
2422.359486	856.000000
2423.877522	727.000000
2425.395276	744.000000
2426.909478	734.000000
2428.423400	703.000000
2429.937043	861.000000
2431.452039	749.000000
2432.963487	633.000000
2434.476290	1019.000000
2435.987180	652.000000
2437.497790	744.000000
2439.006489	811.000000
2440.518175	788.000000
2442.026317	673.000000
2443.534180	513.000000
2445.041766	717.000000
2446.545812	639.000000
2448.052842	779.000000
2449.557964	808.000000
2451.062809	673.000000
2452.565747	622.000000
2454.068408	731.000000
2455.570793	757.000000
2457.071273	865.000000
2458.573106	886.000000
2460.073035	834.000000
2461.572688	781.000000
2463.072066	729.000000
2464.569541	770.000000
2466.065114	886.000000
2467.563667	639.000000
2469.058691	743.000000
2470.555069	796.000000
2472.047920	704.000000
2473.542123	639.000000
2475.036053	849.000000
2476.526460	945.000000
2478.019844	633.000000
2479.511329	801.000000
2481.000918	782.000000
2482.490236	676.000000
2483.977657	740.000000
2485.468054	724.000000
2486.954932	619.000000
2488.443162	765.000000
2489.927876	847.000000
2491.412319	964.000000
2492.898114	675.000000
2494.382016	725.000000
2495.867270	611.000000
2497.347390	797.000000
2498.830482	831.000000
2500.311684	769.000000
2501.792617	689.000000
2503.271661	921.000000
2504.750437	687.000000
2506.228944	753.000000
2507.707182	877.000000
2509.185152	672.000000
2510.659618	886.000000
2512.137052	829.000000
2513.610983	809.000000
2515.086265	788.000000
2516.561279	629.000000
2518.032792	869.000000
2519.505656	819.000000
2520.976637	724.000000
2522.448967	763.000000
2523.916185	770.000000
2525.386369	1058.000000
2526.854671	721.000000
2528.322709	755.000000
2529.790482	837.000000
2531.257990	770.000000
2532.725233	913.000000
2534.188985	704.000000
2535.654086	729.000000
2537.117310	758.000000
2538.581883	631.000000
2540.042967	690.000000
2541.505402	414.000000
2542.967573	779.000000
2544.426257	861.000000
2545.889514	805.000000
2547.347674	707.000000
2548.807183	740.000000
2550.261599	793.000000
2551.720585	775.000000
2553.177698	780.000000
2554.632941	494.000000
2556.087923	708.000000
2557.541035	556.000000
2558.995496	789.000000
2560.448088	741.000000
2561.900420	784.000000
2563.350884	685.000000
2564.804304	927.000000
2566.252642	663.000000
2567.703936	894.000000
2569.153363	849.000000
2570.599319	612.000000
2572.048229	679.000000
2573.493668	791.000000
2574.940456	844.000000
2576.385380	630.000000
2577.830047	687.000000
2579.276061	783.000000
2580.718608	833.000000
2582.162503	679.000000
2583.602933	888.000000
2585.044711	827.000000
2586.484629	815.000000
2587.925894	666.000000
2589.363697	776.000000
2590.804450	776.000000
2592.240140	709.000000
2593.678780	667.000000
2595.115563	530.000000
2596.550489	741.000000
2597.988364	651.000000
2599.421181	682.000000
2600.855345	580.000000
2602.287654	842.000000
2603.721310	533.000000
2605.153113	1055.000000
2606.584663	824.000000
2608.015959	704.000000
2609.445404	732.000000
2610.874596	670.000000
2612.301937	735.000000
2613.730625	651.000000
2615.159060	525.000000
2616.584049	737.000000
2618.010383	592.000000
2619.434869	777.000000
2620.860701	747.000000
2622.283089	742.000000
2623.706823	647.000000
2625.128711	724.000000
2626.550348	654.000000
2627.970140	617.000000
2629.391278	662.000000
2630.812166	757.000000
2632.229616	605.000000
2633.650005	564.000000
2635.066957	711.000000
2636.483661	696.000000
2637.900116	702.000000
2639.316323	720.000000
2640.732281	711.000000
2642.146399	907.000000
2643.560270	823.000000
2644.972301	558.000000
2646.385677	855.000000
2647.795623	771.000000
2649.208505	577.000000
2650.617958	593.000000
2652.027165	742.000000
2653.434536	647.000000
2654.844841	616.000000
2656.253310	798.000000
2657.659944	866.000000
2659.066333	555.000000
2660.470888	742.000000
2661.876787	846.000000
2663.280853	636.000000
2664.684675	609.000000
2666.088252	646.000000
2667.489997	616.000000
2668.893086	650.000000
2670.292758	750.000000
2671.693773	615.000000
2673.091371	492.000000
2674.491900	787.000000
2675.889014	716.000000
2677.287471	864.000000
2678.684100	773.000000
2680.080488	631.000000
2681.476633	717.000000
2682.870952	521.000000
2684.266614	695.000000
2685.658866	747.000000
2687.052462	873.000000
2688.444233	593.000000
2689.837346	798.000000
2691.228636	674.000000
2692.618103	721.000000
2694.007331	779.000000
2695.396318	656.000000
2696.786648	594.000000
2698.171993	677.000000
2699.560263	629.000000
2700.946712	649.000000
2702.332922	707.000000
2703.718893	763.000000
2705.101466	717.000000
2706.485380	522.000000
2707.869057	594.000000
2709.252496	647.000000
2710.632539	751.000000
2712.013924	682.000000
2713.393493	788.000000
2714.774404	787.000000
2716.153500	736.000000
2717.530781	679.000000
2718.909404	762.000000
2720.286214	508.000000
2721.662788	631.000000
2723.039126	607.000000
2724.413652	789.000000
2725.789519	701.000000
2727.161999	763.000000
2728.537396	657.000000
2729.907831	649.000000
2731.279608	644.000000
2732.651151	656.000000
2734.020885	667.000000
2735.391959	776.000000
2736.761226	556.000000
2738.130259	567.000000
2739.497485	649.000000
2740.864479	493.000000
2742.231240	767.000000
2743.597768	635.000000
2744.962492	479.000000
2746.326983	594.000000
2747.691242	532.000000
2749.055270	747.000000
2750.419065	701.000000
2751.779487	684.000000
2753.142820	494.000000
2754.501210	685.000000
2755.862510	561.000000
2757.220439	684.000000
2758.581278	777.000000
2759.940316	578.000000
2761.295986	670.000000
2762.654565	561.000000
2764.009776	479.000000
2765.364758	576.000000
2766.717943	729.000000
2768.074035	666.000000
2769.426763	612.000000
2770.779262	677.000000
2772.131533	657.000000
2773.485143	354.000000
2774.835391	679.000000
2776.183846	725.000000
2777.535205	550.000000
2778.883205	570.000000
2780.232544	638.000000
2781.580090	700.000000
2782.927409	780.000000
2784.274502	612.000000
2785.619804	494.000000
2786.964880	458.000000
2788.309730	659.000000
2789.654354	575.000000
2790.995625	707.000000
2792.338235	596.000000
2793.680620	642.000000
2795.022779	652.000000
2796.361589	551.000000
2797.703299	611.000000
2799.041660	481.000000
2800.381359	600.000000
2801.719272	552.000000
2803.055401	704.000000
2804.391307	621.000000
2805.728549	352.000000
2807.064008	565.000000
2808.399244	715.000000
2809.732698	698.000000
2811.067488	696.000000
2812.398937	589.000000
2813.733282	852.000000
2815.062729	585.000000
2816.393513	594.000000
2817.724075	824.000000
2819.052858	625.000000
2820.382978	612.000000
2821.711318	641.000000
2823.039438	716.000000
2824.365781	653.000000
2825.693459	756.000000
2827.017805	681.000000
2828.343486	654.000000
2829.667393	545.000000
2830.991079	630.000000
2832.316101	783.000000
2833.637794	648.000000
2834.959267	564.000000
2836.280522	650.000000
2837.601558	708.000000
2838.920822	373.000000
2840.241421	579.000000
2841.560248	511.000000
2842.878857	530.000000
2844.195696	756.000000
2845.512317	561.000000
2846.828720	579.000000
2848.143355	588.000000
2849.459324	479.000000
2850.771973	657.000000
2852.085958	664.000000
2853.399726	597.000000
2854.713277	744.000000
2856.025061	609.000000
2857.335080	526.000000
2858.646433	661.000000
2859.954470	666.000000
2861.263843	653.000000
2862.573000	504.000000
2863.881942	558.000000
2865.189121	652.000000
2866.494536	666.000000
2867.801286	686.000000
2869.106273	741.000000
2870.411047	518.000000
2871.714059	571.000000
2873.019953	414.000000
2874.320992	668.000000
2875.623364	758.000000
2876.923977	502.000000
2878.225924	515.000000
2879.527658	496.000000
2880.826088	571.000000
2882.125851	714.000000
2883.423857	552.000000
2884.721651	673.000000
2886.017688	690.000000
2887.315059	565.000000
2888.610674	434.000000
2889.906079	411.000000
2891.201272	676.000000
2892.493167	648.000000
2893.787939	636.000000
2895.079415	516.000000
2896.372223	607.000000
2897.664821	421.000000
2898.954124	741.000000
2900.244760	729.000000
2901.533646	494.000000
2902.823863	500.000000
2904.110789	492.000000
2905.399047	562.000000
2906.685556	518.000000
2907.971856	570.000000
2909.257948	612.000000
2910.542292	533.000000
2911.829508	579.000000
2913.111897	510.000000
2914.395618	593.000000
2915.677592	617.000000
2916.959360	622.000000
2918.239382	673.000000
2919.522274	564.000000
2920.803421	640.000000
2922.081286	554.000000
2923.362020	510.000000
2924.639473	588.000000
2925.916721	661.000000
2927.192226	758.000000
2928.470599	658.000000
2929.744157	518.000000
2931.020583	619.000000
2932.295268	648.000000
2933.568213	590.000000
2934.842488	691.000000
2936.115024	488.000000
2937.387356	451.000000
2938.656415	491.000000
2939.928339	654.000000
2941.198525	552.000000
2942.468507	639.000000
2943.738286	488.000000
2945.006328	515.000000
2946.272635	688.000000
2947.538739	672.000000
2948.806174	562.000000
2950.071873	498.000000
2951.337370	644.000000
2952.602665	523.000000
2953.864696	459.000000
2955.128056	511.000000
2956.391215	558.000000
2957.652641	602.000000
2958.915397	553.000000
2960.176422	677.000000
2961.435716	438.000000
2962.694809	453.000000
2963.953702	684.000000
2965.212395	646.000000
2966.470888	574.000000
2967.727652	553.000000
2968.984217	627.000000
2970.239053	461.000000
2971.495219	658.000000
2972.748129	570.000000
2974.002369	553.000000
2975.256410	585.000000
2976.508725	613.000000
2977.760842	427.000000
2979.011234	450.000000
2980.264481	506.000000
2981.512951	585.000000
2982.764275	698.000000
2984.012351	567.000000
2985.260229	628.000000
2986.507910	552.000000
2987.755395	516.000000
2989.001158	490.000000
2990.246724	585.000000
2991.493619	581.000000
2992.737268	575.000000
2993.982246	469.000000
2995.223981	478.000000
2996.468567	417.000000
2997.711434	500.000000
2998.951059	451.000000
3000.193536	744.000000
3001.432772	570.000000
3002.673336	490.000000
3003.912183	575.000000
3005.150836	479.000000
3006.387773	441.000000
3007.626037	534.000000
3008.862587	470.000000
3010.098943	401.000000
3011.335105	577.000000
3012.569553	456.000000
3013.803808	492.000000
3015.037870	458.000000
3016.270220	684.000000
3017.500858	458.000000
3018.734342	693.000000
3019.966115	580.000000
3021.196176	474.000000
3022.426046	498.000000
3023.654206	630.000000
3024.883693	564.000000
3026.111470	381.000000
3027.339056	476.000000
3028.567968	574.000000
3029.792138	576.000000
3031.019151	491.000000
3032.242941	600.000000
3033.468056	555.000000
3034.691465	632.000000
3035.914685	525.000000
3037.136199	697.000000
3038.360554	539.000000
3039.580174	461.000000
3040.801120	631.000000
3042.021876	618.000000
3043.240929	408.000000
3044.461308	429.000000
3045.678470	595.000000
3046.896957	629.000000
3048.113743	516.000000
3049.330340	422.000000
3050.546750	644.000000
3051.759946	589.000000
3052.975980	555.000000
3054.188802	403.000000
3055.404461	550.000000
3056.615397	612.000000
3057.827659	543.000000
3059.039733	695.000000
3060.251621	427.000000
3061.461811	542.000000
3062.671816	473.000000
3063.881634	617.000000
3065.089756	583.000000
3066.297692	507.000000
3067.503934	452.000000
3068.711500	444.000000
3069.917371	569.500000
3071.123057	695.000000
3072.328559	497.000000
3073.532367	548.000000
3074.737499	513.000000
3075.940938	588.000000
3077.142685	493.000000
3078.344249	502.000000
3079.545629	633.000000
3080.746825	588.000000
3081.946331	489.000000
3083.145653	630.000000
3084.346299	424.000000
3085.545256	528.000000
3086.741017	635.000000
3087.939608	572.000000
3089.135005	620.000000
3090.331726	525.000000
3091.525254	505.000000
3092.721610	619.000000
3093.916279	457.000000
3095.107758	370.000000
3096.303568	446.000000
3097.494685	424.000000
3098.687125	561.000000
3099.876376	628.000000
3101.068454	422.000000
3102.258848	444.000000
3103.446055	441.000000
3104.634586	550.000000
3105.824439	489.000000
3107.011107	460.000000
3108.197596	507.000000
3109.383905	478.000000
3110.571537	448.000000
3111.755986	332.000000
3112.938755	573.000000
3114.124348	471.000000
3115.308260	386.000000
3116.490494	447.000000
3117.672550	565.000000
3118.854427	496.000000
3120.036126	480.000000
3121.216148	482.000000
3122.394492	493.000000
3123.575658	568.000000
3124.753648	431.000000
3125.931461	509.000000
3127.109097	586.000000
3128.285058	428.000000
3129.460843	445.000000
3130.637948	597.000000
3131.813380	521.000000
3132.987138	408.000000
3134.159223	313.000000
3135.332629	574.000000
3136.505860	554.000000
3137.677418	562.000000
3138.850298	627.000000
3140.020010	564.000000
3141.191043	596.000000
3142.360405	449.000000
3143.528098	426.000000
3144.698606	529.000000
3145.864455	587.000000
3147.034614	670.000000
3148.200115	525.000000
3149.365443	517.000000
3150.530597	321.000000
3151.695578	311.000000
3152.861878	468.000000
3154.023525	490.000000
3155.186493	642.000000
3156.349287	582.000000
3157.511909	489.000000
3158.672866	392.000000
3159.833650	576.000000
3160.994263	562.000000
3162.153211	456.000000
3163.311987	338.000000
3164.470592	393.000000
3165.629025	497.000000
3166.787286	548.000000
3167.943885	435.000000
3169.098823	486.000000
3170.255080	556.000000
3171.409677	430.000000
3172.564102	369.000000
3173.716868	648.000000
3174.869464	501.000000
3176.021890	323.000000
3177.174145	513.000000
3178.326231	471.000000
3179.475170	478.000000
3180.626916	549.000000
3181.777005	475.000000
3182.925436	379.000000
3184.073699	403.000000
3185.221793	288.000000
3186.369717	374.000000
3187.515987	478.000000
3188.662088	469.000000
3189.806535	527.000000
3190.950813	352.000000
3192.094924	494.000000
3193.240353	467.000000
3194.382643	465.000000
3195.524765	449.000000
3196.666721	541.000000
3197.808509	398.000000
3198.950130	418.000000
3200.088615	522.000000
3201.228419	512.000000
3202.369539	444.000000
3203.507525	496.000000
3204.643862	580.000000
3205.780033	428.000000
3206.917522	525.000000
3208.053362	577.000000
3209.190518	461.000000
3210.323063	499.000000
3211.459888	420.000000
3212.592102	507.000000
3213.725634	416.000000
3214.859000	457.000000
3215.989239	451.000000
3217.122277	513.000000
3218.252187	423.000000
3219.383415	401.000000
3220.511517	334.000000
3221.642417	270.000000
3222.771672	422.000000
3223.899283	399.000000
3225.023773	386.000000
3226.152538	480.000000
3227.278181	307.000000
3228.403661	556.000000
3229.527500	519.000000
3230.654134	374.000000
3231.776169	514.000000
3232.899521	421.000000
3234.022711	384.000000
3235.145739	358.000000
3236.267127	496.000000
3237.388354	560.000000
3238.507942	470.000000
3239.627369	445.000000
3240.745159	401.000000
3241.865740	429.000000
3242.983208	401.000000
3244.100515	474.000000
3245.217661	506.000000
3246.333172	491.000000
3247.449998	414.000000
3248.563713	381.000000
3249.680219	403.000000
3250.795089	316.000000
3251.906851	399.000000
3253.018454	354.000000
3254.131372	442.000000
3255.244130	373.000000
3256.353782	441.000000
3257.464749	440.000000
3258.575557	383.000000
3259.684733	448.000000
3260.792278	340.000000
3261.901138	394.000000
3263.009839	471.000000
3264.115438	473.000000
3265.222352	526.000000
3266.327636	359.000000
3267.434234	439.000000
3268.537732	391.000000
3269.642544	390.000000
3270.747199	484.000000
3271.848756	607.000000
3272.950156	451.000000
3274.052870	409.000000
3275.155427	454.000000
3276.254889	519.000000
3277.357133	339.000000
3278.456283	451.000000
3279.553807	494.000000
3280.651176	296.000000
3281.751328	420.000000
3282.848386	385.000000
3283.945290	319.000000
3285.042038	419.000000
3286.134227	403.000000
3287.230666	500.000000
3288.325482	393.000000
3289.420143	411.000000
3290.513183	412.000000
3291.606069	437.000000
3292.697334	401.000000
3293.789912	400.000000
3294.880870	419.000000
3295.970208	499.000000
3297.059393	253.000000
3298.149890	296.000000
3299.237303	469.000000
3300.324564	579.000000
3301.413137	476.000000
3302.501557	364.000000
3303.585430	449.000000
3304.673545	478.000000
3305.758579	425.000000
3306.841997	498.000000
3307.926727	451.000000
3309.009841	454.000000
3310.094267	320.000000
3311.175615	358.000000
3312.258275	486.000000
3313.339321	377.000000
3314.420216	308.000000
3315.499498	467.000000
3316.578629	502.000000
3317.659072	461.000000
3318.736440	338.000000
3319.815120	429.000000
3320.892188	469.000000
3321.969106	374.000000
3323.044414	414.000000
3324.119572	545.000000
3325.196041	318.000000
3326.269439	504.000000
3327.342689	426.000000
3328.417250	393.000000
3329.490201	433.000000
3330.561545	406.000000
3331.634199	569.000000
3332.703786	414.000000
3333.774684	408.000000
3334.843975	360.000000
3335.914577	406.000000
3336.983572	424.000000
3338.050961	398.000000
3339.116745	366.000000
3340.186755	419.000000
3341.253702	432.000000
3342.317587	463.000000
3343.384240	438.000000
3344.449289	414.000000
3345.512734	423.000000
3346.576032	269.000000
3347.639185	405.000000
3348.702191	504.000000
3349.765050	289.000000
3350.826308	505.000000
3351.884509	522.000000
3352.946931	329.000000
3354.006296	247.000000
3355.065517	590.000000
3356.126046	398.000000
3357.182066	310.000000
3358.240851	392.000000
3359.295128	354.000000
3360.352169	501.000000
3361.407611	354.000000
3362.464362	403.000000
3363.519516	379.000000
3364.573072	555.000000
3365.625031	413.000000
3366.679752	332.000000
3367.731425	468.000000
3368.782953	325.000000
3369.835791	387.000000
3370.885581	330.000000
3371.936680	391.000000
3372.984732	473.000000
3374.035545	366.000000
3375.083312	311.000000
3376.130937	328.000000
3377.178420	371.000000
3378.224309	350.000000
3379.271508	438.000000
3380.315663	361.000000
3381.362577	353.000000
3382.407899	408.000000
3383.450181	402.000000
3384.492321	434.000000
3385.535770	384.000000
3386.579077	528.000000
3387.620794	320.000000
3388.662370	260.000000
3389.703806	390.000000
3390.743653	375.000000
3391.781911	337.000000
3392.821477	383.000000
3393.860903	287.000000
3394.898741	434.000000
3395.934992	313.000000
3396.971103	378.000000
3398.008522	419.000000
3399.042908	373.000000
3400.078602	382.000000
3401.114156	477.000000
3402.146678	347.000000
3403.181954	366.000000
3404.214199	438.000000
3405.246306	384.000000
3406.276829	342.000000
3407.308660	391.000000
3408.340352	549.000000
3409.369016	300.000000
3410.397542	415.000000
3411.427376	430.000000
3412.457072	365.000000
3413.483741	359.000000
3414.511718	328.000000
3415.536670	361.000000
3416.564372	507.000000
3417.589051	391.000000
3418.615036	373.000000
3419.639442	387.000000
3420.663710	370.000000
3421.686400	336.000000
3422.708955	343.000000
3423.732814	450.000000
3424.753654	361.000000
3425.774359	276.000000
3426.796369	422.000000
3427.815361	283.000000
3428.834218	383.000000
3429.854381	433.000000
3430.871526	454.000000
