-118.448435	-11.900000
-115.778835	4.000000
-113.112170	-13.400000
-110.446257	7.500000
-107.783276	-3.100000
-105.118866	-17.000000
-102.457386	7.600000
-99.794476	-12.000000
-97.136674	-2.700000
-94.477441	11.200000
-91.818958	-12.300000
-89.163398	-9.500000
-86.506410	3.800000
-83.854519	-1.000000
-81.201199	0.500000
-78.550799	-21.400000
-75.898969	6.300000
-73.252230	6.200000
-70.604061	0.600000
-67.956636	6.900000
-65.312124	1.400000
-62.666184	-9.900000
-60.025325	9.100000
-57.383037	3.300000
-54.743657	-3.500000
-52.102849	-11.300000
-49.462781	8.200000
-46.827785	12.300000
-44.191360	7.000000
-41.557839	5.000000
-38.922889	9.600000
-36.293004	4.100000
-33.659527	14.400000
-31.031112	7.300000
-28.403430	-7.900000
-25.774321	12.600000
-23.150268	28.900000
-20.522626	-12.700000
-17.900037	27.200000
-15.278180	35.400000
-12.657053	44.500000
-10.036656	113.900000
-7.419147	369.500000
-4.800210	1286.000000
-2.184159	3104.900000
0.431164	4068.200000
3.045760	2588.300000
5.657473	358.300000
8.270615	27.800000
10.878723	28.300000
13.490413	18.600000
16.097072	5.700000
18.705159	8.200000
21.312522	7.600000
23.914860	1.300000
26.520776	16.800000
29.121670	-0.500000
31.723992	14.100000
34.321297	4.500000
36.922177	3.300000
39.518043	9.700000
42.115336	-13.800000
44.711910	-10.900000
47.303475	6.400000
49.896468	1.200000
52.486600	-18.000000
55.078160	-10.700000
57.666860	-2.400000
60.256987	1.200000
62.842116	-4.900000
65.428671	-12.700000
68.014513	17.900000
70.597501	1.200000
73.181915	-6.600000
75.759201	16.800000
78.340053	3.900000
80.918056	1.700000
83.495349	11.700000
86.074068	13.000000
88.647806	-11.500000
91.222970	-3.000000
93.795291	9.300000
96.366904	4.700000
98.935677	4.200000
101.505877	13.500000
104.073239	5.400000
106.642026	20.100000
109.207977	-5.000000
111.771093	1.600000
114.337765	-8.900000
116.895216	8.100000
119.458352	23.500000
122.016529	9.200000
124.578259	57.000000
127.135034	66.800000
129.693234	92.000000
132.246482	115.200000
134.799031	186.400000
137.355131	256.800000
139.906284	348.600000
142.456738	436.000000
145.006496	473.300000
147.553434	549.000000
150.099676	587.000000
152.647344	608.300000
155.194317	602.300000
157.736353	631.500000
160.277696	618.200000
162.818346	605.800000
165.360422	590.800000
167.899687	578.300000
170.436142	591.700000
172.971907	612.200000
175.509097	592.800000
178.045595	595.200000
180.579288	618.000000
183.110178	597.200000
185.640379	615.500000
188.172005	593.700000
190.700830	571.500000
193.226856	607.900000
195.752197	577.300000
198.278962	595.900000
200.802930	593.400000
203.326214	596.500000
205.848813	577.900000
208.368619	621.500000
210.887742	598.800000
213.406182	581.800000
215.926046	604.000000
218.438909	605.200000
220.955303	598.600000
223.471015	609.200000
225.981838	609.800000
228.494085	592.500000
231.003549	602.000000
233.512335	617.600000
236.020443	599.300000
238.529974	597.300000
241.034625	608.000000
243.538601	606.400000
246.044000	589.000000
248.544524	628.300000
251.048571	608.500000
253.545648	629.300000
256.046247	622.400000
258.544075	613.700000
261.041230	666.500000
263.537712	648.800000
266.029331	649.200000
268.524470	704.200000
271.016843	705.800000
273.508545	725.300000
275.997483	774.900000
278.487846	765.700000
280.975447	823.300000
283.460288	896.600000
285.948643	1027.300000
288.430059	1256.900000
290.914989	1641.100000
293.395074	2394.200000
295.878671	3305.500000
298.357425	4128.600000
300.837603	3930.600000
303.315028	2798.400000
305.791790	1702.800000
308.267889	1221.600000
310.741239	970.000000
313.213927	836.700000
315.685954	811.500000
318.157320	798.700000
320.625942	787.200000
323.093904	765.600000
325.563289	725.300000
328.027850	720.800000
330.495916	690.000000
332.959162	701.600000
335.421750	689.900000
337.883682	683.200000
340.344957	681.100000
342.803498	697.700000
345.263461	689.400000
347.720691	674.800000
350.177267	679.700000
352.633189	704.600000
355.086382	684.100000
357.540996	682.000000
359.990809	682.900000
362.444119	674.700000
364.892629	691.900000
367.340489	669.200000
369.789770	669.400000
372.234258	657.600000
374.680168	654.200000
377.125429	678.200000
379.567970	677.300000
382.009864	639.700000
384.451111	672.500000
386.889642	667.800000
389.329595	660.800000
391.766834	644.900000
394.201361	662.800000
396.639376	648.100000
399.072614	667.900000
401.507274	654.600000
403.937160	665.900000
406.370532	661.700000
408.799134	694.800000
411.227095	689.000000
413.656476	666.600000
416.081092	660.500000
418.507130	657.800000
420.932527	709.000000
423.357284	684.600000
425.777283	677.200000
428.198703	687.300000
430.617426	628.500000
433.037570	672.000000
435.455019	688.000000
437.873888	677.400000
440.290064	679.200000
442.701493	690.000000
445.116398	687.700000
447.528613	691.700000
449.940194	693.800000
452.351141	673.500000
454.759402	685.300000
457.167030	695.900000
459.574027	674.300000
461.980391	694.900000
464.384073	705.200000
466.787125	728.200000
469.189547	708.600000
471.591340	685.900000
473.990454	710.100000
476.390988	681.400000
478.790893	684.300000
481.186075	718.600000
483.584724	699.800000
485.978653	672.900000
488.371956	684.800000
490.764633	675.600000
493.156685	655.100000
495.550156	643.500000
497.938914	650.600000
500.325006	647.400000
502.712518	659.100000
505.099406	642.300000
507.483631	619.900000
509.869275	617.800000
512.252256	632.100000
514.632577	598.700000
517.014317	617.400000
519.393398	596.400000
521.773898	616.600000
524.151740	600.600000
526.526927	612.600000
528.901496	626.500000
531.277484	630.300000
533.650818	632.800000
536.025570	595.900000
538.395637	634.900000
540.765088	627.100000
543.135957	636.900000
545.502146	649.900000
547.869753	666.600000
550.234714	633.900000
552.599062	636.200000
554.962798	648.300000
557.327951	666.800000
559.688431	664.000000
562.050330	644.600000
564.409589	670.500000
566.766209	640.300000
569.126274	645.900000
571.479649	657.200000
573.836468	649.800000
576.190651	657.900000
578.544227	637.300000
580.897194	648.800000
583.247530	622.800000
585.599282	648.500000
587.944358	662.300000
590.294898	622.900000
592.638765	618.000000
594.988092	605.100000
597.332772	610.500000
599.674826	629.800000
602.018298	595.700000
604.359147	631.200000
606.699394	589.200000
609.037020	611.400000
611.378081	598.700000
613.714504	584.400000
616.052345	622.800000
618.387567	579.200000
620.720174	580.800000
623.054197	625.200000
625.385607	594.400000
627.716418	616.500000
630.046631	601.000000
632.376246	607.300000
634.701239	590.200000
637.031673	579.700000
639.357485	608.800000
641.680691	574.800000
644.005312	621.000000
646.327329	594.500000
648.648751	642.300000
650.967570	619.300000
653.287805	619.500000
655.607447	620.400000
657.924488	603.900000
660.240937	630.200000
662.554788	613.800000
664.870055	625.500000
667.182725	599.300000
669.496810	622.600000
671.806295	607.100000
674.117196	618.500000
676.425504	598.500000
678.733224	619.200000
681.042359	591.500000
683.346901	617.800000
685.650856	619.200000
687.954226	595.400000
690.259010	614.200000
692.559208	600.700000
694.860820	626.600000
697.161848	604.800000
699.458293	623.800000
701.756154	625.200000
704.053431	610.500000
706.350125	587.800000
708.642243	631.100000
710.937772	598.000000
713.228728	622.300000
715.521098	614.900000
717.810892	616.600000
720.100107	636.300000
722.388741	631.700000
724.674804	627.100000
726.962280	634.000000
729.247186	640.000000
731.531513	647.900000
733.813272	634.000000
736.096445	627.700000
738.379041	624.000000
740.657082	628.500000
742.936536	653.200000
745.215415	643.700000
747.493718	594.300000
749.767472	651.000000
752.042640	626.700000
754.317234	618.200000
756.589268	620.500000
758.862716	646.600000
761.133606	617.400000
763.401940	633.000000
765.671687	663.700000
767.938880	652.500000
770.205502	655.500000
772.471555	628.900000
774.735055	642.000000
776.999969	657.400000
779.264313	627.800000
781.524128	644.500000
783.785356	665.900000
786.046015	646.800000
788.304129	688.600000
790.559698	669.200000
792.818658	638.400000
795.071119	668.400000
797.328947	649.300000
799.582255	644.500000
801.833024	659.500000
804.085205	640.200000
806.334848	640.800000
808.585902	653.000000
810.832445	641.900000
813.080400	645.800000
815.325821	642.800000
817.572653	658.400000
819.818924	640.000000
822.060691	645.900000
824.305840	668.600000
826.544517	638.200000
828.786577	674.600000
831.024138	677.400000
833.263110	644.400000
835.499556	671.100000
837.737413	680.600000
839.972745	639.600000
842.205554	660.300000
844.439774	674.700000
846.671472	637.800000
848.902615	633.800000
851.133203	668.200000
853.363236	655.800000
855.592716	658.200000
857.817714	651.600000
860.046087	651.800000
862.269981	683.900000
864.495285	665.700000
866.716114	688.000000
868.940315	667.500000
871.160043	649.800000
873.381182	666.700000
875.601770	679.700000
877.819848	678.400000
880.039337	672.900000
882.254359	644.900000
884.468833	672.000000
886.682760	650.100000
888.896139	708.100000
891.108971	685.500000
893.321257	667.400000
895.531040	686.300000
897.740278	710.600000
899.948971	680.800000
902.155165	657.100000
904.362768	679.900000
906.567874	700.100000
908.772436	675.500000
910.974502	705.000000
913.177978	671.200000
915.378960	680.500000
917.579401	705.700000
919.781249	686.600000
921.976707	694.000000
924.175524	681.100000
926.369902	712.300000
928.567638	668.500000
930.760938	702.100000
932.955647	695.300000
935.147870	682.900000
937.339555	702.300000
939.530702	667.000000
941.719366	712.200000
943.907493	736.900000
946.093140	706.000000
948.282139	691.100000
950.466715	724.900000
952.650756	723.200000
954.838147	723.400000
957.017234	734.900000
959.199672	728.600000
961.381576	765.000000
963.561006	718.100000
965.737963	731.800000
967.916327	718.900000
970.096099	730.000000
972.269522	746.100000
974.446291	720.600000
976.618653	744.600000
978.792423	745.700000
980.961789	729.100000
983.134500	729.700000
985.304744	730.700000
987.474460	725.000000
989.643647	740.000000
991.808437	777.900000
993.976568	749.700000
996.140305	755.400000
998.305448	759.100000
1000.468133	748.500000
1002.630291	779.400000
1004.789993	765.500000
1006.949171	745.700000
1009.109755	761.100000
1011.267884	761.300000
1013.425489	755.100000
1015.582571	775.000000
1017.739130	752.200000
1019.891309	775.200000
1022.044894	761.800000
1024.197958	770.300000
1026.348574	766.300000
1028.500595	778.800000
1030.648243	775.800000
1032.799223	757.300000
1034.945832	777.400000
1037.091923	756.600000
1039.237494	776.900000
1041.384471	781.200000
1043.525159	781.900000
1045.669177	779.700000
1047.810754	779.100000
1049.951815	784.500000
1052.094280	772.300000
1054.230466	787.100000
1056.369978	788.000000
1058.505134	798.500000
1060.643615	790.300000
1062.777742	784.200000
1064.911356	811.000000
1067.046375	784.600000
1069.177044	775.300000
1071.309118	792.000000
1073.438763	777.000000
1075.567896	795.100000
1077.696517	817.400000
1079.824627	809.300000
1081.950311	797.500000
1084.075485	776.100000
1086.202063	789.100000
1088.324304	771.500000
1090.447948	794.000000
1092.567259	797.700000
1094.691798	796.200000
1096.810092	808.500000
1098.929791	775.100000
1101.047071	789.700000
1103.163845	792.000000
1105.280112	770.500000
1107.393964	783.500000
1109.509219	794.300000
1111.620152	757.000000
1113.734396	792.200000
1115.844320	767.800000
1117.955648	784.100000
1120.066471	777.100000
1122.172979	780.100000
1124.282795	789.700000
1126.388297	800.600000
1128.495202	819.900000
1130.595892	786.400000
1132.701794	770.500000
1134.803387	776.500000
1136.906383	809.400000
1139.008878	765.700000
1141.105166	777.400000
1143.206662	771.200000
1145.303855	759.500000
1147.400549	772.000000
1149.496745	745.600000
1151.592444	776.700000
1153.687645	779.900000
1155.780449	767.200000
1157.874655	783.200000
1159.962670	790.600000
1162.055883	753.200000
1164.142908	785.000000
1166.233232	798.800000
1168.319269	798.000000
1170.408603	792.100000
1172.491756	782.800000
1174.576311	804.300000
1176.662268	770.400000
1178.743943	777.000000
1180.827020	781.900000
1182.907711	777.500000
1184.987910	791.500000
1187.067618	795.200000
1189.146835	808.900000
1191.223670	810.100000
1193.298124	787.700000
1195.375870	802.500000
1197.449345	780.500000
1199.524221	803.600000
1201.594830	800.900000
1203.666841	779.800000
1205.736475	774.800000
1207.807510	768.300000
1209.878057	812.900000
1211.944343	806.700000
1214.012030	816.900000
1216.077345	795.600000
1218.144060	797.900000
1220.206519	815.800000
1222.272263	826.400000
1224.333754	808.500000
1226.396644	799.700000
1228.457167	816.000000
1230.517206	806.600000
1232.576763	804.600000
1234.633954	831.900000
1236.690664	809.500000
1238.745011	806.800000
1240.802638	806.700000
1242.857903	779.100000
1244.908927	796.600000
1246.961351	803.300000
1249.013295	813.600000
1251.062881	809.100000
1253.111988	778.100000
1255.160617	810.200000
1257.208767	807.400000
1259.256439	811.100000
1261.299880	780.400000
1263.346596	814.300000
1265.390959	786.200000
1267.434846	800.100000
1269.476382	807.100000
1271.515567	807.800000
1273.558026	800.100000
1275.596262	801.000000
1277.635897	812.800000
1279.675057	791.600000
1281.709998	781.200000
1283.746339	774.100000
1285.780334	836.700000
1287.815728	802.700000
1289.846908	822.100000
1291.879487	802.700000
1293.911593	804.000000
1295.941359	821.400000
1297.972523	819.700000
1299.999479	823.300000
1302.027833	824.400000
1304.051983	824.900000
1306.079397	813.500000
1308.102609	809.800000
1310.127219	811.600000
1312.149495	852.600000
1314.173168	833.700000
1316.194508	849.700000
1318.215380	828.700000
1320.235786	815.000000
1322.251997	835.900000
1324.269606	805.400000
1326.284888	799.900000
1328.303427	835.600000
1330.317778	804.800000
1332.329803	811.400000
1334.345085	826.300000
1336.356182	792.100000
1338.368676	789.000000
1340.376987	821.600000
1342.388554	820.500000
1344.394081	816.800000
1346.402864	789.700000
1348.407469	828.900000
1350.415328	814.900000
1352.422725	844.700000
1354.424091	809.400000
1356.426854	839.200000
1358.429156	831.200000
1360.430999	843.000000
1362.432382	837.600000
1364.431452	819.200000
1366.430063	823.700000
1368.428216	820.600000
1370.425911	815.400000
1372.419442	825.000000
1374.414370	822.700000
1376.408841	838.400000
1378.402855	800.200000
1380.394561	831.600000
1382.385813	853.300000
1384.374759	808.800000
1386.365100	817.100000
1388.354986	834.300000
1390.342569	805.400000
1392.329697	819.700000
1394.314525	824.400000
1396.300746	819.100000
1398.284668	822.200000
1400.268137	846.800000
1402.251154	823.400000
1404.231872	797.300000
1406.213986	825.500000
1408.193802	831.700000
1410.173168	809.800000
1412.148394	819.700000
1414.126860	828.500000
1416.103031	834.200000
1418.078754	827.400000
1420.054027	821.100000
1422.027009	832.700000
1423.999543	841.600000
1425.971630	839.200000
1427.943268	833.900000
1429.910778	857.000000
1431.883363	817.700000
1433.848141	850.300000
1435.817991	863.700000
1437.783718	856.400000
1439.750837	812.800000
1441.715673	819.800000
1443.676390	830.300000
1445.642174	855.200000
1447.602003	853.800000
1449.563225	858.600000
1451.525840	843.800000
1453.484340	876.400000
1455.442398	826.500000
1457.400013	853.500000
1459.357187	863.100000
1461.312085	846.600000
1463.268375	877.300000
1465.222391	823.200000
1467.175967	825.700000
1469.127270	841.000000
1471.079965	848.900000
1473.030389	846.900000
1474.980373	850.600000
1476.929919	855.100000
1478.877196	830.000000
1480.822206	822.400000
1482.768607	832.600000
1484.714572	850.000000
1486.660098	872.000000
1488.603360	851.700000
1490.546185	831.700000
1492.486747	856.400000
1494.428700	856.100000
1496.368392	856.900000
1498.307648	848.200000
1500.246469	858.600000
1502.183031	864.800000
1504.120984	865.400000
1506.056679	867.700000
1507.991939	844.400000
1509.924944	875.400000
1511.857516	843.200000
1513.789656	840.400000
1515.721364	859.700000
1517.650818	867.900000
1519.581663	867.900000
1521.512077	849.800000
1523.438417	851.900000
1525.366149	864.400000
1527.291630	856.500000
1529.216682	854.100000
1531.141305	861.800000
1533.065499	846.800000
1534.987446	846.900000
1536.910782	862.100000
1538.831873	845.900000
1540.750719	885.900000
1542.670955	850.800000
1544.588947	865.600000
1546.506513	858.900000
1548.421837	851.400000
1550.338551	886.500000
1552.251210	872.500000
1554.167073	878.200000
1556.080696	863.100000
1557.992082	851.000000
1559.904856	856.400000
1561.813581	844.000000
1563.723696	851.800000
1565.633387	820.100000
1567.542654	873.400000
1569.449688	887.600000
1571.354489	882.700000
1573.260679	860.300000
1575.164637	869.400000
1577.068175	863.700000
1578.971291	875.400000
1580.872179	854.600000
1582.774454	846.300000
1584.674502	845.200000
1586.575937	855.200000
1588.473339	854.100000
1590.370322	857.300000
1592.266887	844.800000
1594.164840	839.900000
1596.056958	858.300000
1597.952269	865.500000
1599.847163	849.000000
1601.739835	862.700000
1603.632091	847.200000
1605.522126	888.100000
1607.411747	856.600000
1609.300951	847.700000
1611.189741	883.300000
1613.076314	843.700000
1614.964273	863.600000
1616.848216	860.300000
1618.733547	851.500000
1620.618463	839.000000
1622.501166	878.900000
1624.385256	836.900000
1626.265335	867.900000
1628.146800	857.500000
1630.026055	847.500000
1631.906696	879.200000
1633.781533	838.500000
1635.661352	858.500000
1637.537165	858.300000
1639.412568	859.400000
1641.289358	873.800000
1643.160350	878.900000
1645.034524	844.800000
1646.904700	866.000000
1648.778056	868.000000
1650.649209	884.800000
1652.518160	845.700000
1654.388497	861.200000
1656.254840	830.000000
1658.122569	861.300000
1659.988100	863.900000
1661.855015	858.700000
1663.717942	854.300000
1665.582254	857.500000
1667.444370	852.600000
1669.306082	841.900000
1671.169178	808.700000
1673.030080	857.000000
1674.888788	819.700000
1676.747093	835.500000
1678.606783	837.600000
1680.460706	829.000000
1682.317801	848.200000
1684.174494	836.700000
1686.027211	835.900000
1687.883098	844.500000
1689.735012	839.200000
1691.586525	841.700000
1693.437637	834.000000
1695.288349	840.900000
1697.138660	846.500000
1698.986787	819.100000
1700.836297	830.800000
1702.680059	824.200000
1704.528770	839.500000
1706.371736	810.900000
1708.217867	840.800000
1710.060037	836.900000
1711.905371	814.700000
1713.744965	803.100000
1715.585943	821.100000
1717.428304	797.300000
1719.266709	810.100000
1721.106497	820.600000
1722.944110	790.400000
1724.781327	819.800000
1726.616371	809.000000
1728.452798	815.000000
1730.287053	842.600000
1732.120913	846.700000
1733.954380	805.000000
1735.783900	820.000000
1737.616579	805.100000
1739.445314	806.800000
1741.277207	815.000000
1743.105157	819.000000
1744.932715	815.900000
1746.759881	808.400000
1748.586656	822.500000
1750.413040	810.300000
1752.235487	826.100000
1754.061088	846.000000
1755.882755	810.700000
1757.705804	793.500000
1759.526692	827.900000
1761.347190	827.200000
1763.169070	803.600000
1764.985250	819.000000
1766.804582	829.100000
1768.619987	823.300000
1770.438542	846.900000
1772.253172	828.800000
1774.067416	817.100000
1775.881272	839.500000
1777.694742	830.500000
1779.506059	822.700000
1781.318757	830.500000
1783.131068	837.200000
1784.939462	801.600000
1786.749237	822.100000
1788.555096	826.200000
1790.364101	800.500000
1792.169193	843.000000
1793.975666	828.800000
1795.781755	826.500000
1797.583934	825.500000
1799.389256	819.600000
1801.190670	807.000000
1802.993464	842.000000
1804.792352	844.600000
1806.592621	814.800000
1808.392508	825.000000
1810.190254	854.200000
1811.987618	811.200000
1813.784603	820.100000
1815.581207	837.100000
1817.375672	835.800000
1819.171516	816.500000
1820.961706	817.700000
1822.756792	814.800000
1824.546225	805.200000
1826.338795	780.300000
1828.129230	820.500000
1829.917531	827.800000
1831.708967	839.400000
1833.494757	807.700000
1835.281927	817.500000
1837.066965	823.600000
1838.855137	812.700000
1840.639423	807.600000
1842.421580	817.200000
1844.205115	839.300000
1845.986522	826.500000
1847.769308	813.300000
1849.548214	844.500000
1851.328498	834.500000
1853.106656	832.200000
1854.886193	827.400000
1856.663605	837.900000
1858.438893	806.700000
1860.215560	826.100000
1861.990103	808.500000
1863.766025	844.600000
1865.536326	853.500000
1867.309755	844.200000
1869.081064	867.100000
1870.852003	838.600000
1872.624318	786.700000
1874.391020	797.600000
1876.160848	811.700000
1877.926812	818.100000
1879.695900	818.400000
1881.461126	817.100000
1883.225983	843.300000
1884.992218	798.000000
1886.754594	809.000000
1888.516603	795.700000
1890.278244	805.100000
1892.039519	802.000000
1893.800426	794.800000
1895.560967	784.900000
1897.319398	801.200000
1899.077464	812.200000
1900.833421	804.100000
1902.590756	796.200000
1904.347724	802.900000
1906.102587	802.400000
1907.855344	822.800000
1909.607738	796.000000
1911.361507	786.600000
1913.113173	809.800000
1914.862737	814.400000
1916.613677	790.900000
1918.364253	801.500000
1920.110990	800.100000
1921.859104	774.700000
1923.605118	806.500000
1925.352508	819.000000
1927.097799	782.700000
1928.840993	817.400000
1930.585563	838.500000
1932.328036	804.200000
1934.070149	790.100000
1935.811902	815.100000
1937.553296	801.500000
1939.292596	800.900000
1941.031536	797.700000
1942.770119	797.400000
1944.506609	789.400000
1946.242742	793.500000
1947.980249	797.600000
1949.713934	826.900000
1951.448994	782.500000
1953.181966	801.500000
1954.914581	782.600000
1956.646839	790.800000
1958.378741	823.200000
1960.108557	797.100000
1961.836289	794.100000
1963.565394	833.200000
1965.294145	800.100000
1967.020812	837.800000
1968.747125	816.000000
1970.474811	841.200000
1972.196961	796.600000
1973.922212	835.700000
1975.643657	788.400000
1977.368201	804.700000
1979.090666	827.700000
1980.809327	833.400000
1982.531087	825.400000
1984.249045	821.300000
1985.968376	807.300000
1987.683908	798.000000
1989.404261	819.700000
1991.120814	831.200000
1992.833571	826.200000
1994.549425	815.200000
1996.263205	819.400000
1997.976636	816.600000
1999.687996	825.800000
2001.400729	842.100000
2003.109670	799.900000
2004.821705	818.200000
2006.528230	826.500000
2008.237848	808.200000
2009.945398	821.900000
2011.652601	811.000000
2013.357738	811.900000
2015.062528	806.400000
2016.768690	791.900000
2018.471070	806.100000
2020.174822	821.200000
2021.876510	815.500000
2023.577854	789.800000
2025.278852	806.300000
2026.977790	801.300000
2028.678098	797.200000
2030.374632	808.100000
2032.072537	795.800000
2033.768383	822.900000
2035.467315	831.500000
2037.160761	792.100000
2038.855579	818.200000
2040.550053	811.400000
2042.240759	827.700000
2043.934549	805.100000
2045.624572	824.200000
2047.315966	809.400000
2049.005307	813.000000
2050.696018	780.800000
2052.382966	826.600000
2054.069575	814.000000
2055.757554	827.900000
2057.441773	805.300000
2059.127362	822.700000
2060.812612	812.600000
2062.495814	806.400000
2064.180385	828.900000
2065.859494	816.500000
2067.543388	797.700000
2069.221822	775.600000
2070.903332	840.800000
2072.581092	798.700000
2074.258514	813.800000
2075.937306	820.400000
2077.614056	835.000000
2079.288764	828.700000
2080.964841	799.000000
2082.638878	830.100000
2084.312579	812.800000
2085.985945	788.200000
2087.657273	801.900000
2089.328266	794.500000
2090.998925	811.500000
2092.669249	828.400000
2094.339240	839.800000
2096.007195	815.400000
2097.674817	831.000000
2099.340404	808.000000
2101.007361	804.500000
2102.672283	787.600000
2104.336874	803.000000
2105.999433	803.400000
2107.663360	826.200000
2109.325257	807.300000
2110.986822	815.700000
2112.648056	797.900000
2114.307262	822.000000
2115.966137	817.800000
2117.624683	813.300000
2119.282899	784.800000
2120.937391	780.600000
2122.594948	802.500000
2124.252176	818.500000
2125.905682	797.800000
2127.560556	789.200000
2129.211712	823.200000
2130.865929	793.800000
2132.516430	816.400000
2134.168297	812.500000
2135.814756	793.700000
2137.465970	767.200000
2139.113470	805.500000
2140.762337	814.100000
2142.409186	807.200000
2144.055708	791.900000
2145.701905	820.800000
2147.344394	782.600000
2148.989941	813.600000
2150.631781	790.400000
2152.276678	807.400000
2153.917870	811.300000
2155.558738	801.100000
2157.199282	799.300000
2158.837814	800.500000
2160.477712	814.000000
2162.113910	778.700000
2163.751475	828.400000
2165.388716	801.200000
2167.023948	791.900000
2168.658859	792.100000
2170.293448	793.800000
2171.927715	761.400000
2173.558289	781.900000
2175.191915	791.700000
2176.821849	782.900000
2178.453148	766.100000
2180.082442	804.100000
2181.711417	761.800000
2183.340073	791.500000
2184.968409	770.200000
2186.594742	775.500000
2188.220757	779.700000
2189.844771	771.200000
2191.470149	790.800000
2193.093528	771.400000
2194.718270	772.100000
2196.339332	777.600000
2197.960077	779.700000
2199.582187	742.600000
2201.202299	771.500000
2202.820414	785.300000
2204.438214	782.400000
2206.055699	774.700000
2207.672868	766.800000
2209.289722	782.700000
2210.906261	775.000000
2212.520806	762.800000
2214.133359	768.900000
2215.747276	781.500000
2217.359202	785.000000
2218.972491	780.900000
2220.583790	782.000000
2222.193099	785.800000
2223.803772	815.500000
2225.412456	801.500000
2227.020828	783.800000
2228.627212	756.400000
2230.234960	758.400000
2231.840721	757.700000
2233.446171	782.600000
2235.049636	775.600000
2236.654464	749.200000
2238.257309	798.700000
2239.858170	760.100000
2241.460393	747.900000
2243.060635	777.000000
2244.662239	776.400000
2246.260191	794.200000
2247.859505	796.900000
2249.456839	805.900000
2251.053864	759.200000
2252.652252	792.100000
2254.246991	790.500000
2255.839753	777.200000
2257.433878	785.100000
2259.029364	795.900000
2260.621206	803.800000
2262.212741	775.300000
2263.805637	780.400000
2265.393224	771.400000
2266.985508	764.400000
2268.572484	789.100000
2270.162489	801.100000
2271.747189	762.600000
2273.336583	786.200000
2274.920674	744.000000
2276.506127	776.400000
2278.089610	763.400000
2279.676120	733.600000
2281.258996	780.400000
2282.841568	769.600000
2284.423837	727.000000
2286.002477	733.300000
2287.584140	742.700000
2289.162175	751.100000
2290.743233	760.500000
2292.320665	758.000000
2293.896132	755.500000
2295.474622	744.300000
2297.049488	744.100000
2298.624053	763.000000
2300.198318	728.100000
2301.772282	733.400000
2303.345946	732.600000
2304.919309	744.200000
2306.489054	737.500000
2308.058500	748.200000
2309.630965	754.200000
2311.198154	745.100000
2312.768362	737.300000
2314.334955	746.500000
2315.902908	765.500000
2317.468905	729.100000
2319.034605	756.300000
2320.600008	741.800000
2322.163456	757.200000
2323.728264	741.200000
2325.289464	767.900000
2326.853678	790.700000
2328.412631	760.500000
2329.974597	763.500000
2331.534613	769.300000
2333.094333	751.400000
2334.652104	739.300000
2336.209580	733.200000
2337.766762	756.300000
2339.321997	731.800000
2340.876937	762.000000
2342.431584	776.300000
2343.985937	767.300000
2345.539996	739.100000
2347.093761	718.800000
2348.645583	762.400000
2350.195461	742.500000
2351.748347	740.700000
2353.295991	737.100000
2354.846642	765.400000
2356.393702	745.400000
2357.942121	755.200000
2359.490247	747.800000
2361.034785	736.000000
2362.580681	758.600000
2364.124639	730.100000
2365.669954	744.900000
2367.211684	722.800000
2368.754771	744.500000
2370.295923	737.800000
2371.836785	742.600000
2373.377358	744.400000
2374.917641	729.500000
2376.457636	702.700000
2377.994053	735.600000
2379.533471	714.800000
2381.069312	734.600000
2382.606509	725.200000
2384.140131	739.500000
2385.676754	704.400000
2387.211445	738.400000
2388.744207	716.000000
2390.276682	721.400000
2391.807230	749.400000
2393.340775	725.500000
2394.869109	718.300000
2396.398799	757.500000
2397.928204	724.200000
2399.457323	746.600000
2400.986158	732.500000
2402.509787	740.700000
2404.038053	724.800000
2405.561115	714.300000
2407.088811	723.200000
2408.609668	732.200000
2410.135158	745.600000
2411.657087	725.900000
2413.180372	721.800000
2414.701736	730.600000
2416.221180	717.300000
2417.741979	719.200000
2419.260859	730.300000
2420.779457	727.100000
2422.296138	710.000000
2423.814173	745.900000
2425.331927	729.500000
2426.846130	708.000000
2428.360052	743.200000
2429.873694	732.200000
2431.388691	743.400000
2432.900139	729.600000
2434.412942	727.900000
2435.923832	725.600000
2437.434442	738.500000
2438.943141	729.500000
2440.454827	731.800000
2441.962968	725.500000
2443.470832	724.200000
2444.978418	715.400000
2446.482463	724.500000
2447.989494	747.500000
2449.494616	727.700000
2450.999461	702.700000
2452.502399	700.200000
2454.005060	724.300000
2455.507445	723.500000
2457.007925	686.700000
2458.509758	682.900000
2460.009687	714.100000
2461.509340	685.600000
2463.008717	700.200000
2464.506192	699.900000
2466.001765	690.100000
2467.500319	692.000000
2468.995343	693.900000
2470.491721	689.600000
2471.984571	697.500000
2473.478775	675.700000
2474.972705	668.500000
2476.463112	688.600000
2477.956495	681.300000
2479.447981	678.500000
2480.937570	711.400000
2482.426887	686.800000
2483.914309	678.500000
2485.404706	682.200000
2486.891584	691.300000
2488.379814	685.300000
2489.864528	707.400000
2491.348971	703.700000
2492.834766	660.500000
2494.318668	693.200000
2495.803922	675.800000
2497.284042	692.700000
2498.767134	676.800000
2500.248336	676.700000
2501.729269	699.900000
2503.208313	676.000000
2504.687088	682.200000
2506.165595	693.900000
2507.643834	662.600000
2509.121804	684.000000
2510.596270	677.700000
2512.073704	656.900000
2513.547635	675.700000
2515.022916	696.200000
2516.497931	677.900000
2517.969444	663.500000
2519.442307	692.800000
2520.913288	678.500000
2522.385619	694.100000
2523.852837	697.500000
2525.323020	686.100000
2526.791323	690.900000
2528.259361	674.000000
2529.727134	709.100000
2531.194642	671.500000
2532.661885	670.400000
2534.125636	675.500000
2535.590737	681.300000
2537.053961	668.000000
2538.518535	685.700000
2539.979619	694.900000
2541.442053	702.700000
2542.904224	713.500000
2544.362909	696.200000
2545.826166	688.800000
2547.284326	720.400000
2548.743835	699.300000
2550.198251	680.500000
2551.657236	690.700000
2553.114350	690.100000
2554.569593	672.300000
2556.024575	696.600000
2557.477687	678.700000
2558.932148	674.500000
2560.384740	679.200000
2561.837072	683.300000
2563.287536	674.300000
2564.740956	682.300000
2566.189294	677.300000
2567.640588	688.500000
2569.090015	675.700000
2570.535970	688.900000
2571.984881	685.300000
2573.430320	683.000000
2574.877108	681.700000
2576.322032	683.800000
2577.766699	666.000000
2579.212713	696.400000
2580.655260	682.800000
2582.099155	704.400000
2583.539585	673.600000
2584.981362	686.300000
2586.421280	687.100000
2587.862545	648.000000
2589.300349	666.900000
2590.741102	660.500000
2592.176792	653.700000
2593.615432	662.500000
2595.052215	671.300000
2596.487141	681.000000
2597.925016	685.100000
2599.357832	655.500000
2600.791996	669.900000
2602.224306	667.100000
2603.657962	666.100000
2605.089765	642.800000
2606.521315	692.300000
2607.952611	649.400000
2609.382055	641.300000
2610.811248	660.200000
2612.238589	650.700000
2613.667277	659.300000
2615.095712	671.300000
2616.520700	639.800000
2617.947035	658.400000
2619.371521	648.100000
2620.797353	662.500000
2622.219741	683.700000
2623.643475	657.800000
2625.065362	686.700000
2626.487000	680.100000
2627.906792	664.800000
2629.327930	667.700000
2630.748818	663.700000
2632.166268	654.800000
2633.586657	660.300000
2635.003609	661.500000
2636.420313	650.800000
2637.836768	672.100000
2639.252975	647.200000
2640.668933	675.600000
2642.083051	674.600000
2643.496922	647.400000
2644.908953	657.700000
2646.322329	673.800000
2647.732275	670.000000
2649.145156	641.600000
2650.554610	654.500000
2651.963817	665.800000
2653.371187	666.800000
2654.781493	648.000000
2656.189962	652.700000
2657.596596	666.300000
2659.002985	621.900000
2660.407540	661.500000
2661.813439	676.700000
2663.217505	632.700000
2664.621326	646.500000
2666.024904	655.300000
2667.426649	668.100000
2668.829738	658.700000
2670.229409	643.000000
2671.630424	659.700000
2673.028023	664.400000
2674.428552	660.100000
2675.825666	637.000000
2677.224123	658.300000
2678.620752	645.900000
2680.017139	652.000000
2681.413285	656.800000
2682.807604	644.500000
2684.203266	653.100000
2685.595518	638.400000
2686.989114	658.800000
2688.380885	666.800000
2689.773998	626.600000
2691.165288	638.500000
2692.554755	640.300000
2693.943982	634.700000
2695.332970	634.100000
2696.723300	651.700000
2698.108645	659.300000
2699.496914	640.700000
2700.883363	658.600000
2702.269573	636.700000
2703.655545	639.200000
2705.038117	632.600000
2706.422032	627.200000
2707.805709	645.000000
2709.189148	651.300000
2710.569191	638.900000
2711.950576	640.400000
2713.330145	635.300000
2714.711056	633.600000
2716.090151	628.900000
2717.467433	643.000000
2718.846056	630.600000
2720.222866	671.900000
2721.599440	636.800000
2722.975778	650.000000
2724.350304	644.400000
2725.726171	654.300000
2727.098651	640.900000
2728.474047	623.100000
2729.844483	617.900000
2731.216260	627.400000
2732.587802	626.900000
2733.957536	634.000000
2735.328611	665.700000
2736.697877	624.800000
2738.066911	623.700000
2739.434137	641.000000
2740.801131	645.400000
2742.167892	630.300000
2743.534420	642.700000
2744.899143	640.200000
2746.263635	621.600000
2747.627894	636.400000
2748.991921	638.500000
2750.355717	614.100000
2751.716139	629.500000
2753.079472	607.300000
2754.437862	619.000000
2755.799162	593.400000
2757.157091	616.600000
2758.517930	638.400000
2759.876968	613.700000
2761.232638	637.600000
2762.591216	603.500000
2763.946428	600.400000
2765.301410	598.400000
2766.654595	595.000000
2768.010687	602.600000
2769.363415	622.400000
2770.715914	605.500000
2772.068185	578.300000
2773.421795	617.200000
2774.772043	601.700000
2776.120498	609.200000
2777.471857	627.800000
2778.819857	622.000000
2780.169196	610.400000
2781.516742	616.800000
2782.864061	610.700000
2784.211154	592.400000
2785.556456	598.400000
2786.901532	601.600000
2788.246382	600.100000
2789.591005	608.600000
2790.932277	604.300000
2792.274887	571.600000
2793.617271	594.400000
2794.959431	587.700000
2796.298241	595.600000
2797.639950	564.700000
2798.978312	621.100000
2800.318011	597.400000
2801.655924	578.800000
2802.992053	609.500000
2804.327958	591.500000
2805.665201	594.200000
2807.000660	593.700000
2808.335896	584.000000
2809.669349	588.700000
2811.004140	600.100000
2812.335589	587.600000
2813.669934	616.300000
2814.999381	579.100000
2816.330165	591.400000
2817.660727	594.600000
2818.989510	585.500000
2820.319629	586.200000
2821.647970	607.400000
2822.976090	590.700000
2824.302432	583.900000
2825.630111	569.900000
2826.954457	596.600000
2828.280138	564.900000
2829.604044	564.700000
2830.927731	596.400000
2832.252753	575.300000
2833.574445	576.800000
2834.895919	579.500000
2836.217174	572.300000
2837.538210	557.400000
2838.857474	563.000000
2840.178073	583.100000
2841.496900	556.100000
2842.815509	561.700000
2844.132347	574.100000
2845.448968	574.300000
2846.765372	558.400000
2848.080007	561.300000
2849.395976	559.300000
2850.708625	576.700000
2852.022610	551.500000
2853.336377	563.000000
2854.649929	577.800000
2855.961713	553.800000
2857.271731	555.100000
2858.583084	567.100000
2859.891122	575.500000
2861.200495	580.900000
2862.509652	570.200000
2863.818594	588.400000
2865.125773	596.700000
2866.431188	597.500000
2867.737938	581.600000
2869.042925	561.300000
2870.347699	577.600000
2871.650711	564.800000
2872.956605	586.300000
2874.257643	581.500000
2875.560016	560.600000
2876.860629	571.300000
2878.162576	572.500000
2879.464310	562.000000
2880.762739	589.700000
2882.062503	563.800000
2883.360508	553.600000
2884.658302	563.800000
2885.954340	562.600000
2887.251711	571.400000
2888.547326	581.000000
2889.842730	563.100000
2891.137924	569.600000
2892.429819	577.200000
2893.724591	555.700000
2895.016066	550.200000
2896.308874	551.300000
2897.601472	561.700000
2898.890776	561.200000
2900.181412	552.700000
2901.470297	549.900000
2902.760515	544.000000
2904.047440	561.700000
2905.335699	554.100000
2906.622207	576.100000
2907.908508	545.900000
2909.194600	555.700000
2910.478944	545.800000
2911.766160	566.100000
2913.048548	557.800000
2914.332269	546.500000
2915.614244	550.900000
2916.896012	543.500000
2918.176034	567.600000
2919.458926	568.300000
2920.740073	534.500000
2922.017938	563.700000
2923.298672	545.300000
2924.576125	549.800000
2925.853372	536.300000
2927.128878	562.300000
2928.407251	552.900000
2929.680809	538.500000
2930.957235	516.300000
2932.231920	537.100000
2933.504865	559.500000
2934.779140	530.800000
2936.051676	539.900000
2937.324008	532.900000
2938.593066	549.400000
2939.864990	542.700000
2941.135176	527.000000
2942.405159	540.000000
2943.674938	536.100000
2944.942980	533.200000
2946.209287	531.800000
2947.475391	529.100000
2948.742825	565.100000
2950.008525	537.000000
2951.274022	554.900000
2952.539317	540.800000
2953.801347	548.900000
2955.064708	524.300000
2956.327866	534.200000
2957.589293	552.700000
2958.852049	518.300000
2960.113074	560.100000
2961.372367	526.300000
2962.631461	519.400000
2963.890354	538.700000
2965.149047	535.900000
2966.407540	541.900000
2967.664304	517.300000
2968.920868	500.000000
2970.175705	510.700000
2971.431871	543.500000
2972.684781	521.300000
2973.939021	511.300000
2975.193062	547.100000
2976.445377	536.000000
2977.697494	522.300000
2978.947886	527.300000
2980.201133	512.200000
2981.449603	516.400000
2982.700927	538.700000
2983.949003	522.100000
2985.196881	523.900000
2986.444562	530.900000
2987.692047	527.200000
2988.937810	508.100000
2990.183376	517.000000
2991.430270	503.900000
2992.673920	504.500000
2993.918898	518.800000
2995.160633	495.900000
2996.405218	501.800000
2997.648085	521.500000
2998.887711	491.700000
3000.130187	529.200000
3001.369424	506.300000
3002.609988	488.300000
3003.848835	535.200000
3005.087488	497.900000
3006.324425	518.700000
3007.562689	513.500000
3008.799239	513.600000
3010.035594	527.500000
3011.271756	528.800000
3012.506205	520.600000
3013.740460	489.500000
3014.974522	513.400000
3016.206872	517.100000
3017.437510	513.600000
3018.670994	497.400000
3019.902766	525.900000
3021.132828	504.500000
3022.362698	510.700000
3023.590858	477.400000
3024.820344	509.000000
3026.048122	495.900000
3027.275708	495.900000
3028.504620	492.900000
3029.728790	498.100000
3030.955803	503.900000
3032.179592	499.700000
3033.404708	513.100000
3034.628117	496.200000
3035.851337	492.600000
3037.072851	493.100000
3038.297206	490.800000
3039.516826	496.500000
3040.737771	524.100000
3041.958528	505.900000
3043.177581	495.800000
3044.397960	493.800000
3045.615122	474.700000
3046.833609	479.300000
3048.050394	482.800000
3049.266992	485.600000
3050.483401	493.200000
3051.696598	497.600000
3052.912632	513.500000
3054.125454	476.400000
3055.341113	493.800000
3056.552049	487.300000
3057.764310	519.300000
3058.976385	479.900000
3060.188273	526.900000
3061.398463	485.600000
3062.608467	501.400000
3063.818286	512.100000
3065.026408	501.500000
3066.234344	505.000000
3067.440586	502.100000
3068.648151	511.800000
3069.854023	492.300000
3071.059709	472.800000
3072.265210	481.500000
3073.469018	493.600000
3074.674150	483.900000
3075.877590	486.200000
3077.079337	474.800000
3078.280901	479.700000
3079.482281	478.800000
3080.683477	470.500000
3081.882983	498.700000
3083.082305	471.500000
3084.282951	497.400000
3085.481907	472.000000
3086.677669	488.100000
3087.876260	485.200000
3089.071657	479.800000
3090.268377	475.900000
3091.461905	457.000000
3092.658261	463.300000
3093.852931	464.500000
3095.044410	498.600000
3096.240220	480.700000
3097.431337	464.400000
3098.623776	450.600000
3099.813028	452.500000
3101.005106	440.600000
3102.195499	456.600000
3103.382707	483.100000
3104.571238	474.500000
3105.761091	488.500000
3106.947759	482.200000
3108.134248	449.700000
3109.320557	476.400000
3110.508188	485.000000
3111.692638	486.000000
3112.875407	468.900000
3114.061000	451.700000
3115.244912	475.100000
3116.427146	486.700000
3117.609201	465.500000
3118.791079	440.000000
3119.972778	469.300000
3121.152799	473.100000
3122.331144	455.700000
3123.512310	443.600000
3124.690300	444.900000
3125.868113	468.900000
3127.045749	462.900000
3128.221710	469.900000
3129.397494	456.900000
3130.574600	462.000000
3131.750031	474.200000
3132.923789	458.200000
3134.095875	463.100000
3135.269281	448.400000
3136.442512	476.100000
3137.614070	450.200000
3138.786950	457.800000
3139.956662	458.200000
3141.127695	461.800000
3142.297057	454.500000
3143.464750	451.700000
3144.635258	461.600000
3145.801107	460.500000
3146.971266	450.100000
3148.136767	466.600000
3149.302095	464.800000
3150.467249	463.100000
3151.632229	467.100000
3152.798530	469.400000
3153.960177	474.300000
3155.123145	443.700000
3156.285939	449.400000
3157.448561	459.200000
3158.609518	450.200000
3159.770302	421.000000
3160.930914	413.300000
3162.089863	436.800000
3163.248639	438.800000
3164.407244	431.700000
3165.565677	439.200000
3166.723938	465.500000
3167.880537	431.200000
3169.035475	453.600000
3170.191732	405.900000
3171.346329	422.900000
3172.500754	425.300000
3173.653520	433.500000
3174.806116	424.200000
3175.958541	416.700000
3177.110797	454.600000
3178.262883	431.700000
3179.411822	440.500000
3180.563568	426.700000
3181.713656	436.700000
3182.862088	463.800000
3184.010351	431.600000
3185.158444	448.500000
3186.306369	417.200000
3187.452639	429.300000
3188.598740	437.100000
3189.743186	447.900000
3190.887465	423.700000
3192.031576	447.200000
3193.177005	426.800000
3194.319294	431.300000
3195.461417	438.100000
3196.603372	462.000000
3197.745161	447.600000
3198.886782	456.900000
3200.025267	429.600000
3201.165070	423.900000
3202.306191	435.000000
3203.444177	425.600000
3204.580514	415.500000
3205.716685	431.800000
3206.854174	450.300000
3207.990013	417.600000
3209.127170	435.600000
3210.259714	428.900000
3211.396540	438.100000
3212.528754	430.400000
3213.662286	432.900000
3214.795652	415.400000
3215.925891	434.300000
3217.058928	413.000000
3218.188839	439.400000
3219.320067	409.700000
3220.448169	413.400000
3221.579068	418.700000
3222.708324	419.200000
3223.835935	407.500000
3224.960425	422.500000
3226.089190	443.800000
3227.214833	417.400000
3228.340313	405.300000
3229.464152	432.500000
3230.590785	418.100000
3231.712821	405.800000
3232.836173	427.000000
3233.959363	409.700000
3235.082391	396.700000
3236.203779	385.000000
3237.325006	408.900000
3238.444594	420.700000
3239.564021	412.200000
3240.681810	426.200000
3241.802392	412.000000
3242.919859	403.100000
3244.037167	399.500000
3245.154313	423.700000
3246.269824	413.400000
3247.386650	394.400000
3248.500365	432.200000
3249.616870	387.900000
3250.731741	426.300000
3251.843503	411.600000
3252.955106	429.700000
3254.068023	406.200000
3255.180782	402.200000
3256.290434	424.600000
3257.401400	391.400000
3258.512208	411.100000
3259.621385	412.600000
3260.728930	415.700000
3261.837790	394.100000
3262.946491	421.100000
3264.052090	425.300000
3265.159003	409.600000
3266.264288	406.800000
3267.370886	415.200000
3268.474384	395.600000
3269.579196	406.600000
3270.683851	403.800000
3271.785407	397.200000
3272.886808	395.800000
3273.989522	435.400000
3275.092079	411.000000
3276.191540	412.700000
3277.293785	407.900000
3278.392934	383.400000
3279.490459	386.900000
3280.587828	400.200000
3281.687980	411.900000
3282.785038	401.000000
3283.881941	404.300000
3284.978689	385.200000
3286.070879	395.900000
3287.167317	407.400000
3288.262134	399.900000
3289.356795	382.600000
3290.449835	396.000000
3291.542721	390.600000
3292.633986	385.100000
3293.726564	393.900000
3294.817521	394.700000
3295.906859	405.500000
3296.996044	391.500000
3298.086542	385.500000
3299.173955	388.100000
3300.261216	374.200000
3301.349789	410.800000
3302.438209	377.300000
3303.522082	395.700000
3304.610197	395.200000
3305.695231	408.400000
3306.778648	379.000000
3307.863378	384.400000
3308.946493	382.600000
3310.030919	392.800000
3311.112267	386.000000
3312.194927	367.600000
3313.275973	383.600000
3314.356868	397.500000
3315.436150	384.600000
3316.515281	401.400000
3317.595723	388.400000
3318.673092	399.800000
3319.751771	411.100000
3320.828840	389.900000
3321.905758	403.300000
3322.981065	387.100000
3324.056223	387.400000
3325.132692	383.600000
3326.206091	394.900000
3327.279341	383.800000
3328.353902	376.500000
3329.426853	388.600000
3330.498197	370.200000
3331.570851	383.900000
3332.640438	364.500000
3333.711336	383.100000
3334.780627	396.900000
3335.851229	367.700000
3336.920224	396.700000
3337.987613	380.400000
3339.053397	383.700000
3340.123407	388.900000
3341.190354	385.200000
3342.254239	366.300000
3343.320892	395.000000
3344.385940	378.000000
3345.449385	380.800000
3346.512684	370.900000
3347.575836	385.200000
3348.638842	392.600000
3349.701702	351.700000
3350.762960	384.500000
3351.821161	360.400000
3352.883583	387.000000
3353.942948	392.900000
3355.002168	351.300000
3356.062698	384.600000
3357.118718	377.800000
3358.177503	351.900000
3359.231780	370.300000
3360.288820	359.700000
3361.344263	372.200000
3362.401014	365.100000
3363.456168	364.700000
3364.509724	363.900000
3365.561683	372.700000
3366.616404	374.000000
3367.668076	367.700000
3368.719605	354.000000
3369.772443	378.600000
3370.822233	377.300000
3371.873331	381.900000
3372.921384	361.900000
3373.972197	373.600000
3375.019964	358.900000
3376.067589	367.400000
3377.115071	362.500000
3378.160961	349.400000
3379.208159	361.700000
3380.252315	345.000000
3381.299229	361.900000
3382.344551	372.400000
3383.386833	367.600000
3384.428973	354.000000
3385.472421	345.700000
3386.515729	362.900000
3387.557446	347.400000
3388.599022	374.900000
3389.640458	373.000000
3390.680304	344.700000
3391.718563	357.400000
3392.758129	347.100000
3393.797554	337.100000
3394.835392	350.600000
3395.871643	353.600000
3396.907755	346.800000
3397.945174	361.300000
3398.979560	352.600000
3400.015253	360.400000
3401.050807	343.400000
3402.083330	355.400000
3403.118606	346.000000
3404.150851	366.200000
3405.182958	364.000000
3406.213481	333.900000
3407.245312	351.000000
3408.277003	335.800000
3409.305668	347.000000
3410.334194	374.700000
3411.364028	342.700000
3412.393723	343.800000
3413.420393	348.200000
3414.448370	359.400000
3415.473322	325.200000
3416.501024	344.900000
3417.525703	354.500000
3418.551688	352.200000
3419.576093	344.600000
3420.600362	338.000000
3421.623052	348.900000
3422.645606	362.900000
3423.669466	348.600000
3424.690306	328.700000
3425.711011	364.900000
3426.733021	351.900000
3427.752013	332.900000
3428.770870	338.000000
3429.791032	338.500000
3430.808178	333.700000
