-118.448435	9.500000
-115.778835	-0.300000
-113.112170	9.100000
-110.446257	-5.000000
-107.783276	21.900000
-105.118866	23.300000
-102.457386	-8.400000
-99.794476	23.300000
-97.136674	13.000000
-94.477441	0.100000
-91.818958	15.200000
-89.163398	-4.500000
-86.506410	28.400000
-83.854519	23.400000
-81.201199	14.700000
-78.550799	0.700000
-75.898969	22.100000
-73.252230	2.800000
-70.604061	4.500000
-67.956636	-0.700000
-65.312124	-0.800000
-62.666184	-1.700000
-60.025325	18.400000
-57.383037	16.500000
-54.743657	-1.800000
-52.102849	6.000000
-49.462781	11.700000
-46.827785	8.300000
-44.191360	13.900000
-41.557839	20.300000
-38.922889	13.400000
-36.293004	-1.000000
-33.659527	27.400000
-31.031112	11.000000
-28.403430	26.000000
-25.774321	15.500000
-23.150268	26.700000
-20.522626	12.200000
-17.900037	37.400000
-15.278180	53.800000
-12.657053	101.100000
-10.036656	248.700000
-7.419147	819.100000
-4.800210	2648.300000
-2.184159	5680.200000
0.431164	10624.200000
3.045760	6559.000000
5.657473	1068.300000
8.270615	138.500000
10.878723	62.000000
13.490413	31.200000
16.097072	29.900000
18.705159	27.400000
21.312522	12.800000
23.914860	32.400000
26.520776	-2.700000
29.121670	29.100000
31.723992	15.800000
34.321297	15.200000
36.922177	5.100000
39.518043	21.200000
42.115336	21.200000
44.711910	29.000000
47.303475	5.800000
49.896468	10.600000
52.486600	16.500000
55.078160	11.200000
57.666860	0.600000
60.256987	15.800000
62.842116	0.600000
65.428671	9.000000
68.014513	10.500000
70.597501	7.800000
73.181915	-1.900000
75.759201	19.900000
78.340053	-0.900000
80.918056	28.600000
83.495349	-2.800000
86.074068	21.600000
88.647806	-1.300000
91.222970	7.800000
93.795291	15.700000
96.366904	27.500000
98.935677	6.900000
101.505877	22.200000
104.073239	2.500000
106.642026	12.100000
109.207977	14.400000
111.771093	17.500000
114.337765	22.900000
116.895216	29.200000
119.458352	5.100000
122.016529	21.900000
124.578259	33.200000
127.135034	50.900000
129.693234	53.800000
132.246482	96.900000
134.799031	126.400000
137.355131	189.400000
139.906284	244.600000
142.456738	297.200000
145.006496	336.600000
147.553434	371.300000
150.099676	373.000000
152.647344	391.500000
155.194317	408.800000
157.736353	428.200000
160.277696	425.300000
162.818346	435.300000
165.360422	415.100000
167.899687	411.500000
170.436142	408.700000
172.971907	412.900000
175.509097	413.500000
178.045595	397.900000
180.579288	415.700000
183.110178	433.900000
185.640379	425.000000
188.172005	398.400000
190.700830	396.000000
193.226856	462.900000
195.752197	428.200000
198.278962	428.300000
200.802930	425.100000
203.326214	447.200000
205.848813	426.700000
208.368619	431.200000
210.887742	434.200000
213.406182	442.300000
215.926046	419.700000
218.438909	468.000000
220.955303	432.200000
223.471015	442.300000
225.981838	449.500000
228.494085	473.500000
231.003549	435.900000
233.512335	457.500000
236.020443	433.700000
238.529974	421.900000
241.034625	450.400000
243.538601	465.600000
246.044000	456.600000
248.544524	463.200000
251.048571	467.300000
253.545648	488.600000
256.046247	498.100000
258.544075	584.500000
261.041230	610.900000
263.537712	783.200000
266.029331	893.700000
268.524470	951.900000
271.016843	804.200000
273.508545	650.100000
275.997483	540.400000
278.487846	539.100000
280.975447	511.200000
283.460288	544.000000
285.948643	516.900000
288.430059	544.900000
290.914989	536.700000
293.395074	524.100000
295.878671	493.600000
298.357425	458.600000
300.837603	433.400000
303.315028	490.300000
305.791790	458.800000
308.267889	442.500000
310.741239	460.600000
313.213927	471.700000
315.685954	476.000000
318.157320	513.800000
320.625942	535.900000
323.093904	530.100000
325.563289	501.300000
328.027850	500.700000
330.495916	490.600000
332.959162	474.600000
335.421750	488.600000
337.883682	495.900000
340.344957	478.700000
342.803498	466.200000
345.263461	478.200000
347.720691	485.300000
350.177267	488.600000
352.633189	476.000000
355.086382	470.800000
357.540996	513.200000
359.990809	477.500000
362.444119	474.800000
364.892629	483.000000
367.340489	453.800000
369.789770	459.000000
372.234258	482.900000
374.680168	474.100000
377.125429	458.200000
379.567970	475.600000
382.009864	463.100000
384.451111	465.800000
386.889642	474.400000
389.329595	487.400000
391.766834	479.200000
394.201361	466.000000
396.639376	468.300000
399.072614	466.600000
401.507274	467.300000
403.937160	445.900000
406.370532	471.500000
408.799134	467.000000
411.227095	487.900000
413.656476	464.000000
416.081092	483.100000
418.507130	468.700000
420.932527	486.800000
423.357284	467.700000
425.777283	511.800000
428.198703	476.000000
430.617426	484.300000
433.037570	506.400000
435.455019	490.900000
437.873888	478.500000
440.290064	503.900000
442.701493	505.800000
445.116398	505.100000
447.528613	469.900000
449.940194	518.600000
452.351141	486.100000
454.759402	504.600000
457.167030	483.300000
459.574027	509.200000
461.980391	491.000000
464.384073	502.700000
466.787125	499.000000
469.189547	496.000000
471.591340	506.900000
473.990454	510.900000
476.390988	496.700000
478.790893	505.400000
481.186075	495.700000
483.584724	493.100000
485.978653	508.100000
488.371956	496.200000
490.764633	496.100000
493.156685	490.800000
495.550156	465.200000
497.938914	513.900000
500.325006	491.100000
502.712518	504.900000
505.099406	483.700000
507.483631	494.000000
509.869275	466.200000
512.252256	486.400000
514.632577	455.100000
517.014317	462.100000
519.393398	455.500000
521.773898	466.900000
524.151740	461.500000
526.526927	482.600000
528.901496	467.200000
531.277484	482.000000
533.650818	479.700000
536.025570	473.500000
538.395637	471.000000
540.765088	478.000000
543.135957	468.900000
545.502146	441.800000
547.869753	436.300000
550.234714	453.100000
552.599062	440.200000
554.962798	460.400000
557.327951	461.900000
559.688431	477.000000
562.050330	436.400000
564.409589	469.800000
566.766209	444.400000
569.126274	484.800000
571.479649	473.200000
573.836468	455.500000
576.190651	449.500000
578.544227	455.200000
580.897194	473.200000
583.247530	453.800000
585.599282	443.400000
587.944358	465.400000
590.294898	448.100000
592.638765	460.600000
594.988092	451.700000
597.332772	455.700000
599.674826	467.800000
602.018298	466.900000
604.359147	456.900000
606.699394	488.400000
609.037020	453.900000
611.378081	465.300000
613.714504	464.900000
616.052345	457.800000
618.387567	467.100000
620.720174	455.500000
623.054197	465.100000
625.385607	469.600000
627.716418	467.800000
630.046631	459.700000
632.376246	464.800000
634.701239	465.200000
637.031673	459.500000
639.357485	491.300000
641.680691	476.400000
644.005312	483.500000
646.327329	469.800000
648.648751	494.300000
650.967570	490.100000
653.287805	473.900000
655.607447	468.500000
657.924488	478.700000
660.240937	467.500000
662.554788	460.100000
664.870055	481.000000
667.182725	470.600000
669.496810	464.500000
671.806295	473.100000
674.117196	453.000000
676.425504	493.600000
678.733224	466.200000
681.042359	498.700000
683.346901	481.500000
685.650856	482.500000
687.954226	483.100000
690.259010	471.400000
692.559208	464.100000
694.860820	508.700000
697.161848	446.000000
699.458293	468.000000
701.756154	469.100000
704.053431	475.800000
706.350125	458.500000
708.642243	462.700000
710.937772	458.100000
713.228728	473.700000
715.521098	460.800000
717.810892	486.000000
720.100107	474.900000
722.388741	469.800000
724.674804	458.700000
726.962280	482.200000
729.247186	456.400000
731.531513	484.600000
733.813272	442.800000
736.096445	507.600000
738.379041	480.100000
740.657082	481.000000
742.936536	481.500000
745.215415	487.300000
747.493718	462.500000
749.767472	485.000000
752.042640	460.100000
754.317234	477.700000
756.589268	458.600000
758.862716	463.100000
761.133606	477.400000
763.401940	490.300000
765.671687	477.400000
767.938880	498.600000
770.205502	477.300000
772.471555	475.700000
774.735055	456.400000
776.999969	483.800000
779.264313	454.300000
781.524128	471.400000
783.785356	490.300000
786.046015	484.700000
788.304129	486.800000
790.559698	490.700000
792.818658	470.400000
795.071119	481.500000
797.328947	491.000000
799.582255	505.600000
801.833024	474.100000
804.085205	472.100000
806.334848	465.900000
808.585902	478.500000
810.832445	465.400000
813.080400	457.000000
815.325821	478.200000
817.572653	475.300000
819.818924	464.100000
822.060691	473.400000
824.305840	456.700000
826.544517	470.800000
828.786577	447.100000
831.024138	469.700000
833.263110	480.800000
835.499556	478.900000
837.737413	471.100000
839.972745	457.700000
842.205554	459.000000
844.439774	469.600000
846.671472	468.200000
848.902615	481.300000
851.133203	471.700000
853.363236	455.800000
855.592716	475.400000
857.817714	452.300000
860.046087	449.800000
862.269981	480.400000
864.495285	479.200000
866.716114	483.400000
868.940315	483.600000
871.160043	496.500000
873.381182	487.300000
875.601770	462.200000
877.819848	469.400000
880.039337	476.900000
882.254359	457.100000
884.468833	481.500000
886.682760	490.700000
888.896139	472.000000
891.108971	447.600000
893.321257	472.200000
895.531040	458.000000
897.740278	470.600000
899.948971	478.400000
902.155165	489.900000
904.362768	492.800000
906.567874	480.100000
908.772436	467.300000
910.974502	469.900000
913.177978	463.000000
915.378960	470.100000
917.579401	481.100000
919.781249	488.600000
921.976707	463.200000
924.175524	476.100000
926.369902	461.600000
928.567638	478.700000
930.760938	476.000000
932.955647	459.200000
935.147870	469.700000
937.339555	467.400000
939.530702	463.200000
941.719366	490.200000
943.907493	491.500000
946.093140	470.300000
948.282139	488.300000
950.466715	497.200000
952.650756	498.900000
954.838147	497.200000
957.017234	503.100000
959.199672	488.600000
961.381576	496.000000
963.561006	514.100000
965.737963	494.900000
967.916327	513.500000
970.096099	491.000000
972.269522	510.300000
974.446291	493.900000
976.618653	528.000000
978.792423	519.800000
980.961789	516.100000
983.134500	499.100000
985.304744	506.100000
987.474460	473.900000
989.643647	512.000000
991.808437	504.000000
993.976568	508.400000
996.140305	508.800000
998.305448	508.400000
1000.468133	516.300000
1002.630291	525.800000
1004.789993	516.600000
1006.949171	534.000000
1009.109755	498.100000
1011.267884	518.900000
1013.425489	518.600000
1015.582571	519.400000
1017.739130	522.600000
1019.891309	496.700000
1022.044894	506.300000
1024.197958	528.300000
1026.348574	514.600000
1028.500595	537.900000
1030.648243	515.000000
1032.799223	508.800000
1034.945832	503.500000
1037.091923	518.600000
1039.237494	496.600000
1041.384471	518.800000
1043.525159	511.100000
1045.669177	525.300000
1047.810754	517.200000
1049.951815	532.700000
1052.094280	490.500000
1054.230466	532.400000
1056.369978	506.800000
1058.505134	502.200000
1060.643615	518.100000
1062.777742	522.800000
1064.911356	517.200000
1067.046375	533.000000
1069.177044	505.800000
1071.309118	521.400000
1073.438763	488.400000
1075.567896	558.500000
1077.696517	522.800000
1079.824627	527.700000
1081.950311	512.300000
1084.075485	503.100000
1086.202063	529.100000
1088.324304	527.600000
1090.447948	517.200000
1092.567259	497.000000
1094.691798	506.300000
1096.810092	516.500000
1098.929791	512.700000
1101.047071	524.500000
1103.163845	494.400000
1105.280112	527.000000
1107.393964	500.200000
1109.509219	524.100000
1111.620152	498.700000
1113.734396	503.400000
1115.844320	521.900000
1117.955648	521.900000
1120.066471	492.700000
1122.172979	509.800000
1124.282795	477.300000
1126.388297	504.800000
1128.495202	493.700000
1130.595892	513.800000
1132.701794	508.300000
1134.803387	511.600000
1136.906383	522.400000
1139.008878	519.800000
1141.105166	498.000000
1143.206662	523.600000
1145.303855	492.400000
1147.400549	509.100000
1149.496745	498.600000
1151.592444	512.400000
1153.687645	502.200000
1155.780449	514.400000
1157.874655	505.800000
1159.962670	500.500000
1162.055883	480.300000
1164.142908	492.300000
1166.233232	475.000000
1168.319269	504.200000
1170.408603	501.700000
1172.491756	512.000000
1174.576311	517.400000
1176.662268	480.800000
1178.743943	489.400000
1180.827020	511.400000
1182.907711	499.900000
1184.987910	493.600000
1187.067618	492.100000
1189.146835	524.300000
1191.223670	510.900000
1193.298124	509.200000
1195.375870	498.500000
1197.449345	495.300000
1199.524221	485.800000
1201.594830	510.300000
1203.666841	519.500000
1205.736475	519.400000
1207.807510	502.000000
1209.878057	504.400000
1211.944343	511.600000
1214.012030	502.600000
1216.077345	482.700000
1218.144060	492.900000
1220.206519	522.300000
1222.272263	503.400000
1224.333754	508.700000
1226.396644	484.900000
1228.457167	494.200000
1230.517206	481.300000
1232.576763	481.200000
1234.633954	500.700000
1236.690664	494.000000
1238.745011	497.400000
1240.802638	489.300000
1242.857903	503.700000
1244.908927	488.300000
1246.961351	490.100000
1249.013295	505.900000
1251.062881	502.700000
1253.111988	512.800000
1255.160617	490.200000
1257.208767	527.100000
1259.256439	489.300000
1261.299880	496.800000
1263.346596	491.600000
1265.390959	486.200000
1267.434846	508.200000
1269.476382	506.300000
1271.515567	478.700000
1273.558026	515.300000
1275.596262	501.500000
1277.635897	483.800000
1279.675057	502.200000
1281.709998	489.000000
1283.746339	514.900000
1285.780334	498.700000
1287.815728	476.200000
1289.846908	485.800000
1291.879487	509.700000
1293.911593	487.500000
1295.941359	494.900000
1297.972523	487.200000
1299.999479	520.600000
1302.027833	491.100000
1304.051983	486.600000
1306.079397	484.500000
1308.102609	486.800000
1310.127219	485.200000
1312.149495	501.900000
1314.173168	492.200000
1316.194508	495.800000
1318.215380	480.200000
1320.235786	493.700000
1322.251997	482.800000
1324.269606	499.400000
1326.284888	489.800000
1328.303427	489.000000
1330.317778	489.000000
1332.329803	514.100000
1334.345085	487.400000
1336.356182	478.700000
1338.368676	466.200000
1340.376987	506.000000
1342.388554	486.800000
1344.394081	473.200000
1346.402864	501.700000
1348.407469	471.500000
1350.415328	468.400000
1352.422725	498.400000
1354.424091	459.100000
1356.426854	476.700000
1358.429156	465.500000
1360.430999	502.100000
1362.432382	484.000000
1364.431452	486.600000
1366.430063	480.100000
1368.428216	482.500000
1370.425911	481.400000
1372.419442	501.100000
1374.414370	482.900000
1376.408841	464.000000
1378.402855	469.300000
1380.394561	492.600000
1382.385813	472.200000
1384.374759	501.500000
1386.365100	479.800000
1388.354986	491.700000
1390.342569	464.000000
1392.329697	464.400000
1394.314525	467.300000
1396.300746	489.600000
1398.284668	487.100000
1400.268137	501.800000
1402.251154	479.000000
1404.231872	476.100000
1406.213986	486.600000
1408.193802	496.600000
1410.173168	478.500000
1412.148394	497.400000
1414.126860	473.700000
1416.103031	491.500000
1418.078754	483.100000
1420.054027	482.700000
1422.027009	489.300000
1423.999543	471.000000
1425.971630	481.900000
1427.943268	478.900000
1429.910778	493.500000
1431.883363	483.000000
1433.848141	472.400000
1435.817991	484.100000
1437.783718	486.900000
1439.750837	496.700000
1441.715673	487.000000
1443.676390	507.400000
1445.642174	481.700000
1447.602003	466.500000
1449.563225	498.100000
1451.525840	498.300000
1453.484340	474.900000
1455.442398	480.700000
1457.400013	495.600000
1459.357187	482.100000
1461.312085	513.200000
1463.268375	468.100000
1465.222391	475.900000
1467.175967	508.000000
1469.127270	477.700000
1471.079965	505.900000
1473.030389	487.400000
1474.980373	504.000000
1476.929919	484.200000
1478.877196	502.100000
1480.822206	469.800000
1482.768607	479.600000
1484.714572	456.600000
1486.660098	464.200000
1488.603360	473.500000
1490.546185	504.600000
1492.486747	482.200000
1494.428700	494.300000
1496.368392	475.900000
1498.307648	458.500000
1500.246469	457.600000
1502.183031	498.500000
1504.120984	476.200000
1506.056679	491.400000
1507.991939	474.500000
1509.924944	504.700000
1511.857516	471.700000
1513.789656	479.500000
1515.721364	455.100000
1517.650818	501.000000
1519.581663	506.600000
1521.512077	468.600000
1523.438417	463.100000
1525.366149	455.500000
1527.291630	468.200000
1529.216682	482.100000
1531.141305	481.400000
1533.065499	478.700000
1534.987446	480.500000
1536.910782	475.100000
1538.831873	455.800000
1540.750719	496.200000
1542.670955	478.000000
1544.588947	471.300000
1546.506513	498.800000
1548.421837	489.700000
1550.338551	454.100000
1552.251210	476.200000
1554.167073	488.400000
1556.080696	498.900000
1557.992082	478.300000
1559.904856	487.600000
1561.813581	468.400000
1563.723696	501.800000
1565.633387	473.400000
1567.542654	485.800000
1569.449688	470.900000
1571.354489	467.300000
1573.260679	468.600000
1575.164637	474.400000
1577.068175	461.500000
1578.971291	486.800000
1580.872179	476.800000
1582.774454	473.400000
1584.674502	489.200000
1586.575937	480.000000
1588.473339	458.500000
1590.370322	484.400000
1592.266887	465.900000
1594.164840	466.900000
1596.056958	466.600000
1597.952269	493.900000
1599.847163	496.800000
1601.739835	490.500000
1603.632091	461.800000
1605.522126	487.800000
1607.411747	476.300000
1609.300951	500.500000
1611.189741	478.000000
1613.076314	497.400000
1614.964273	479.900000
1616.848216	468.600000
1618.733547	468.700000
1620.618463	491.500000
1622.501166	463.100000
1624.385256	496.800000
1626.265335	470.900000
1628.146800	487.100000
1630.026055	495.400000
1631.906696	472.700000
1633.781533	477.000000
1635.661352	472.500000
1637.537165	479.300000
1639.412568	477.300000
1641.289358	457.800000
1643.160350	464.000000
1645.034524	469.200000
1646.904700	468.300000
1648.778056	455.500000
1650.649209	485.800000
1652.518160	497.100000
1654.388497	477.000000
1656.254840	464.500000
1658.122569	463.500000
1659.988100	471.000000
1661.855015	497.500000
1663.717942	485.400000
1665.582254	460.000000
1667.444370	453.700000
1669.306082	472.700000
1671.169178	470.500000
1673.030080	482.700000
1674.888788	462.200000
1676.747093	458.200000
1678.606783	473.900000
1680.460706	452.400000
1682.317801	475.000000
1684.174494	477.800000
1686.027211	455.200000
1687.883098	466.200000
1689.735012	463.800000
1691.586525	488.500000
1693.437637	466.500000
1695.288349	478.400000
1697.138660	457.800000
1698.986787	482.500000
1700.836297	460.700000
1702.680059	484.700000
1704.528770	478.800000
1706.371736	459.100000
1708.217867	465.700000
1710.060037	483.000000
1711.905371	448.800000
1713.744965	470.700000
1715.585943	443.200000
1717.428304	474.600000
1719.266709	424.500000
1721.106497	472.900000
1722.944110	445.900000
1724.781327	462.200000
1726.616371	466.900000
1728.452798	478.900000
1730.287053	470.700000
1732.120913	445.200000
1733.954380	453.800000
1735.783900	451.500000
1737.616579	459.600000
1739.445314	457.300000
1741.277207	422.400000
1743.105157	456.000000
1744.932715	442.000000
1746.759881	444.500000
1748.586656	427.300000
1750.413040	468.300000
1752.235487	448.000000
1754.061088	449.900000
1755.882755	458.500000
1757.705804	471.500000
1759.526692	459.100000
1761.347190	454.000000
1763.169070	442.800000
1764.985250	460.600000
1766.804582	446.100000
1768.619987	446.700000
1770.438542	459.600000
1772.253172	464.800000
1774.067416	452.000000
1775.881272	462.100000
1777.694742	468.500000
1779.506059	459.800000
1781.318757	458.600000
1783.131068	485.700000
1784.939462	461.200000
1786.749237	441.800000
1788.555096	458.400000
1790.364101	458.200000
1792.169193	452.000000
1793.975666	469.100000
1795.781755	446.700000
1797.583934	464.600000
1799.389256	465.300000
1801.190670	473.400000
1802.993464	446.800000
1804.792352	458.000000
1806.592621	446.800000
1808.392508	482.800000
1810.190254	444.300000
1811.987618	461.600000
1813.784603	445.200000
1815.581207	441.200000
1817.375672	452.400000
1819.171516	468.700000
1820.961706	433.000000
1822.756792	464.300000
1824.546225	425.700000
1826.338795	456.700000
1828.129230	460.800000
1829.917531	460.100000
1831.708967	432.700000
1833.494757	440.600000
1835.281927	443.800000
1837.066965	455.100000
1838.855137	445.500000
1840.639423	453.000000
1842.421580	445.500000
1844.205115	442.800000
1845.986522	456.900000
1847.769308	449.700000
1849.548214	459.400000
1851.328498	447.900000
1853.106656	438.300000
1854.886193	452.000000
1856.663605	448.100000
1858.438893	454.600000
1860.215560	454.100000
1861.990103	477.200000
1863.766025	449.100000
1865.536326	453.800000
1867.309755	419.800000
1869.081064	449.100000
1870.852003	453.900000
1872.624318	459.300000
1874.391020	458.800000
1876.160848	465.500000
1877.926812	450.600000
1879.695900	483.700000
1881.461126	445.300000
1883.225983	446.400000
1884.992218	449.400000
1886.754594	447.900000
1888.516603	451.300000
1890.278244	473.700000
1892.039519	439.700000
1893.800426	447.700000
1895.560967	436.300000
1897.319398	450.800000
1899.077464	419.600000
1900.833421	444.600000
1902.590756	449.800000
1904.347724	447.800000
1906.102587	431.300000
1907.855344	435.100000
1909.607738	432.200000
1911.361507	438.400000
1913.113173	423.800000
1914.862737	458.100000
1916.613677	434.400000
1918.364253	459.400000
1920.110990	422.900000
1921.859104	464.700000
1923.605118	435.200000
1925.352508	441.100000
1927.097799	430.200000
1928.840993	463.200000
1930.585563	448.500000
1932.328036	427.500000
1934.070149	449.500000
1935.811902	433.000000
1937.553296	416.200000
1939.292596	441.200000
1941.031536	437.900000
1942.770119	452.300000
1944.506609	451.400000
1946.242742	442.750000
1947.980249	434.100000
1949.713934	453.200000
1951.448994	454.000000
1953.181966	449.800000
1954.914581	459.700000
1956.646839	468.100000
1958.378741	425.300000
1960.108557	447.200000
1961.836289	448.700000
1963.565394	434.900000
1965.294145	453.200000
1967.020812	446.300000
1968.747125	419.900000
1970.474811	439.800000
1972.196961	430.000000
1973.922212	461.600000
1975.643657	435.200000
1977.368201	458.400000
1979.090666	433.400000
1980.809327	450.200000
1982.531087	432.100000
1984.249045	453.200000
1985.968376	467.500000
1987.683908	456.300000
1989.404261	427.300000
1991.120814	460.800000
1992.833571	449.000000
1994.549425	444.400000
1996.263205	448.200000
1997.976636	468.200000
1999.687996	444.500000
2001.400729	440.300000
2003.109670	439.500000
2004.821705	482.100000
2006.528230	435.500000
2008.237848	457.700000
2009.945398	465.000000
2011.652601	451.600000
2013.357738	433.900000
2015.062528	471.500000
2016.768690	436.700000
2018.471070	439.500000
2020.174822	422.800000
2021.876510	420.100000
2023.577854	415.200000
2025.278852	454.100000
2026.977790	438.600000
2028.678098	444.000000
2030.374632	438.600000
2032.072537	469.600000
2033.768383	446.500000
2035.467315	431.100000
2037.160761	416.800000
2038.855579	438.600000
2040.550053	450.600000
2042.240759	444.100000
2043.934549	446.100000
2045.624572	449.500000
2047.315966	450.400000
2049.005307	443.800000
2050.696018	449.500000
2052.382966	451.600000
2054.069575	437.400000
2055.757554	453.500000
2057.441773	443.000000
2059.127362	430.700000
2060.812612	441.200000
2062.495814	456.600000
2064.180385	438.200000
2065.859494	449.900000
2067.543388	425.400000
2069.221822	449.700000
2070.903332	448.800000
2072.581092	442.400000
2074.258514	438.300000
2075.937306	442.400000
2077.614056	449.600000
2079.288764	462.200000
2080.964841	442.600000
2082.638878	451.200000
2084.312579	414.800000
2085.985945	441.400000
2087.657273	444.700000
2089.328266	440.100000
2090.998925	442.100000
2092.669249	442.700000
2094.339240	443.300000
2096.007195	443.400000
2097.674817	447.400000
2099.340404	433.300000
2101.007361	422.600000
2102.672283	442.200000
2104.336874	438.900000
2105.999433	454.000000
2107.663360	447.800000
2109.325257	454.100000
2110.986822	438.900000
2112.648056	443.100000
2114.307262	417.500000
2115.966137	445.200000
2117.624683	437.500000
2119.282899	466.100000
2120.937391	451.500000
2122.594948	429.500000
2124.252176	433.200000
2125.905682	433.200000
2127.560556	424.600000
2129.211712	472.100000
2130.865929	439.100000
2132.516430	435.600000
2134.168297	439.800000
2135.814756	425.700000
2137.465970	435.900000
2139.113470	451.700000
2140.762337	448.300000
2142.409186	448.500000
2144.055708	426.500000
2145.701905	447.700000
2147.344394	432.200000
2148.989941	442.800000
2150.631781	420.900000
2152.276678	438.400000
2153.917870	416.100000
2155.558738	425.900000
2157.199282	412.600000
2158.837814	418.100000
2160.477712	413.600000
2162.113910	422.400000
2163.751475	438.600000
2165.388716	441.000000
2167.023948	423.000000
2168.658859	417.300000
2170.293448	426.200000
2171.927715	405.900000
2173.558289	440.800000
2175.191915	430.400000
2176.821849	432.500000
2178.453148	435.500000
2180.082442	422.700000
2181.711417	432.900000
2183.340073	412.400000
2184.968409	416.800000
2186.594742	423.900000
2188.220757	428.500000
2189.844771	426.600000
2191.470149	418.300000
2193.093528	429.900000
2194.718270	441.700000
2196.339332	415.400000
2197.960077	433.100000
2199.582187	410.400000
2201.202299	422.300000
2202.820414	425.300000
2204.438214	428.600000
2206.055699	422.700000
2207.672868	442.600000
2209.289722	416.400000
2210.906261	425.700000
2212.520806	430.900000
2214.133359	421.600000
2215.747276	420.800000
2217.359202	441.100000
2218.972491	411.800000
2220.583790	398.600000
2222.193099	431.700000
2223.803772	426.000000
2225.412456	424.500000
2227.020828	417.500000
2228.627212	409.100000
2230.234960	427.800000
2231.840721	416.200000
2233.446171	424.100000
2235.049636	419.400000
2236.654464	416.400000
2238.257309	406.900000
2239.858170	420.700000
2241.460393	400.900000
2243.060635	432.600000
2244.662239	406.700000
2246.260191	435.500000
2247.859505	414.200000
2249.456839	428.700000
2251.053864	403.800000
2252.652252	426.100000
2254.246991	416.900000
2255.839753	440.700000
2257.433878	434.100000
2259.029364	409.500000
2260.621206	405.800000
2262.212741	453.100000
2263.805637	404.200000
2265.393224	435.800000
2266.985508	429.000000
2268.572484	419.900000
2270.162489	398.100000
2271.747189	420.100000
2273.336583	411.500000
2274.920674	397.600000
2276.506127	407.200000
2278.089610	399.200000
2279.676120	402.900000
2281.258996	421.700000
2282.841568	404.300000
2284.423837	419.100000
2286.002477	410.000000
2287.584140	413.400000
2289.162175	404.300000
2290.743233	412.400000
2292.320665	417.450000
2293.896132	422.500000
2295.474622	416.800000
2297.049488	429.500000
2298.624053	385.000000
2300.198318	401.900000
2301.772282	403.800000
2303.345946	419.000000
2304.919309	402.200000
2306.489054	427.000000
2308.058500	398.500000
2309.630965	431.800000
2311.198154	396.800000
2312.768362	410.600000
2314.334955	393.000000
2315.902908	438.200000
2317.468905	395.000000
2319.034605	420.900000
2320.600008	405.200000
2322.163456	407.200000
2323.728264	391.500000
2325.289464	411.300000
2326.853678	414.600000
2328.412631	435.900000
2329.974597	414.500000
2331.534613	416.100000
2333.094333	384.800000
2334.652104	395.800000
2336.209580	405.800000
2337.766762	391.500000
2339.321997	397.000000
2340.876937	416.100000
2342.431584	410.000000
2343.985937	384.900000
2345.539996	374.500000
2347.093761	416.800000
2348.645583	398.300000
2350.195461	411.100000
2351.748347	378.100000
2353.295991	398.200000
2354.846642	393.300000
2356.393702	387.900000
2357.942121	411.300000
2359.490247	398.400000
2361.034785	391.900000
2362.580681	414.900000
2364.124639	398.100000
2365.669954	399.800000
2367.211684	382.200000
2368.754771	393.400000
2370.295923	390.000000
2371.836785	397.600000
2373.377358	377.300000
2374.917641	395.000000
2376.457636	406.800000
2377.994053	422.800000
2379.533471	398.300000
2381.069312	401.900000
2382.606509	398.500000
2384.140131	395.100000
2385.676754	388.200000
2387.211445	385.400000
2388.744207	357.100000
2390.276682	407.500000
2391.807230	409.200000
2393.340775	392.800000
2394.869109	398.700000
2396.398799	403.100000
2397.928204	393.200000
2399.457323	411.000000
2400.986158	379.200000
2402.509787	397.800000
2404.038053	403.700000
2405.561115	426.700000
2407.088811	397.000000
2408.609668	390.900000
2410.135158	394.500000
2411.657087	403.600000
2413.180372	380.600000
2414.701736	412.200000
2416.221180	383.400000
2417.741979	406.300000
2419.260859	373.600000
2420.779457	412.800000
2422.296138	405.300000
2423.814173	394.600000
2425.331927	391.700000
2426.846130	380.400000
2428.360052	400.100000
2429.873694	396.800000
2431.388691	373.100000
2432.900139	384.400000
2434.412942	403.200000
2435.923832	415.300000
2437.434442	390.400000
2438.943141	405.400000
2440.454827	381.900000
2441.962968	411.700000
2443.470832	388.300000
2444.978418	393.700000
2446.482463	382.600000
2447.989494	403.600000
2449.494616	363.300000
2450.999461	386.600000
2452.502399	372.300000
2454.005060	381.500000
2455.507445	364.100000
2457.007925	396.300000
2458.509758	390.600000
2460.009687	377.000000
2461.509340	371.400000
2463.008717	393.000000
2464.506192	376.600000
2466.001765	359.800000
2467.500319	369.500000
2468.995343	384.300000
2470.491721	372.500000
2471.984571	388.900000
2473.478775	381.500000
2474.972705	358.800000
2476.463112	388.800000
2477.956495	382.100000
2479.447981	358.800000
2480.937570	393.600000
2482.426887	378.300000
2483.914309	382.700000
2485.404706	358.200000
2486.891584	380.100000
2488.379814	354.400000
2489.864528	378.300000
2491.348971	383.600000
2492.834766	381.200000
2494.318668	353.600000
2495.803922	380.900000
2497.284042	382.300000
2498.767134	364.300000
2500.248336	358.600000
2501.729269	381.600000
2503.208313	357.400000
2504.687088	372.900000
2506.165595	375.500000
2507.643834	384.600000
2509.121804	364.000000
2510.596270	370.900000
2512.073704	380.900000
2513.547635	379.300000
2515.022916	369.100000
2516.497931	385.200000
2517.969444	386.300000
2519.442307	381.300000
2520.913288	356.000000
2522.385619	371.400000
2523.852837	364.000000
2525.323020	371.700000
2526.791323	355.000000
2528.259361	385.000000
2529.727134	360.600000
2531.194642	353.800000
2532.661885	381.800000
2534.125636	377.400000
2535.590737	372.800000
2537.053961	384.000000
2538.518535	373.600000
2539.979619	399.700000
2541.442053	381.400000
2542.904224	372.900000
2544.362909	366.800000
2545.826166	385.600000
2547.284326	374.900000
2548.743835	373.400000
2550.198251	351.900000
2551.657236	369.900000
2553.114350	360.300000
2554.569593	357.800000
2556.024575	378.200000
2557.477687	370.800000
2558.932148	370.900000
2560.384740	378.900000
2561.837072	363.600000
2563.287536	377.100000
2564.740956	379.700000
2566.189294	345.300000
2567.640588	354.300000
2569.090015	380.100000
2570.535970	362.900000
2571.984881	380.400000
2573.430320	382.900000
2574.877108	378.800000
2576.322032	370.200000
2577.766699	374.500000
2579.212713	379.500000
2580.655260	368.500000
2582.099155	374.400000
2583.539585	369.700000
2584.981362	378.600000
2586.421280	371.400000
2587.862545	360.800000
2589.300349	372.800000
2590.741102	357.800000
2592.176792	379.200000
2593.615432	360.900000
2595.052215	395.300000
2596.487141	381.300000
2597.925016	381.000000
2599.357832	356.300000
2600.791996	370.500000
2602.224306	359.300000
2603.657962	376.000000
2605.089765	360.500000
2606.521315	371.000000
2607.952611	364.700000
2609.382055	338.100000
2610.811248	340.000000
2612.238589	352.200000
2613.667277	366.200000
2615.095712	364.700000
2616.520700	347.600000
2617.947035	365.100000
2619.371521	359.000000
2620.797353	380.300000
2622.219741	347.900000
2623.643475	383.900000
2625.065362	364.200000
2626.487000	362.800000
2627.906792	348.800000
2629.327930	357.200000
2630.748818	384.700000
2632.166268	373.300000
2633.586657	366.600000
2635.003609	354.600000
2636.420313	359.700000
2637.836768	363.200000
2639.252975	336.000000
2640.668933	376.300000
2642.083051	345.900000
2643.496922	372.400000
2644.908953	384.200000
2646.322329	371.800000
2647.732275	372.900000
2649.145156	363.200000
2650.554610	362.200000
2651.963817	377.000000
2653.371187	359.500000
2654.781493	363.800000
2656.189962	363.200000
2657.596596	354.200000
2659.002985	357.800000
2660.407540	359.100000
2661.813439	342.400000
2663.217505	367.800000
2664.621326	347.300000
2666.024904	348.200000
2667.426649	371.300000
2668.829738	357.700000
2670.229409	364.900000
2671.630424	376.300000
2673.028023	364.000000
2674.428552	357.100000
2675.825666	364.200000
2677.224123	370.000000
2678.620752	344.800000
2680.017139	383.300000
2681.413285	355.700000
2682.807604	357.400000
2684.203266	351.200000
2685.595518	361.300000
2686.989114	351.900000
2688.380885	359.000000
2689.773998	345.100000
2691.165288	347.400000
2692.554755	346.900000
2693.943982	361.700000
2695.332970	373.900000
2696.723300	358.300000
2698.108645	363.400000
2699.496914	378.500000
2700.883363	354.600000
2702.269573	344.100000
2703.655545	336.400000
2705.038117	341.900000
2706.422032	349.600000
2707.805709	350.500000
2709.189148	352.200000
2710.569191	376.200000
2711.950576	344.400000
2713.330145	357.500000
2714.711056	345.200000
2716.090151	340.300000
2717.467433	323.600000
2718.846056	361.500000
2720.222866	351.300000
2721.599440	358.400000
2722.975778	346.600000
2724.350304	345.300000
2725.726171	349.200000
2727.098651	363.300000
2728.474047	320.200000
2729.844483	344.500000
2731.216260	341.200000
2732.587802	352.600000
2733.957536	334.600000
2735.328611	356.600000
2736.697877	340.800000
2738.066911	349.000000
2739.434137	328.600000
2740.801131	330.300000
2742.167892	327.000000
2743.534420	348.800000
2744.899143	337.300000
2746.263635	357.800000
2747.627894	325.000000
2748.991921	352.800000
2750.355717	331.100000
2751.716139	359.700000
2753.079472	336.000000
2754.437862	347.500000
2755.799162	353.300000
2757.157091	335.000000
2758.517930	356.000000
2759.876968	327.400000
2761.232638	341.600000
2762.591216	345.900000
2763.946428	340.800000
2765.301410	330.900000
2766.654595	339.100000
2768.010687	345.900000
2769.363415	328.100000
2770.715914	344.800000
2772.068185	343.100000
2773.421795	335.700000
2774.772043	342.900000
2776.120498	339.100000
2777.471857	326.300000
2778.819857	333.600000
2780.169196	321.400000
2781.516742	354.600000
2782.864061	354.100000
2784.211154	356.500000
2785.556456	310.900000
2786.901532	328.100000
2788.246382	323.800000
2789.591005	311.600000
2790.932277	321.100000
2792.274887	323.400000
2793.617271	320.700000
2794.959431	331.600000
2796.298241	324.100000
2797.639950	346.600000
2798.978312	334.500000
2800.318011	361.200000
2801.655924	312.700000
2802.992053	341.700000
2804.327958	338.000000
2805.665201	335.100000
2807.000660	325.300000
2808.335896	334.600000
2809.669349	317.600000
2811.004140	350.800000
2812.335589	307.200000
2813.669934	337.000000
2814.999381	315.400000
2816.330165	321.700000
2817.660727	315.600000
2818.989510	334.600000
2820.319629	332.900000
2821.647970	348.900000
2822.976090	311.400000
2824.302432	334.000000
2825.630111	308.400000
2826.954457	333.000000
2828.280138	305.600000
2829.604044	341.800000
2830.927731	322.000000
2832.252753	336.100000
2833.574445	324.100000
2834.895919	319.100000
2836.217174	320.500000
2837.538210	340.500000
2838.857474	330.000000
2840.178073	321.200000
2841.496900	317.100000
2842.815509	325.300000
2844.132347	303.900000
2845.448968	316.800000
2846.765372	324.300000
2848.080007	324.500000
2849.395976	309.900000
2850.708625	326.000000
2852.022610	312.500000
2853.336377	328.400000
2854.649929	291.800000
2855.961713	301.300000
2857.271731	316.700000
2858.583084	332.900000
2859.891122	310.100000
2861.200495	348.600000
2862.509652	320.200000
2863.818594	330.600000
2865.125773	316.100000
2866.431188	343.700000
2867.737938	324.400000
2869.042925	341.200000
2870.347699	318.100000
2871.650711	345.000000
2872.956605	320.000000
2874.257643	318.400000
2875.560016	327.500000
2876.860629	328.500000
2878.162576	329.400000
2879.464310	347.000000
2880.762739	344.100000
2882.062503	320.400000
2883.360508	301.900000
2884.658302	323.900000
2885.954340	301.400000
2887.251711	340.200000
2888.547326	329.100000
2889.842730	318.600000
2891.137924	284.400000
2892.429819	324.800000
2893.724591	313.000000
2895.016066	343.400000
2896.308874	326.900000
2897.601472	311.000000
2898.890776	301.900000
2900.181412	313.500000
2901.470297	319.500000
2902.760515	340.000000
2904.047440	315.400000
2905.335699	300.800000
2906.622207	314.100000
2907.908508	325.200000
2909.194600	325.700000
2910.478944	311.100000
2911.766160	330.000000
2913.048548	301.100000
2914.332269	315.100000
2915.614244	330.800000
2916.896012	313.700000
2918.176034	322.100000
2919.458926	306.100000
2920.740073	343.200000
2922.017938	309.100000
2923.298672	319.100000
2924.576125	317.000000
2925.853372	322.100000
2927.128878	301.800000
2928.407251	318.700000
2929.680809	314.600000
2930.957235	335.800000
2932.231920	304.600000
2933.504865	324.800000
2934.779140	304.600000
2936.051676	314.500000
2937.324008	295.400000
2938.593066	294.100000
2939.864990	307.500000
2941.135176	323.500000
2942.405159	305.300000
2943.674938	310.700000
2944.942980	329.100000
2946.209287	328.500000
2947.475391	300.600000
2948.742825	324.200000
2950.008525	290.300000
2951.274022	319.300000
2952.539317	289.700000
2953.801347	321.900000
2955.064708	283.200000
2956.327866	332.200000
2957.589293	311.200000
2958.852049	300.900000
2960.113074	301.800000
2961.372367	325.100000
2962.631461	304.500000
2963.890354	314.400000
2965.149047	308.700000
2966.407540	285.600000
2967.664304	303.700000
2968.920868	333.800000
2970.175705	292.300000
2971.431871	312.500000
2972.684781	313.300000
2973.939021	324.100000
2975.193062	312.200000
2976.445377	300.400000
2977.697494	313.300000
2978.947886	307.600000
2980.201133	294.400000
2981.449603	306.100000
2982.700927	296.600000
2983.949003	326.600000
2985.196881	313.000000
2986.444562	311.400000
2987.692047	317.300000
2988.937810	307.000000
2990.183376	320.900000
2991.430270	320.900000
2992.673920	293.900000
2993.918898	323.000000
2995.160633	294.400000
2996.405218	307.200000
2997.648085	330.800000
2998.887711	323.500000
3000.130187	308.600000
3001.369424	309.100000
3002.609988	308.200000
3003.848835	330.200000
3005.087488	318.500000
3006.324425	322.500000
3007.562689	296.700000
3008.799239	311.900000
3010.035594	288.300000
3011.271756	327.900000
3012.506205	297.600000
3013.740460	307.500000
3014.974522	297.600000
3016.206872	317.700000
3017.437510	310.000000
3018.670994	303.500000
3019.902766	308.000000
3021.132828	308.800000
3022.362698	310.200000
3023.590858	302.200000
3024.820344	292.300000
3026.048122	302.000000
3027.275708	321.300000
3028.504620	327.600000
3029.728790	302.400000
3030.955803	326.900000
3032.179592	321.900000
3033.404708	306.200000
3034.628117	320.800000
3035.851337	300.500000
3037.072851	288.500000
3038.297206	298.300000
3039.516826	299.000000
3040.737771	296.500000
3041.958528	267.400000
3043.177581	310.800000
3044.397960	305.800000
3045.615122	300.000000
3046.833609	290.400000
3048.050394	308.100000
3049.266992	294.600000
3050.483401	317.900000
3051.696598	297.600000
3052.912632	300.900000
3054.125454	327.400000
3055.341113	299.000000
3056.552049	313.900000
3057.764310	304.300000
3058.976385	284.400000
3060.188273	305.500000
3061.398463	304.600000
3062.608467	304.700000
3063.818286	290.000000
3065.026408	306.200000
3066.234344	299.800000
3067.440586	284.500000
3068.648151	283.000000
3069.854023	293.600000
3071.059709	304.200000
3072.265210	299.300000
3073.469018	297.700000
3074.674150	300.200000
3075.877590	304.700000
3077.079337	321.000000
3078.280901	284.800000
3079.482281	306.800000
3080.683477	275.200000
3081.882983	323.100000
3083.082305	274.700000
3084.282951	317.200000
3085.481907	283.100000
3086.677669	308.900000
3087.876260	288.800000
3089.071657	293.000000
3090.268377	287.400000
3091.461905	276.300000
3092.658261	284.000000
3093.852931	291.400000
3095.044410	291.500000
3096.240220	291.400000
3097.431337	284.600000
3098.623776	314.200000
3099.813028	274.900000
3101.005106	293.300000
3102.195499	293.300000
3103.382707	310.000000
3104.571238	299.900000
3105.761091	292.200000
3106.947759	274.300000
3108.134248	306.800000
3109.320557	295.000000
3110.508188	310.300000
3111.692638	280.900000
3112.875407	304.500000
3114.061000	305.500000
3115.244912	307.800000
3116.427146	286.400000
3117.609201	301.800000
3118.791079	305.900000
3119.972778	315.700000
3121.152799	291.300000
3122.331144	302.700000
3123.512310	275.100000
3124.690300	298.800000
3125.868113	317.000000
3127.045749	303.400000
3128.221710	297.600000
3129.397494	283.800000
3130.574600	273.300000
3131.750031	289.200000
3132.923789	287.800000
3134.095875	310.800000
3135.269281	275.500000
3136.442512	296.900000
3137.614070	286.600000
3138.786950	290.600000
3139.956662	296.900000
3141.127695	286.400000
3142.297057	315.800000
3143.464750	299.600000
3144.635258	295.000000
3145.801107	300.200000
3146.971266	297.000000
3148.136767	297.900000
3149.302095	288.500000
3150.467249	302.800000
3151.632229	272.600000
3152.798530	311.600000
3153.960177	306.300000
3155.123145	311.700000
3156.285939	312.600000
3157.448561	304.100000
3158.609518	303.500000
3159.770302	307.400000
3160.930914	278.600000
3162.089863	307.600000
3163.248639	295.100000
3164.407244	299.800000
3165.565677	279.300000
3166.723938	307.300000
3167.880537	292.900000
3169.035475	292.400000
3170.191732	296.300000
3171.346329	299.100000
3172.500754	291.500000
3173.653520	297.200000
3174.806116	295.400000
3175.958541	305.500000
3177.110797	292.800000
3178.262883	290.800000
3179.411822	285.800000
3180.563568	287.800000
3181.713656	270.300000
3182.862088	312.900000
3184.010351	288.300000
3185.158444	284.900000
3186.306369	300.000000
3187.452639	291.600000
3188.598740	322.400000
3189.743186	319.100000
3190.887465	283.800000
3192.031576	303.500000
3193.177005	298.000000
3194.319294	305.800000
3195.461417	283.100000
3196.603372	301.700000
3197.745161	279.200000
3198.886782	305.200000
3200.025267	294.000000
3201.165070	302.100000
3202.306191	275.700000
3203.444177	307.300000
3204.580514	287.600000
3205.716685	291.700000
3206.854174	264.400000
3207.990013	286.400000
3209.127170	290.000000
3210.259714	330.500000
3211.396540	281.800000
3212.528754	295.800000
3213.662286	281.600000
3214.795652	278.400000
3215.925891	290.100000
3217.058928	293.800000
3218.188839	278.600000
3219.320067	284.700000
3220.448169	279.700000
3221.579068	295.000000
3222.708324	293.700000
3223.835935	284.400000
3224.960425	277.000000
3226.089190	300.200000
3227.214833	282.200000
3228.340313	298.800000
3229.464152	268.600000
3230.590785	300.500000
3231.712821	296.600000
3232.836173	302.100000
3233.959363	279.600000
3235.082391	289.400000
3236.203779	297.900000
3237.325006	312.100000
3238.444594	274.000000
3239.564021	281.300000
3240.681810	285.200000
3241.802392	288.700000
3242.919859	290.500000
3244.037167	293.500000
3245.154313	291.800000
3246.269824	298.900000
3247.386650	275.900000
3248.500365	304.400000
3249.616870	282.300000
3250.731741	304.800000
3251.843503	291.100000
3252.955106	299.300000
3254.068023	291.100000
3255.180782	299.000000
3256.290434	292.300000
3257.401400	286.800000
3258.512208	289.600000
3259.621385	295.700000
3260.728930	279.900000
3261.837790	300.200000
3262.946491	279.700000
3264.052090	291.100000
3265.159003	294.600000
3266.264288	303.800000
3267.370886	284.500000
3268.474384	317.200000
3269.579196	313.000000
3270.683851	315.300000
3271.785407	302.100000
3272.886808	297.900000
3273.989522	278.900000
3275.092079	305.800000
3276.191540	310.600000
3277.293785	296.700000
3278.392934	270.800000
3279.490459	319.400000
3280.587828	285.900000
3281.687980	296.600000
3282.785038	285.100000
3283.881941	283.900000
3284.978689	304.000000
3286.070879	290.300000
3287.167317	275.500000
3288.262134	285.300000
3289.356795	299.700000
3290.449835	295.600000
3291.542721	282.500000
3292.633986	294.300000
3293.726564	252.900000
3294.817521	289.300000
3295.906859	276.200000
3296.996044	274.000000
3298.086542	267.500000
3299.173955	300.400000
3300.261216	279.000000
3301.349789	288.500000
3302.438209	275.100000
3303.522082	295.700000
3304.610197	280.700000
3305.695231	289.100000
3306.778648	300.200000
3307.863378	308.500000
3308.946493	275.300000
3310.030919	295.900000
3311.112267	297.500000
3312.194927	275.400000
3313.275973	297.500000
3314.356868	287.800000
3315.436150	296.700000
3316.515281	301.900000
3317.595723	276.000000
3318.673092	289.700000
3319.751771	294.200000
3320.828840	291.800000
3321.905758	272.500000
3322.981065	289.900000
3324.056223	315.700000
3325.132692	297.700000
3326.206091	274.800000
3327.279341	309.800000
3328.353902	293.300000
3329.426853	304.700000
3330.498197	279.400000
3331.570851	303.100000
3332.640438	312.900000
3333.711336	297.800000
3334.780627	293.700000
3335.851229	301.800000
3336.920224	312.900000
3337.987613	290.000000
3339.053397	297.400000
3340.123407	308.300000
3341.190354	298.700000
3342.254239	301.100000
3343.320892	275.600000
3344.385940	291.300000
3345.449385	288.700000
3346.512684	325.600000
3347.575836	289.600000
3348.638842	292.100000
3349.701702	292.800000
3350.762960	290.400000
3351.821161	312.100000
3352.883583	293.600000
3353.942948	298.100000
3355.002168	298.900000
3356.062698	289.300000
3357.118718	295.900000
3358.177503	291.700000
3359.231780	307.000000
3360.288820	294.800000
3361.344263	290.000000
3362.401014	299.700000
3363.456168	283.500000
3364.509724	297.200000
3365.561683	300.800000
3366.616404	296.600000
3367.668076	281.100000
3368.719605	287.700000
3369.772443	303.500000
3370.822233	280.800000
3371.873331	293.700000
3372.921384	297.100000
3373.972197	317.700000
3375.019964	281.100000
3376.067589	312.700000
3377.115071	291.600000
3378.160961	313.500000
3379.208159	280.800000
3380.252315	298.100000
3381.299229	280.500000
3382.344551	315.200000
3383.386833	281.600000
3384.428973	296.600000
3385.472421	300.800000
3386.515729	306.200000
3387.557446	290.100000
3388.599022	303.200000
3389.640458	285.800000
3390.680304	296.800000
3391.718563	300.200000
3392.758129	313.800000
3393.797554	299.400000
3394.835392	288.100000
3395.871643	304.100000
3396.907755	286.000000
3397.945174	298.900000
3398.979560	281.900000
3400.015253	294.200000
3401.050807	291.500000
3402.083330	280.800000
3403.118606	288.600000
3404.150851	294.100000
3405.182958	315.900000
3406.213481	300.200000
3407.245312	296.000000
3408.277003	278.700000
3409.305668	298.100000
3410.334194	303.000000
3411.364028	277.500000
3412.393723	272.300000
3413.420393	292.600000
3414.448370	303.500000
3415.473322	273.300000
3416.501024	302.300000
3417.525703	290.600000
3418.551688	272.600000
3419.576093	333.700000
3420.600362	288.100000
3421.623052	289.100000
3422.645606	288.300000
3423.669466	333.700000
3424.690306	293.200000
3425.711011	304.100000
3426.733021	304.100000
3427.752013	315.600000
3428.770870	294.900000
3429.791032	317.200000
3430.808178	312.700000
