-118.385087	8.818956
-115.715486	12.331868
-113.048821	13.989261
-110.382909	14.187812
-107.719928	13.324201
-105.055517	11.795105
-102.394037	9.997203
-99.731128	10.047552
-97.073326	11.600000
-94.414093	9.611888
-91.755609	5.423776
-89.100050	8.008392
-86.443062	7.355944
-83.791171	8.606993
-81.137851	9.753147
-78.487451	8.302797
-75.835621	7.469930
-73.188882	9.396503
-70.540713	9.151748
-67.893288	11.486014
-65.248776	11.478322
-62.602835	11.298601
-59.961977	6.668531
-57.319688	9.180420
-54.680309	6.706294
-52.039501	3.453147
-49.399432	0.976923
-46.764437	1.111888
-44.128012	0.883916
-41.494491	3.457343
-38.859540	4.813287
-36.229656	6.478322
-33.596178	6.174825
-30.967763	10.030070
-28.340082	9.644755
-25.710973	7.018881
-23.086920	-23.623077
-20.459278	-121.792308
-17.836689	-329.281119
-15.214831	-354.734965
-12.593704	453.839161
-9.973308	1616.282517
-7.355799	2563.059441
-4.736862	3215.160140
-2.120811	3561.799301
0.494512	3610.343357
3.109108	3356.371329
5.720822	2807.376923
8.333963	1979.237063
10.942071	946.684615
13.553761	-65.844755
16.160420	-563.430769
18.768507	-285.188112
21.375870	-18.430070
23.978208	15.580420
26.584124	16.811888
29.185019	14.860140
31.787341	17.400000
34.384645	18.546853
36.985525	19.211189
39.581391	16.978322
42.178684	14.679021
44.775258	12.796503
47.366823	15.176923
49.959816	15.018182
52.549948	16.506294
55.141508	14.104196
57.730208	15.378322
60.320336	15.360839
62.905464	15.056643
65.492020	14.195804
68.077861	15.062238
70.660849	13.995105
73.245264	12.046154
75.822549	12.439161
78.403401	15.240559
80.981404	15.913287
83.558697	15.644056
86.137416	11.613287
88.711154	12.339161
91.286318	9.886014
93.858639	10.032867
96.430253	12.669231
98.999026	15.969231
101.569226	17.020280
104.136587	21.230070
106.705375	23.693007
109.271325	28.802797
111.834441	31.272727
114.401114	33.448951
116.958564	35.162238
119.521700	43.130769
122.079877	52.816084
124.641607	73.201399
127.198382	108.367832
129.756582	169.168531
132.309830	253.055245
134.862379	364.605594
137.418480	489.588811
139.969632	631.044755
142.520086	770.428671
145.069844	904.605594
147.616782	1015.346853
150.163024	1099.200699
152.710693	1151.548252
155.257665	1178.229371
157.799701	1184.307692
160.341044	1180.567133
162.881695	1164.072028
165.423770	1149.773427
167.963035	1131.902797
170.499490	1119.426573
173.035255	1109.647552
175.572445	1108.000000
178.108943	1106.697203
180.642636	1111.181119
183.173526	1111.066434
185.703727	1116.920979
188.235353	1115.610490
190.764179	1113.985315
193.290205	1113.845455
195.815545	1114.558042
198.342310	1107.301399
200.866279	1104.220280
203.389562	1099.194406
205.912161	1097.572727
208.431967	1099.786014
210.951090	1104.316783
213.469530	1104.199301
215.989394	1115.002797
218.502257	1115.901399
221.018651	1117.140559
223.534364	1123.995804
226.045186	1126.837762
228.557433	1125.029371
231.066897	1132.202797
233.575683	1130.667832
236.083791	1136.253147
238.593323	1142.755944
241.097974	1154.224476
243.601949	1164.539860
246.107348	1178.490210
248.607872	1184.653147
251.111919	1193.774825
253.608996	1201.801399
256.109595	1215.649650
258.607423	1226.093706
261.104578	1245.967133
263.601060	1256.547552
266.092680	1285.148252
268.587818	1312.837762
271.080191	1352.781119
273.571893	1393.268531
276.060832	1465.288811
278.551194	1593.383217
281.038795	1820.655944
283.523636	2159.748951
286.011991	2678.702797
288.493408	3345.046853
290.978338	4041.821678
293.458422	4573.979720
295.942019	4858.603497
298.420774	4856.109091
300.900951	4581.028671
303.378377	4067.879021
305.855139	3411.041259
308.331237	2699.134965
310.804587	2050.735664
313.277276	1549.623776
315.749303	1296.872727
318.220668	1245.676923
320.689290	1276.506993
323.157252	1290.790909
325.626637	1288.512587
328.091199	1281.190210
330.559264	1270.394406
333.022510	1253.831469
335.485099	1246.123776
337.947030	1241.029371
340.408305	1242.801399
342.866846	1235.081818
345.326809	1235.476224
347.784040	1228.648951
350.240616	1219.781119
352.696537	1209.911189
355.149730	1198.484615
357.604345	1188.955245
360.054158	1177.148252
362.507467	1160.829371
364.955977	1149.702098
367.403837	1140.941958
369.853118	1131.181818
372.297606	1118.702098
374.743516	1113.710490
377.188777	1104.908392
379.631319	1104.995804
382.073213	1101.576923
384.514459	1101.233566
386.952990	1103.558042
389.392943	1104.665734
391.830182	1101.055944
394.264709	1097.776224
396.702724	1099.661538
399.135962	1102.798601
401.570622	1103.460140
404.000509	1105.347552
406.433881	1105.311888
408.862482	1114.447552
411.290443	1118.792308
413.719824	1125.237762
416.144441	1125.916783
418.570478	1123.954545
420.995876	1118.361538
423.420633	1118.722378
425.840631	1119.120280
428.262051	1118.581818
430.680774	1117.940559
433.100918	1118.511189
435.518367	1118.726573
437.937236	1120.139860
440.353412	1124.025175
442.764841	1130.453147
445.179746	1128.591608
447.591961	1128.992308
450.003542	1128.974825
452.414489	1133.904196
454.822750	1133.548252
457.230379	1136.797203
459.637375	1138.394406
462.043739	1140.118182
464.447422	1137.787413
466.850474	1136.522378
469.252896	1138.768531
471.654688	1142.347552
474.053802	1139.382517
476.454336	1136.900000
478.854241	1134.719580
481.249423	1140.184615
483.648072	1140.574825
486.042001	1143.088112
488.435304	1137.511189
490.827981	1132.258741
493.220033	1121.753147
495.613504	1109.723077
498.002262	1097.448951
500.388354	1084.486713
502.775866	1068.524476
505.162754	1053.727273
507.546979	1042.161538
509.932623	1038.220280
512.315604	1032.905594
514.695925	1029.400000
517.077665	1021.218182
519.456746	1018.068531
521.837246	1016.172028
524.215088	1016.253147
526.590275	1017.461538
528.964844	1020.132168
531.340832	1022.672727
533.714166	1023.809790
536.088919	1029.399301
538.458985	1035.325874
540.828436	1036.536364
543.199306	1036.713986
545.565494	1029.435664
547.933101	1027.643357
550.298062	1020.925874
552.662410	1017.862937
555.026146	1013.390210
557.391299	1014.245455
559.751780	1013.136364
562.113678	1014.453147
564.472937	1016.122378
566.829557	1012.853147
569.189623	1011.674825
571.542997	1009.110490
573.899816	1000.194406
576.254000	999.786713
578.607575	992.892308
580.960542	989.384615
583.310878	987.241958
585.662630	983.403497
588.007706	976.860140
590.358246	970.456643
592.702113	958.267832
595.051441	948.353147
597.396120	939.900000
599.738175	931.469930
602.081647	925.979720
604.422496	924.704895
606.762742	920.942657
609.100368	920.430769
611.441429	920.624476
613.777853	917.860839
616.115693	915.825175
618.450915	915.608392
620.783522	910.978322
623.117546	899.559441
625.448955	892.334266
627.779766	884.859441
630.109979	876.450350
632.439595	867.750350
634.764587	860.880420
637.095021	857.093706
639.420833	851.100699
641.744039	848.580420
644.068661	847.780420
646.390677	848.945455
648.712099	849.794406
651.030918	849.928671
653.351153	856.016783
655.670795	855.223776
657.987836	852.544056
660.304286	855.067133
662.618137	856.564336
664.933403	859.213986
667.246073	862.465734
669.560158	866.861538
671.869644	870.503497
674.180544	876.978322
676.488852	887.390210
678.796572	899.968531
681.105707	907.041958
683.410249	911.044755
685.714205	912.309091
688.017574	916.334965
690.322358	912.348951
692.622556	913.517483
694.924169	910.906294
697.225196	907.740559
699.521642	904.921678
701.819502	903.062238
704.116780	905.292308
706.413473	910.209091
708.705591	910.572028
711.001120	914.620280
713.292076	917.684615
715.584446	922.210490
717.874240	926.457343
720.163455	935.345455
722.452089	936.425175
724.738152	938.062937
727.025628	941.009790
729.310534	945.076923
731.594861	950.223077
733.876621	951.284615
736.159794	948.880420
738.442390	949.545455
740.720430	943.932168
742.999884	941.176923
745.278763	935.839860
747.557066	936.031469
749.830820	925.602797
752.105988	925.692308
754.380582	925.740559
756.652617	933.727273
758.926065	932.795105
761.196955	930.481119
763.465288	933.034965
765.735036	931.716084
768.002228	928.975524
770.268850	931.518881
772.534903	931.844056
774.798404	938.726573
777.063317	935.254545
779.327662	945.789510
781.587476	945.754545
783.848704	952.316084
786.109364	947.104196
788.367477	947.815385
790.623046	948.876923
792.882006	947.439860
795.134467	946.630070
797.392295	948.491608
799.645604	950.824476
801.896372	951.927273
804.148553	950.110490
806.398196	952.509790
808.649250	954.079021
810.895793	958.630769
813.143749	956.090909
815.389169	952.893706
817.636002	943.102797
819.882272	934.041259
822.124039	918.865035
824.369188	911.242657
826.607865	903.941259
828.849925	892.894406
831.087486	888.938462
833.326458	886.769930
835.562904	894.934266
837.800762	899.780420
840.036094	897.567832
842.268902	907.007692
844.503122	907.581119
846.734820	912.878322
848.965963	914.184615
851.196551	920.682517
853.426585	926.939161
855.656064	928.767133
857.881063	934.007692
860.109435	935.291608
862.333329	937.688811
864.558633	926.997203
866.779462	917.748951
869.003663	919.300699
871.223391	913.330769
873.444530	916.844056
875.665118	921.561538
877.883197	930.372727
880.102685	939.316783
882.317707	946.967832
884.532181	947.776923
886.746108	948.258042
888.959487	945.532168
891.172320	940.074126
893.384605	936.604895
895.594389	935.592308
897.803627	934.346154
900.012319	940.102098
902.218513	940.672028
904.426116	945.559441
906.631222	944.451049
908.835784	944.101399
911.037851	933.962238
913.241327	932.886713
915.442309	935.184615
917.642749	947.082517
919.844598	954.873427
922.040056	968.948951
924.238872	980.862238
926.433251	994.983916
928.630987	1000.206993
930.824287	1017.163636
933.018995	1013.260140
935.211218	1017.824476
937.402903	1009.189510
939.594050	1004.370629
941.782714	1005.875524
943.970841	1007.262238
946.156488	1008.086014
948.345487	1014.806993
950.530063	1019.556643
952.714104	1036.187413
954.901495	1035.249650
957.080583	1042.013287
959.263020	1041.425175
961.444924	1050.833566
963.624354	1042.174126
965.801311	1044.648252
967.979676	1047.147552
970.159447	1037.625175
972.332870	1035.347552
974.509639	1036.687413
976.682002	1041.918182
978.855771	1055.895105
981.025138	1048.259441
983.197848	1066.135664
985.368092	1080.105594
987.537808	1086.706993
989.706995	1082.258042
991.871785	1098.639860
994.039917	1094.041259
996.203653	1080.176923
998.368797	1080.769930
1000.531481	1085.367832
1002.693640	1085.211888
1004.853341	1082.758042
1007.012519	1092.724476
1009.173103	1110.525874
1011.331232	1125.497902
1013.488837	1122.025175
1015.645919	1123.449650
1017.802478	1148.083916
1019.954657	1153.033566
1022.108243	1164.792308
1024.261306	1170.844056
1026.411922	1183.960839
1028.563943	1189.608392
1030.711591	1188.991608
1032.862571	1200.044056
1035.009181	1208.999301
1037.155271	1214.382517
1039.300843	1203.230070
1041.447819	1190.057343
1043.588508	1185.939161
1045.732525	1163.923077
1047.874103	1140.166434
1050.015163	1129.667133
1052.157628	1138.415385
1054.293814	1122.559441
1056.433326	1098.509091
1058.568482	1108.806993
1060.706963	1133.326573
1062.841091	1151.802098
1064.974705	1175.757343
1067.109723	1179.218182
1069.240392	1173.765734
1071.372467	1157.527972
1073.502111	1152.802098
1075.631244	1159.790909
1077.759866	1135.271329
1079.887976	1096.740559
1082.013660	1078.667133
1084.138834	1070.554545
1086.265411	1064.848252
1088.387652	1054.600699
1090.511297	1060.676224
1092.630607	1050.465035
1094.755146	1037.209091
1096.873441	1039.493007
1098.993139	1046.388112
1101.110419	1053.606993
1103.227193	1050.189510
1105.343460	1062.848951
1107.457312	1076.544056
1109.572567	1064.758741
1111.683500	1056.953846
1113.797744	1051.343357
1115.907669	1054.446853
1118.018996	1053.138462
1120.129820	1057.643357
1122.236327	1063.447552
1124.346143	1065.265734
1126.451645	1068.903497
1128.558551	1077.106294
1130.659240	1082.946154
1132.765142	1089.188112
1134.866735	1073.267832
1136.969731	1059.242657
1139.072226	1060.441958
1141.168515	1052.195105
1143.270010	1044.120280
1145.367203	1042.150350
1147.463897	1033.582517
1149.560094	1033.279021
1151.655792	1039.059441
1153.750993	1058.972727
1155.843797	1076.462937
1157.938003	1104.157343
1160.026018	1113.964336
1162.119231	1122.083217
1164.206256	1129.657343
1166.296581	1128.170629
1168.382617	1122.554545
1170.471951	1121.111189
1172.555104	1108.447552
1174.639660	1109.853846
1176.725616	1104.992308
1178.807291	1110.986014
1180.890368	1115.281818
1182.971059	1131.374126
1185.051259	1144.267832
1187.130967	1147.157343
1189.210183	1151.393706
1191.287018	1157.055944
1193.361472	1155.019580
1195.439218	1152.970629
1197.512693	1139.454545
1199.587570	1133.611888
1201.658179	1111.536364
1203.730189	1106.220280
1205.799823	1092.998601
1207.870858	1093.724476
1209.941405	1098.906993
1212.007691	1093.510490
1214.075378	1101.323077
1216.140693	1108.558042
1218.207408	1104.079720
1220.269867	1105.404895
1222.335612	1107.345455
1224.397102	1110.562937
1226.459992	1105.486713
1228.520515	1108.411888
1230.580555	1104.898601
1232.640111	1110.259441
1234.697303	1119.269930
1236.754012	1120.818182
1238.808359	1131.369930
1240.865986	1142.721678
1242.921251	1147.316084
1244.972275	1164.057343
1247.024699	1182.122378
1249.076644	1194.643357
1251.126230	1202.340559
1253.175337	1209.878322
1255.223965	1220.086713
1257.272115	1230.825874
1259.319787	1242.349650
1261.363228	1246.748252
1263.409944	1248.481119
1265.454308	1255.686713
1267.498194	1262.160839
1269.539730	1274.409790
1271.578916	1288.256643
1273.621374	1299.616783
1275.659611	1298.232168
1277.699245	1302.461538
1279.738405	1304.087413
1281.773347	1305.781818
1283.809687	1307.974825
1285.843682	1295.851049
1287.879076	1281.791608
1289.910256	1285.732867
1291.942835	1286.809091
1293.974941	1292.263636
1296.004707	1300.658042
1298.035871	1311.335664
1300.062827	1310.709091
1302.091181	1310.378322
1304.115331	1308.132867
1306.142746	1308.523776
1308.165958	1302.546154
1310.190568	1295.919580
1312.212843	1292.868531
1314.236516	1296.325175
1316.257856	1283.479021
1318.278729	1280.137762
1320.299134	1281.854545
1322.315345	1279.869930
1324.332955	1265.757343
1326.348236	1253.469231
1328.366776	1241.025175
1330.381126	1231.217483
1332.393151	1217.253147
1334.408434	1208.504196
1336.419531	1190.822378
1338.432024	1176.099301
1340.440335	1156.343357
1342.451902	1151.293706
1344.457430	1145.693007
1346.466212	1135.597902
1348.470818	1125.418182
1350.478677	1130.029371
1352.486073	1137.876923
1354.487439	1149.896503
1356.490202	1158.628671
1358.492505	1166.000699
1360.494347	1168.911888
1362.495731	1183.758042
1364.494800	1185.841259
1366.493411	1197.381818
1368.491564	1205.074126
1370.489259	1213.040559
1372.482790	1210.472727
1374.477718	1222.509790
1376.472189	1228.288811
1378.466203	1225.408392
1380.457910	1216.904196
1382.449161	1207.490210
1384.438107	1203.076923
1386.428448	1201.094406
1388.418334	1181.532168
1390.405917	1174.539161
1392.393046	1170.952448
1394.377873	1172.769231
1396.364095	1172.007692
1398.348016	1186.315385
1400.331485	1190.283217
1402.314502	1197.869930
1404.295221	1203.976224
1406.277334	1208.542657
1408.257150	1214.762238
1410.236516	1221.034266
1412.211743	1219.855944
1414.190208	1220.328671
1416.166380	1226.774825
1418.142102	1240.247552
1420.117375	1252.083217
1422.090357	1268.879021
1424.062892	1273.127273
1426.034978	1278.913986
1428.006616	1278.169231
1429.974127	1270.933566
1431.946711	1266.464336
1433.911489	1255.583217
1435.881340	1245.147552
1437.847066	1232.341259
1439.814186	1232.790210
1441.779022	1239.932867
1443.739738	1244.955944
1445.705522	1253.801399
1447.665351	1263.383916
1449.626573	1274.037762
1451.589188	1287.709091
1453.547688	1302.321678
1455.505746	1314.251748
1457.463361	1318.588112
1459.420535	1325.760140
1461.375433	1332.262238
1463.331723	1335.781119
1465.285739	1343.962238
1467.239315	1345.682517
1469.190618	1346.253846
1471.143313	1344.842657
1473.093737	1339.986014
1475.043722	1334.982517
1476.993267	1331.437063
1478.940544	1322.706294
1480.885554	1308.098601
1482.831956	1293.615385
1484.777920	1290.697902
1486.723446	1275.065035
1488.666708	1280.996503
1490.609533	1281.449650
1492.550095	1274.239161
1494.492048	1263.373427
1496.431740	1259.797203
1498.370996	1258.148252
1500.309818	1258.026573
1502.246380	1247.351748
1504.184332	1246.153846
1506.120027	1251.304895
1508.055288	1258.611189
1509.988292	1261.751748
1511.920864	1281.663636
1513.853004	1284.175524
1515.784712	1281.979720
1517.714167	1286.609790
1519.645011	1297.079021
1521.575425	1303.395804
1523.501766	1310.265035
1525.429497	1316.459441
1527.354978	1323.088811
1529.280030	1320.858741
1531.204653	1312.048951
1533.128847	1310.546154
1535.050794	1311.184615
1536.974130	1304.888811
1538.895221	1306.939860
1540.814067	1311.086713
1542.734303	1314.077622
1544.652295	1317.830070
1546.569861	1327.065035
1548.485185	1345.174825
1550.401899	1342.739860
1552.314558	1339.575524
1554.230421	1338.384615
1556.144045	1337.486014
1558.055430	1345.371329
1559.968204	1348.354545
1561.876929	1357.516783
1563.787044	1353.160140
1565.696735	1352.215385
1567.606002	1350.509091
1569.513036	1347.226573
1571.417837	1343.118182
1573.324027	1334.088112
1575.227985	1331.500699
1577.131523	1324.768531
1579.034639	1326.248252
1580.935527	1329.800000
1582.837803	1330.237762
1584.737850	1337.232867
1586.639286	1328.574126
1588.536687	1331.916084
1590.433671	1330.965734
1592.330236	1320.720280
1594.228188	1307.447552
1596.120306	1301.416084
1598.015618	1301.816084
1599.910511	1293.024476
1601.803183	1293.467832
1603.695439	1289.020280
1605.585475	1294.682517
1607.475095	1301.244755
1609.364300	1298.755944
1611.253089	1313.127273
1613.139662	1311.458042
1615.027621	1310.877622
1616.911565	1304.187413
1618.796895	1304.290210
1620.681812	1303.929371
1622.564515	1297.700000
1624.448604	1292.515385
1626.328683	1290.032867
1628.210148	1285.537762
1630.089403	1281.500000
1631.970044	1270.088112
1633.844881	1277.026573
1635.724700	1267.000000
1637.600513	1264.849650
1639.475917	1250.113986
1641.352706	1246.725874
1643.223698	1240.402797
1645.097872	1238.673427
1646.968048	1235.579720
1648.841404	1230.188811
1650.712557	1217.440559
1652.581508	1214.835664
1654.451845	1201.660839
1656.318188	1198.669231
1658.185918	1182.815385
1660.051448	1171.000699
1661.918363	1162.825175
1663.781290	1151.937063
1665.645602	1159.751049
1667.507719	1153.702797
1669.369430	1151.295105
1671.232526	1141.263636
1673.093428	1143.625874
1674.952136	1160.758042
1676.810441	1172.182517
1678.670131	1181.246154
1680.524054	1172.258042
1682.381149	1180.565734
1684.237842	1176.139161
1686.090559	1167.982517
1687.946447	1168.256643
1689.798361	1149.223077
1691.649873	1132.073427
1693.500986	1109.207692
1695.351697	1109.280420
1697.202008	1103.976224
1699.050135	1097.211888
1700.899645	1091.706993
1702.743407	1084.346154
1704.592119	1098.816084
1706.435084	1103.789510
1708.281215	1122.128671
1710.123385	1118.029371
1711.968719	1130.022378
1713.808313	1133.667133
1715.649291	1131.869231
1717.491652	1138.836364
1719.330057	1121.278322
1721.169845	1105.016084
1723.007458	1113.313986
1724.844675	1116.789510
1726.679719	1116.134965
1728.516146	1127.832168
1730.350401	1122.858042
1732.184262	1108.006993
1734.017728	1106.830070
1735.847248	1108.752448
1737.679927	1108.139860
1739.508662	1111.226573
1741.340555	1094.067832
1743.168505	1088.978322
1744.996063	1094.417483
1746.823230	1079.012587
1748.650004	1066.548252
1750.476388	1069.297203
1752.298835	1049.688112
1754.124436	1048.783217
1755.946103	1040.099301
1757.769152	1039.865734
1759.590040	1038.602098
1761.410538	1036.205594
1763.232418	1029.372028
1765.048598	1045.597902
1766.867930	1044.228671
1768.683335	1049.712587
1770.501891	1063.129371
1772.316521	1068.102797
1774.130764	1064.945455
1775.944621	1090.765734
1777.758091	1092.298601
1779.569407	1082.484615
1781.382105	1078.363636
1783.194416	1068.481818
1785.002810	1069.569231
1786.812585	1080.726573
1788.618444	1083.053147
1790.427450	1095.425175
1792.232542	1090.972727
1794.039014	1085.539860
1795.845103	1092.657343
1797.647282	1096.377622
1799.452604	1090.148252
1801.254018	1077.955245
1803.056812	1078.557343
1804.855701	1065.728671
1806.655969	1063.120280
1808.455857	1074.720979
1810.253602	1090.079021
1812.050967	1081.611189
1813.847951	1069.344056
1815.644555	1066.700699
1817.439020	1068.293007
1819.234865	1056.842657
1821.025054	1057.253147
1822.820140	1053.983217
1824.609573	1053.695105
1826.402144	1051.218881
1828.192579	1065.334266
1829.980879	1084.344056
1831.772315	1094.838462
1833.558105	1086.618182
1835.345275	1091.886014
1837.130313	1090.782517
1838.918485	1094.267832
1840.702771	1093.390210
1842.484928	1084.179021
1844.268463	1085.862937
1846.049871	1085.683217
1847.832656	1093.085315
1849.611562	1094.731469
1851.391846	1096.358042
1853.170005	1102.562238
1854.949541	1100.263636
1856.726953	1096.345455
1858.502241	1092.383916
1860.278908	1083.158741
1862.053452	1077.428671
1863.829373	1071.897902
1865.599675	1073.374126
1867.373104	1079.371329
1869.144413	1086.184615
1870.915351	1105.758741
1872.687666	1125.111888
1874.454369	1143.804196
1876.224196	1157.882517
1877.990160	1166.629371
1879.759248	1175.508392
1881.524474	1169.668531
1883.289332	1161.940559
1885.055566	1161.671329
1886.817942	1148.520280
1888.579951	1148.915385
1890.341593	1135.558741
1892.102867	1140.613287
1893.863775	1128.979720
1895.624315	1118.644056
1897.382746	1109.638462
1899.140812	1095.467832
1900.896770	1084.259441
1902.654104	1071.191608
1904.411072	1055.125874
1906.165935	1052.385315
1907.918692	1035.325874
1909.671086	1036.365734
1911.424856	1024.520979
1913.176522	1032.129371
1914.926085	1025.390909
1916.677025	1019.211888
1918.427601	1016.713986
1920.174339	1019.511189
1921.922452	1019.339161
1923.668466	1014.391608
1925.415856	1017.139860
1927.161147	1015.406294
1928.904341	1003.308392
1930.648911	1017.356643
1932.391384	1023.864336
1934.133497	1039.665035
1935.875251	1040.670629
1937.616644	1037.725175
1939.355944	1034.245455
1941.094885	1034.679720
1942.833467	1031.763636
1944.569957	1018.625874
1946.306090	1015.460839
1948.043597	1009.261538
1949.777283	1007.137762
1951.512343	1023.777622
1953.245314	1030.916783
1954.977929	1036.691608
1956.710187	1035.176923
1958.442089	1035.832867
1960.171905	1039.932867
1961.899637	1040.997203
1963.628742	1040.800699
1965.357493	1034.569930
1967.084160	1044.849650
1968.810473	1053.003497
1970.538159	1057.895804
1972.260309	1055.109790
1973.985561	1042.181818
1975.707005	1038.865734
1977.431549	1030.327972
1979.154014	1028.526573
1980.872675	1022.862937
1982.594435	1010.646154
1984.312393	1009.370629
1986.031725	1020.553846
1987.747256	1029.799301
1989.467609	1032.634266
1991.184162	1032.360839
1992.896920	1029.825175
1994.612773	1027.194406
1996.326554	1037.576224
1998.039984	1033.039860
1999.751344	1034.658042
2001.464077	1029.720280
2003.173018	1027.924476
2004.885053	1033.417483
2006.591578	1037.539161
2008.301196	1034.969231
2010.008746	1027.520979
2011.715949	1028.392308
2013.421086	1033.777622
2015.125876	1030.353846
2016.832038	1033.023776
2018.534418	1031.991608
2020.238170	1031.935664
2021.939859	1030.505594
2023.641202	1025.755944
2025.342200	1020.502797
2027.041138	1006.216783
2028.741447	1006.721678
2030.437980	1003.553846
2032.135885	1002.611888
2033.831732	998.934965
2035.530664	990.136364
2037.224110	995.220979
2038.918927	1001.316084
2040.613401	1008.735664
2042.304107	1017.783217
2043.997897	1013.689510
2045.687920	1014.248951
2047.379314	1009.281818
2049.068655	1020.076923
2050.759366	1020.190909
2052.446315	1013.748951
2054.132923	1010.570629
2055.820902	1008.138462
2057.505121	1013.286014
2059.190710	1017.497203
2060.875960	1031.913287
2062.559162	1038.093007
2064.243734	1036.213986
2065.922842	1034.997902
2067.606736	1034.867133
2069.285170	1037.097203
2070.966681	1039.310490
2072.644440	1032.810490
2074.321863	1032.921678
2076.000655	1026.550350
2077.677404	1023.225175
2079.352112	1024.088112
2081.028189	1026.101399
2082.702226	1026.162238
2084.375927	1028.634965
2086.049293	1030.400000
2087.720621	1034.820979
2089.391614	1037.525874
2091.062273	1041.344755
2092.732598	1041.007692
2094.402588	1042.697203
2096.070543	1039.841259
2097.738165	1042.406294
2099.403753	1036.257343
2101.070709	1030.951049
2102.735632	1029.993706
2104.400222	1027.794406
2106.062781	1028.442657
2107.726709	1026.204196
2109.388605	1026.305594
2111.050170	1034.254545
2112.711405	1039.120979
2114.370610	1043.050350
2116.029486	1047.443357
2117.688031	1050.087413
2119.346247	1040.648951
2121.000739	1034.293007
2122.658297	1027.860839
2124.315524	1018.515385
2125.969031	1013.195804
2127.623905	1005.022378
2129.275060	1001.823077
2130.929278	1002.388811
2132.579778	1002.855944
2134.231646	1006.423077
2135.878105	1005.527972
2137.529318	1008.795804
2139.176818	1006.765035
2140.825686	1011.841259
2142.472534	1017.272028
2144.119056	1012.725874
2145.765254	1012.397902
2147.407742	1019.700699
2149.053289	1025.374126
2150.695129	1025.822378
2152.340026	1030.579021
2153.981218	1029.575524
2155.622086	1030.018182
2157.262631	1040.616783
2158.901163	1041.268531
2160.541061	1047.793007
2162.177259	1046.642657
2163.814823	1054.728671
2165.452065	1060.478322
2167.087297	1067.379720
2168.722207	1073.215385
2170.356796	1079.768531
2171.991064	1079.583916
2173.621638	1083.266434
2175.255263	1083.155944
2176.885197	1089.119580
2178.516496	1070.788112
2180.145791	1066.922378
2181.774765	1052.797203
2183.403421	1051.819580
2185.031757	1043.589510
2186.658090	1039.269930
2188.284105	1035.667133
2189.908119	1033.782517
2191.533498	1027.510490
2193.156876	1029.958741
2194.781619	1026.046853
2196.402680	1028.985315
2198.023426	1016.813287
2199.645535	1025.923776
2201.265647	1024.117483
2202.883763	1035.252448
2204.501563	1042.816783
2206.119047	1041.190210
2207.736216	1033.413986
2209.353070	1033.664336
2210.969609	1025.404196
2212.584154	1029.783916
2214.196707	1021.727273
2215.810625	1014.933566
2217.422550	1007.458042
2219.035840	1008.702098
2220.647138	1012.892308
2222.256448	1014.929371
2223.867120	1007.092308
2225.475804	1001.178322
2227.084176	1000.468531
2228.690560	1000.528671
2230.298308	996.358042
2231.904069	1005.812587
2233.509519	1002.832168
2235.112985	1002.744755
2236.717813	1006.329371
2238.320657	1009.039860
2239.921518	1016.010490
2241.523742	1009.658042
2243.123983	1007.646853
2244.725588	1017.431469
2246.323539	1014.910490
2247.922853	1020.041958
2249.520187	1018.516084
2251.117213	1031.595804
2252.715600	1030.611189
2254.310339	1037.746154
2255.903102	1049.466434
2257.497226	1056.284615
2259.092712	1066.907692
2260.684554	1070.739860
2262.276089	1074.238462
2263.868985	1082.265035
2265.456572	1079.146154
2267.048856	1074.176923
2268.635832	1066.706294
2270.225837	1069.472727
2271.810537	1052.960140
2273.399931	1058.653147
2274.984022	1064.600000
2276.569475	1074.263636
2278.152959	1085.535664
2279.739468	1084.946154
2281.322344	1078.912587
2282.904916	1079.396503
2284.487186	1073.515385
2286.065825	1053.616783
2287.647488	1045.492308
2289.225524	1036.807692
2290.806582	1026.251049
2292.384013	1028.182517
2293.959481	1027.411888
2295.537971	1033.272028
2297.112836	1036.972028
2298.687401	1029.785315
2300.261666	1026.003497
2301.835630	1018.310490
2303.409294	1007.322378
2304.982657	991.704895
2306.552402	985.904895
2308.121848	988.532168
2309.694313	992.380420
2311.261503	1001.441259
2312.831710	1014.282517
2314.398303	1028.372028
2315.966256	1034.613986
2317.532254	1044.880420
2319.097954	1040.302098
2320.663356	1032.827273
2322.226805	1023.012587
2323.791613	1021.102098
2325.352812	1004.600000
2326.917026	995.820280
2328.475979	984.981119
2330.037945	981.581818
2331.597961	978.116084
2333.157681	970.037762
2334.715452	960.402098
2336.272929	968.702098
2337.830110	964.839860
2339.385345	983.597203
2340.940285	994.448252
2342.494932	1011.690210
2344.049285	994.195804
2345.603344	991.458741
2347.157110	982.783916
2348.708931	983.228671
2350.258809	990.958741
2351.811695	986.110490
2353.359339	987.861538
2354.909990	991.570629
2356.457051	993.911189
2358.005469	1007.080420
2359.553595	1011.060839
2361.098134	1020.648951
2362.644030	1014.487413
2364.187987	1018.660839
2365.733302	1006.802098
2367.275032	1006.116084
2368.818120	1010.346154
2370.359271	997.203497
2371.900133	990.985315
2373.440706	985.022378
2374.980990	975.134965
2376.520985	976.392308
2378.057401	973.513287
2379.596819	992.388811
2381.132660	995.506294
2382.669857	1004.334266
2384.203480	1002.093007
2385.740102	999.053147
2387.274793	1006.990909
2388.807555	1005.653147
2390.340031	1020.469231
2391.870578	1016.911888
2393.404123	1011.490210
2394.932457	1003.022378
2396.462147	996.253147
2397.991552	1011.155944
2399.520672	992.600699
2401.049506	985.306294
2402.573136	975.872727
2404.101401	979.227273
2405.624463	987.308392
2407.152160	996.952448
2408.673016	1006.344056
2410.198506	1004.592308
2411.720436	1027.841958
2413.243720	1036.041958
2414.765084	1051.575524
2416.284528	1060.283217
2417.805327	1035.797902
2419.324207	1019.693007
2420.842805	1016.953147
2422.359486	1021.759441
2423.877522	1004.574126
2425.395276	992.600000
2426.909478	992.183916
2428.423400	1002.983217
2429.937043	1018.844755
2431.452039	1026.660839
2432.963487	1043.561538
2434.476290	1045.783916
2435.987180	1040.748951
2437.497790	1050.253846
2439.006489	1050.393706
2440.518175	1048.894406
2442.026317	1034.351748
2443.534180	1029.079021
2445.041766	1040.682517
2446.545812	1041.995105
2448.052842	1051.724476
2449.557964	1062.697902
2451.062809	1066.501399
2452.565747	1066.990909
2454.068408	1061.997203
2455.570793	1062.400000
2457.071273	1042.538462
2458.573106	1038.588811
2460.073035	1016.933566
2461.572688	1003.356643
2463.072066	991.851748
2464.569541	997.348951
2466.065114	1006.423077
2467.563667	1017.373427
2469.058691	1010.269930
2470.555069	1027.548951
2472.047920	1011.574825
2473.542123	1017.225874
2475.036053	1005.710490
2476.526460	1013.104196
2478.019844	1005.322378
2479.511329	998.720979
2481.000918	996.414685
2482.490236	1011.613287
2483.977657	999.197203
2485.468054	999.156643
2486.954932	982.899301
2488.443162	987.657343
2489.927876	972.891608
2491.412319	974.369930
2492.898114	971.592308
2494.382016	982.941958
2495.867270	994.916084
2497.347390	999.997902
2498.830482	1010.617483
2500.311684	1014.486014
2501.792617	1001.708392
2503.271661	1009.251049
2504.750437	981.400000
2506.228944	973.530070
2507.707182	972.237063
2509.185152	961.723077
2510.659618	961.576224
2512.137052	966.525874
2513.610983	969.641958
2515.086265	964.158741
2516.561279	964.118182
2518.032792	963.458741
2519.505656	964.944755
2520.976637	967.462238
2522.448967	951.308392
2523.916185	952.173427
2525.386369	963.893007
2526.854671	966.768531
2528.322709	974.031469
2529.790482	979.849650
2531.257990	974.440559
2532.725233	961.595804
2534.188985	959.786014
2535.654086	954.305594
2537.117310	952.192308
2538.581883	956.088112
2540.042967	952.551049
2541.505402	945.691608
2542.967573	950.075524
2544.426257	953.281119
2545.889514	952.321678
2547.347674	959.974825
2548.807183	960.536364
2550.261599	951.371329
2551.720585	951.948252
2553.177698	943.859441
2554.632941	941.937762
2556.087923	947.363636
2557.541035	944.668531
2558.995496	942.704196
2560.448088	942.600699
2561.900420	952.579720
2563.350884	954.529371
2564.804304	960.181818
2566.252642	947.592308
2567.703936	940.195804
2569.153363	938.297203
2570.599319	935.251049
2572.048229	937.197902
2573.493668	941.120979
2574.940456	943.760839
2576.385380	943.244056
2577.830047	945.079021
2579.276061	962.842657
2580.718608	961.802098
2582.162503	960.737063
2583.602933	958.861538
2585.044711	967.876224
2586.484629	986.520280
2587.925894	998.249650
2589.363697	1001.178322
2590.804450	996.255245
2592.240140	989.765734
2593.678780	982.932867
2595.115563	967.488112
2596.550489	959.853147
2597.988364	936.587413
2599.421181	922.055944
2600.855345	918.888811
2602.287654	912.031469
2603.721310	921.448252
2605.153113	927.006294
2606.584663	921.862238
2608.015959	921.227273
2609.445404	932.988811
2610.874596	929.465734
2612.301937	918.258741
2613.730625	923.597203
2615.159060	921.477622
2616.584049	930.621678
2618.010383	941.640559
2619.434869	946.523077
2620.860701	954.679720
2622.283089	961.503497
2623.706823	961.323077
2625.128711	965.980420
2626.550348	972.904196
2627.970140	964.502098
2629.391278	960.739860
2630.812166	963.630070
2632.229616	959.090210
2633.650005	966.600000
2635.066957	964.041259
2636.483661	952.797902
2637.900116	939.366434
2639.316323	939.469231
2640.732281	930.238462
2642.146399	923.857343
2643.560270	924.323776
2644.972301	929.511189
2646.385677	923.792308
2647.795623	920.304895
2649.208505	918.710490
2650.617958	922.939860
2652.027165	914.802098
2653.434536	908.182517
2654.844841	897.545455
2656.253310	902.751748
2657.659944	904.957343
2659.066333	911.890210
2660.470888	920.551049
2661.876787	935.174126
2663.280853	946.034266
2664.684675	944.049650
2666.088252	957.134266
2667.489997	957.403497
2668.893086	960.948252
2670.292758	953.673427
2671.693773	943.118881
2673.091371	948.713986
2674.491900	961.135664
2675.889014	957.183916
2677.287471	949.790909
2678.684100	959.930070
2680.080488	962.079021
2681.476633	960.507692
2682.870952	964.042657
2684.266614	957.142657
2685.658866	955.260140
2687.052462	949.767133
2688.444233	943.558042
2689.837346	939.886713
2691.228636	935.397902
2692.618103	911.583916
2694.007331	902.104895
2695.396318	909.916084
2696.786648	900.325175
2698.171993	906.583916
2699.560263	900.284615
2700.946712	904.429371
2702.332922	906.442657
2703.718893	917.710490
2705.101466	908.727972
2706.485380	914.041958
2707.869057	912.099301
2709.252496	906.174126
2710.632539	909.570629
2712.013924	907.244755
2713.393493	895.804895
2714.774404	896.425175
2716.153500	885.753846
2717.530781	879.311189
2718.909404	881.751049
2720.286214	882.894406
2721.662788	889.545455
2723.039126	909.146853
2724.413652	919.746853
2725.789519	923.451748
2727.161999	925.194406
2728.537396	915.798601
2729.907831	903.838462
2731.279608	901.215385
2732.651151	894.609790
2734.020885	892.320280
2735.391959	891.500000
2736.761226	887.731469
2738.130259	895.962238
2739.497485	899.697203
2740.864479	902.386014
2742.231240	902.465035
2743.597768	902.998601
2744.962492	897.560140
2746.326983	891.310490
2747.691242	906.729371
2749.055270	902.749650
2750.419065	899.323077
2751.779487	886.806294
2753.142820	882.505594
2754.501210	871.743357
2755.862510	870.719580
2757.220439	863.165035
2758.581278	857.632867
2759.940316	857.484615
2761.295986	851.645455
2762.654565	846.730070
2764.009776	856.605594
2765.364758	842.260839
2766.717943	849.032867
2768.074035	859.427972
2769.426763	874.277622
2770.779262	877.076923
2772.131533	888.700699
2773.485143	890.153147
2774.835391	893.734266
2776.183846	898.642657
2777.535205	903.444755
2778.883205	899.158741
2780.232544	895.239860
2781.580090	879.587413
2782.927409	884.144056
2784.274502	881.396503
2785.619804	874.395105
2786.964880	869.132168
2788.309730	871.565734
2789.654354	869.198601
2790.995625	873.111888
2792.338235	870.305594
2793.680620	873.727273
2795.022779	869.622378
2796.361589	870.794406
2797.703299	867.390210
2799.041660	871.255245
2800.381359	867.077622
2801.719272	865.396503
2803.055401	876.318881
2804.391307	875.842657
2805.728549	873.309790
2807.064008	888.450350
2808.399244	886.218881
2809.732698	893.771329
2811.067488	899.264336
2812.398937	906.444755
2813.733282	903.795804
2815.062729	899.355245
2816.393513	900.400699
2817.724075	900.368531
2819.052858	902.258042
2820.382978	894.478322
2821.711318	890.339860
2823.039438	889.527972
2824.365781	871.000000
2825.693459	859.920280
2827.017805	846.503497
2828.343486	833.290909
2829.667393	816.848252
2830.991079	813.331469
2832.316101	817.648252
2833.637794	817.372727
2834.959267	816.598601
2836.280522	828.018881
2837.601558	827.669930
2838.920822	833.796503
2840.241421	833.419580
2841.560248	841.046154
2842.878857	839.438462
2844.195696	840.751748
2845.512317	839.596503
2846.828720	845.090909
2848.143355	834.463636
2849.459324	835.104895
2850.771973	829.472028
2852.085958	832.688811
2853.399726	823.566434
2854.713277	825.098601
2856.025061	832.803497
2857.335080	833.147552
2858.646433	831.151748
2859.954470	846.073427
2861.263843	842.858042
2862.573000	846.983916
2863.881942	833.309091
2865.189121	828.479021
2866.494536	815.536364
2867.801286	798.906294
2869.106273	781.392308
2870.411047	784.420280
2871.714059	796.282517
2873.019953	787.331469
2874.320992	791.933566
2875.623364	813.023776
2876.923977	809.535664
2878.225924	814.386014
2879.527658	811.288811
2880.826088	807.439860
2882.125851	805.016783
2883.423857	793.199301
2884.721651	788.419580
2886.017688	783.081119
2887.315059	774.662937
2888.610674	754.674825
2889.906079	758.267133
2891.201272	769.901399
2892.493167	763.269231
2893.787939	771.106993
2895.079415	792.272727
2896.372223	802.529371
2897.664821	807.348252
2898.954124	808.842657
2900.244760	812.749650
2901.533646	797.675524
2902.823863	790.825175
2904.110789	778.560140
2905.399047	776.953846
2906.685556	774.994406
2907.971856	767.072028
2909.257948	771.409790
2910.542292	774.959441
2911.829508	769.764336
2913.111897	774.037063
2914.395618	774.129371
2915.677592	784.204895
2916.959360	780.892308
2918.239382	786.265734
2919.522274	789.727273
2920.803421	790.241958
2922.081286	795.969231
2923.362020	793.067832
2924.639473	786.716783
2925.916721	785.494406
2927.192226	783.885315
2928.470599	777.294406
2929.744157	764.143357
2931.020583	763.344755
2932.295268	753.958042
2933.568213	762.636364
2934.842488	768.983916
2936.115024	771.862937
2937.387356	785.588112
2938.656415	798.903497
2939.928339	807.245455
2941.198525	812.020280
2942.468507	808.969231
2943.738286	790.876923
2945.006328	795.402797
2946.272635	786.479021
2947.538739	770.850350
2948.806174	764.798601
2950.071873	756.161538
2951.337370	751.606294
2952.602665	751.269930
2953.864696	758.326573
2955.128056	755.053147
2956.391215	755.834965
2957.652641	765.974126
2958.915397	770.146154
2960.176422	783.205594
2961.435716	772.747552
2962.694809	762.631469
2963.953702	752.827972
2965.212395	750.034965
2966.470888	739.258042
2967.727652	738.401399
2968.984217	744.795804
2970.239053	750.481818
2971.495219	768.249650
2972.748129	789.001399
2974.002369	805.641259
2975.256410	798.540559
2976.508725	798.093706
2977.760842	795.734965
2979.011234	790.979720
2980.264481	796.701399
2981.512951	787.482517
2982.764275	788.837762
2984.012351	782.384615
2985.260229	787.424476
2986.507910	790.237063
2987.755395	791.058042
2989.001158	790.110490
2990.246724	773.060839
2991.493619	773.941259
2992.737268	769.893706
2993.982246	770.488112
2995.223981	777.369930
2996.468567	774.225175
2997.711434	778.397902
2998.951059	779.186713
3000.193536	780.621678
3001.432772	782.457343
3002.673336	785.691608
3003.912183	789.718881
3005.150836	790.323776
3006.387773	791.104895
3007.626037	787.223776
3008.862587	784.246853
3010.098943	779.163636
3011.335105	775.045455
3012.569553	767.337063
3013.803808	765.804895
3015.037870	763.774825
3016.270220	767.890210
3017.500858	768.414685
3018.734342	766.211888
3019.966115	770.902797
3021.196176	767.856643
3022.426046	762.043357
3023.654206	761.925874
3024.883693	758.839161
3026.111470	762.797203
3027.339056	762.078322
3028.567968	778.093007
3029.792138	772.435664
3031.019151	779.323776
3032.242941	782.018182
3033.468056	777.953147
3034.691465	774.390909
3035.914685	764.394406
3037.136199	754.548951
3038.360554	753.652448
3039.580174	753.942657
3040.801120	748.392308
3042.021876	748.730070
3043.240929	752.853846
3044.461308	734.590909
3045.678470	742.472028
3046.896957	738.231469
3048.113743	732.956643
3049.330340	735.306294
3050.546750	735.144755
3051.759946	729.976224
3052.975980	727.590210
3054.188802	724.501399
3055.404461	713.711189
3056.615397	705.401399
3057.827659	700.831469
3059.039733	697.632168
3060.251621	698.885315
3061.461811	694.637063
3062.671816	697.355944
3063.881634	705.279021
3065.089756	698.610490
3066.297692	693.522378
3067.503934	689.148951
3068.711500	685.193007
3069.917371	686.156643
3071.123057	680.274825
3072.328559	690.748252
3073.532367	701.470629
3074.737499	705.959441
3075.940938	714.812587
3077.142685	717.115385
3078.344249	705.722378
3079.545629	697.662937
3080.746825	688.872028
3081.946331	688.939161
3083.145653	683.880420
3084.346299	681.165035
3085.545256	678.106294
3086.741017	673.938462
3087.939608	678.774126
3089.135005	685.184615
3090.331726	689.451748
3091.525254	682.246853
3092.721610	670.787413
3093.916279	672.764336
3095.107758	666.950350
3096.303568	666.879720
3097.494685	664.886713
3098.687125	668.620280
3099.876376	670.887413
3101.068454	665.283916
3102.258848	671.241958
3103.446055	674.592308
3104.634586	669.346154
3105.824439	662.523077
3107.011107	659.213986
3108.197596	663.243357
3109.383905	655.446154
3110.571537	645.167133
3111.755986	650.608392
3112.938755	659.155944
3114.124348	655.478322
3115.308260	657.676923
3116.490494	665.267832
3117.672550	667.973427
3118.854427	672.632867
3120.036126	675.757343
3121.216148	683.811888
3122.394492	688.913287
3123.575658	676.820979
3124.753648	675.765035
3125.931461	673.167832
3127.109097	677.752448
3128.285058	669.253147
3129.460843	671.146853
3130.637948	674.310490
3131.813380	677.604196
3132.987138	678.797203
3134.159223	677.362937
3135.332629	668.838462
3136.505860	663.476224
3137.677418	653.101399
3138.850298	652.533566
3140.020010	649.262937
3141.191043	658.566434
3142.360405	660.146154
3143.528098	658.372028
3144.698606	659.886713
3145.864455	664.040559
3147.034614	663.219580
3148.200115	665.919580
3149.365443	665.637762
3150.530597	673.551748
3151.695578	675.126573
3152.861878	675.914685
3154.023525	683.852448
3155.186493	679.008392
3156.349287	674.908392
3157.511909	667.507692
3158.672866	664.093007
3159.833650	656.679021
3160.994263	653.355245
3162.153211	650.916783
3163.311987	654.155944
3164.470592	650.046154
3165.629025	646.823776
3166.787286	642.234266
3167.943885	643.160140
3169.098823	636.433566
3170.255080	642.308392
3171.409677	646.323776
3172.564102	644.765734
3173.716868	651.642657
3174.869464	659.497203
3176.021890	660.641259
3177.174145	662.339161
3178.326231	652.612587
3179.475170	652.290210
3180.626916	649.775524
3181.777005	649.629371
3182.925436	649.274825
3184.073699	652.376224
3185.221793	654.388811
3186.369717	661.175524
3187.515987	663.344056
3188.662088	653.683217
3189.806535	648.481119
3190.950813	643.907692
3192.094924	636.488112
3193.240353	645.188811
3194.382643	646.921678
3195.524765	642.753147
3196.666721	641.802797
3197.808509	644.000000
3198.950130	646.502098
3200.088615	648.425874
3201.228419	636.848951
3202.369539	633.674825
3203.507525	628.544755
3204.643862	623.129371
3205.780033	624.720280
3206.917522	631.904196
3208.053362	627.067133
3209.190518	614.686713
3210.323063	611.718881
3211.459888	610.449650
3212.592102	612.349650
3213.725634	615.637762
3214.859000	612.469231
3215.989239	608.638462
3217.122277	606.127972
3218.252187	611.020280
3219.383415	616.616783
3220.511517	622.019580
3221.642417	617.622378
3222.771672	611.729371
3223.899283	607.862238
3225.023773	602.672727
3226.152538	602.453147
3227.278181	598.523077
3228.403661	586.537063
3229.527500	588.177622
3230.654134	581.821678
3231.776169	590.614685
3232.899521	594.933566
3234.022711	599.063636
3235.145739	604.880420
3236.267127	603.422378
3237.388354	598.018182
3238.507942	587.115385
3239.627369	579.151049
3240.745159	573.806993
3241.865740	568.544755
3242.983208	571.989510
3244.100515	558.849650
3245.217661	569.909091
3246.333172	566.990909
3247.449998	571.360839
3248.563713	577.438462
3249.680219	578.534965
3250.795089	578.279021
3251.906851	575.009790
3253.018454	579.243357
3254.131372	586.006294
3255.244130	593.081818
3256.353782	596.043357
3257.464749	585.192308
3258.575557	589.242657
3259.684733	588.510490
3260.792278	594.994406
3261.901138	602.361538
3263.009839	613.609091
3264.115438	615.598601
3265.222352	617.683217
3266.327636	618.636364
3267.434234	623.633566
3268.537732	625.501399
3269.642544	616.188811
3270.747199	604.195804
3271.848756	602.225175
3272.950156	602.374126
3274.052870	600.329371
3275.155427	599.873427
3276.254889	593.148252
3277.357133	583.060839
3278.456283	570.123776
3279.553807	563.679021
3280.651176	572.235664
3281.751328	570.489510
3282.848386	571.795105
3283.945290	576.860140
3285.042038	581.921678
3286.134227	582.959441
3287.230666	581.376224
3288.325482	573.620979
3289.420143	559.851049
3290.513183	557.845455
3291.606069	550.486014
3292.697334	553.194406
3293.789912	552.855245
3294.880870	551.227972
3295.970208	552.181818
3297.059393	563.548951
3298.149890	564.521678
3299.237303	567.862238
3300.324564	572.002797
3301.413137	569.854545
3302.501557	570.354545
3303.585430	576.210490
3304.673545	572.627273
3305.758579	568.062238
3306.841997	559.463636
3307.926727	558.872028
3309.009841	552.106993
3310.094267	553.126573
3311.175615	552.674825
3312.258275	553.555245
3313.339321	545.966434
3314.420216	547.399301
3315.499498	542.432168
3316.578629	540.308392
3317.659072	544.020280
3318.736440	539.137762
3319.815120	546.898601
3320.892188	548.830769
3321.969106	550.981119
3323.044414	555.066434
3324.119572	567.053147
3325.196041	563.186014
3326.269439	569.720979
3327.342689	573.809091
3328.417250	569.191608
3329.490201	568.358042
3330.561545	569.957343
3331.634199	562.577622
3332.703786	569.782517
3333.774684	559.668531
3334.843975	560.044056
3335.914577	560.417483
3336.983572	569.633566
3338.050961	563.538462
3339.116745	568.288811
3340.186755	566.790909
3341.253702	568.974126
3342.317587	565.224476
3343.384240	563.590909
3344.449289	565.286014
3345.512734	572.616084
3346.576032	566.509091
3347.639185	566.525175
3348.702191	568.364336
3349.765050	575.725175
3350.826308	571.035664
3351.884509	562.779720
3352.946931	563.781119
3354.006296	564.509790
3355.065517	559.230769
3356.126046	564.067133
3357.182066	567.027273
3358.240851	563.643357
3359.295128	554.304895
3360.352169	557.136364
3361.407611	551.178322
3362.464362	550.358741
3363.519516	549.730769
3364.573072	533.213986
3365.625031	540.251748
3366.679752	546.992308
3367.731425	551.380420
3368.782953	560.397902
3369.835791	556.139161
3370.885581	557.978322
3371.936680	561.879720
3372.984732	561.148252
3374.035545	549.071329
3375.083312	542.548951
3376.130937	536.478322
3377.178420	519.698601
3378.224309	522.216084
3379.271508	519.737063
3380.315663	521.513287
3381.362577	517.581119
3382.407899	515.086713
3383.450181	525.624476
3384.492321	532.862238
3385.535770	532.274126
3386.579077	532.229371
3387.620794	525.876923
3388.662370	524.084615
3389.703806	522.969930
3390.743653	524.011189
3391.781911	524.748252
3392.821477	526.172028
3393.860903	524.833566
3394.898741	518.941958
3395.934992	524.516084
3396.971103	528.610490
3398.008522	528.934266
3399.042908	524.883916
3400.078602	527.422378
3401.114156	533.871329
3402.146678	536.034266
3403.181954	533.775524
3404.214199	539.259441
3405.246306	541.429371
3406.276829	548.398601
3407.308660	544.103497
3408.340352	547.458042
3409.369016	545.497203
3410.397542	545.737063
3411.427376	537.011888
3412.457072	537.276923
3413.483741	537.166434
3414.511718	530.032168
3415.536670	529.297203
3416.564372	523.196503
3417.589051	517.985315
3418.615036	514.811888
3419.639442	513.929371
3420.663710	508.462937
3421.686400	502.353846
3422.708955	506.262937
3423.732814	506.847552
3424.753654	515.616783
3425.774359	524.537363
3426.796369	531.315759
3427.815361	533.983616
3428.834218	530.572577
3429.854381	519.114286
3430.871526	497.640385
