-118.187858	8.620330
-115.518258	1.513187
-112.851593	-2.009890
-110.185680	-2.691908
-107.522699	-1.275874
-104.858289	1.495205
-102.196809	4.878322
-99.533899	6.005594
-96.876097	7.783916
-94.216864	7.849650
-91.558380	6.497203
-88.902821	4.802797
-86.245833	4.181119
-83.593942	1.459441
-80.940622	1.019580
-78.290222	0.866434
-75.638392	3.003497
-72.991653	3.432168
-70.343484	5.800699
-67.696059	6.923077
-65.051547	8.442657
-62.405607	7.064336
-59.764748	7.137063
-57.122460	7.295105
-54.483080	6.890909
-51.842272	8.839860
-49.202204	8.175524
-46.567208	7.846154
-43.930783	10.486713
-41.297262	12.425874
-38.662312	16.076923
-36.032427	17.116783
-33.398950	20.432168
-30.770535	18.574126
-28.142853	18.858042
-25.513744	12.313287
-22.889691	-25.606294
-20.262049	-164.776224
-17.639460	-445.134965
-15.017602	-850.489510
-12.396476	118.139161
-9.776079	2314.698601
-7.158570	4233.240559
-4.539633	5608.832867
-1.923582	6428.374126
0.691741	6687.522378
3.306337	6392.146154
5.918050	5543.933566
8.531192	4166.358042
11.139300	2349.405594
13.750990	405.047552
16.357649	-1034.227972
18.965736	-821.491608
21.573099	-97.593706
24.175437	20.363636
26.781353	22.105594
29.382247	16.978322
31.984570	10.925874
34.581874	8.624476
37.182754	9.304196
39.778620	11.772028
42.375913	10.540559
44.972487	12.485315
47.564052	11.016783
50.157045	12.294406
52.747177	11.467133
55.338737	11.867832
57.927437	7.404895
60.517564	4.368531
63.102693	0.802797
65.689249	2.039161
68.275090	3.446853
70.858078	3.911888
73.442493	2.120280
76.019778	5.261538
78.600630	2.024476
81.178633	2.444056
83.755926	0.948252
86.334645	1.076224
88.908383	-1.173427
91.483547	-0.404895
94.055868	-0.379021
96.627481	1.410490
99.196255	2.240559
101.766455	1.356643
104.333816	0.187413
106.902604	1.872028
109.468554	0.061538
112.031670	0.166434
114.598342	1.657343
117.155793	3.548252
119.718929	6.890210
122.277106	14.963636
124.838836	25.769231
127.395611	41.807692
129.953811	61.290909
132.507059	88.088112
135.059608	121.120979
137.615708	158.776224
140.166861	195.109091
142.717315	230.038462
145.267073	260.199301
147.814011	283.160839
150.360253	298.238462
152.907922	306.876923
155.454894	307.323776
157.996930	305.838462
160.538273	303.330769
163.078924	301.696503
165.620999	298.573427
168.160264	296.995105
170.696719	294.846853
173.232484	290.218881
175.769674	287.350350
178.306172	286.251049
180.839865	281.013986
183.370755	279.115385
185.900956	277.920280
188.432582	279.091608
190.961407	280.685315
193.487433	281.364336
196.012774	281.349650
198.539539	283.502797
201.063508	284.309790
203.586791	284.395105
206.109390	287.102098
208.629196	287.653147
211.148319	288.927972
213.666759	295.646853
216.186623	302.239860
218.699486	311.005594
221.215880	315.722378
223.731592	322.062238
226.242415	329.262238
228.754662	339.654545
231.264126	345.000000
233.772912	348.669231
236.281020	350.741958
238.790551	349.655245
241.295203	352.776923
243.799178	353.293706
246.304577	353.697203
248.805101	354.530070
251.309148	354.713986
253.806225	359.016783
256.306824	362.538462
258.804652	368.962238
261.301807	368.231469
263.798289	368.770629
266.289909	369.485315
268.785047	370.344056
271.277420	376.463636
273.769122	379.497902
276.258061	382.179021
278.748423	386.458042
281.236024	393.039860
283.720865	402.558042
286.209220	409.944755
288.690636	417.747552
291.175566	424.597902
293.655651	435.772028
296.139248	444.598601
298.618002	451.612587
301.098180	456.006993
303.575605	453.492308
306.052367	449.701399
308.528466	450.149650
311.001816	449.405594
313.474504	452.483916
315.946531	452.548951
318.417897	452.245455
320.886519	452.244755
323.354481	448.832168
325.823866	442.527972
328.288428	430.009091
330.756493	419.278322
333.219739	407.933566
335.682328	400.162937
338.144259	397.174126
340.605534	391.749650
343.064075	395.083217
345.524038	394.690210
347.981269	397.667133
350.437844	396.383916
352.893766	393.728671
355.346959	391.879720
357.801573	385.168531
360.251386	382.242657
362.704696	376.769930
365.153206	372.325874
367.601066	368.209790
370.050347	364.983916
372.494835	369.791608
374.940745	368.355245
377.386006	371.664336
379.828548	371.299301
382.270442	371.253147
384.711688	368.377622
387.150219	364.484615
389.590172	361.755245
392.027411	358.924476
394.461938	355.074825
396.899953	352.627273
399.333191	352.848951
401.767851	355.472028
404.197737	351.552448
406.631109	352.869930
409.059711	353.546853
411.487672	353.992308
413.917053	353.628671
416.341669	356.902098
418.767707	357.500000
421.193104	359.304895
423.617861	359.671329
426.037860	362.722378
428.459280	362.078322
430.878003	361.864336
433.298147	358.972028
435.715596	358.695804
438.134465	356.660140
440.550641	352.088112
442.962070	347.111888
445.376975	344.090210
447.789190	339.795804
450.200771	337.177622
452.611718	333.088112
455.019979	330.449650
457.427607	326.958741
459.834604	327.202098
462.240968	326.125175
464.644650	326.427972
467.047702	327.900000
469.450124	331.283217
471.851917	336.096503
474.251031	344.359441
476.651565	353.987413
479.051470	362.390909
481.446652	371.565035
483.845301	381.851049
486.239230	393.038462
488.632533	403.718881
491.025210	411.190210
493.417262	418.329371
495.810733	421.838462
498.199491	414.872727
500.585583	358.840559
502.973095	239.828671
505.359983	227.550350
507.744208	932.159441
510.129852	2584.181119
512.512833	4676.181818
514.893154	6531.155245
517.274894	7848.809790
519.653975	8524.065734
522.034475	8529.491608
524.412317	7870.425175
526.787504	6583.721678
529.162073	4780.396503
531.538061	2747.625175
533.911395	1022.885315
536.286148	227.497902
538.656214	226.004196
541.025665	413.672028
543.396535	462.824476
545.762723	447.241259
548.130330	415.165734
550.495291	388.160140
552.859639	366.112587
555.223375	346.013287
557.588528	328.123776
559.949008	315.322378
562.310907	301.275524
564.670166	293.276923
567.026786	287.181818
569.386851	280.044755
571.740226	273.969231
574.097045	271.629371
576.451228	266.086713
578.804804	261.760140
581.157771	259.587413
583.508107	256.781119
585.859859	253.521678
588.204935	254.436364
590.555475	255.892308
592.899342	257.707692
595.248669	256.893007
597.593349	254.311888
599.935404	252.076923
602.278875	251.087413
604.619724	248.671329
606.959971	250.162937
609.297597	250.297902
611.638658	250.558741
613.975082	250.863636
616.312922	254.015385
618.648144	254.997902
620.980751	254.774126
623.314775	251.622378
625.646184	246.751748
627.976995	243.248951
630.307208	239.204196
632.636823	236.093706
634.961816	234.004196
637.292250	228.306993
639.618062	227.753147
641.941268	226.072028
644.265889	227.073427
646.587906	223.599301
648.909328	223.437063
651.228147	223.637762
653.548382	224.493007
655.868024	227.404196
658.185065	227.502098
660.501515	228.877622
662.815366	228.492308
665.130632	226.430769
667.443302	228.702797
669.757387	228.461538
672.066872	230.631469
674.377773	227.734266
676.686081	230.677622
678.993801	230.190909
681.302936	227.052448
683.607478	223.793706
685.911434	219.304196
688.214803	213.744755
690.519587	208.304895
692.819785	202.164336
695.121398	199.379720
697.422425	194.952448
699.718870	194.739161
702.016731	193.617483
704.314008	195.000699
706.610702	192.645455
708.902820	190.146154
711.198349	189.061538
713.489305	185.495804
715.781675	184.630769
718.071469	185.241259
720.360684	185.341259
722.649318	185.233566
724.935381	185.053846
727.222857	187.702098
729.507763	188.348252
731.792090	190.643357
734.073849	188.756643
736.357023	189.975524
738.639618	191.973427
740.917659	193.186014
743.197113	197.251748
745.475992	200.472028
747.754295	200.952448
750.028049	203.058042
752.303217	202.665734
754.577811	202.980420
756.849846	202.545455
759.123293	202.132168
761.394183	199.111189
763.662517	197.712587
765.932264	198.161538
768.199457	198.516084
770.466079	199.034266
772.732132	201.572727
774.995632	203.413986
777.260546	208.785315
779.524890	211.177622
781.784705	212.299301
784.045933	213.401399
786.306593	214.573427
788.564706	213.890909
790.820275	213.095804
793.079235	213.361538
795.331696	215.426573
797.589524	215.928671
799.842832	218.023776
802.093601	217.132168
804.345782	219.463636
806.595425	220.162937
808.846479	217.704895
811.093022	218.214685
813.340978	218.092308
815.586398	214.991608
817.833230	214.951049
820.079501	215.110490
822.321268	217.920979
824.566417	216.524476
826.805094	216.831469
829.047154	215.213287
831.284715	216.771329
833.523687	212.597902
835.760133	208.493007
837.997991	205.987413
840.233323	200.860140
842.466131	195.694406
844.700351	195.862238
846.932049	196.816084
849.163192	198.883916
851.393780	199.434266
853.623814	203.637762
855.853293	207.395105
858.078291	208.672727
860.306664	205.896503
862.530558	205.398601
864.755862	204.574825
866.976691	202.570629
869.200892	201.998601
871.420620	204.468531
873.641759	204.752448
875.862347	206.125874
878.080425	207.229371
880.299914	208.206993
882.514936	208.078322
884.729410	208.374126
886.943337	207.698601
889.156716	209.048951
891.369549	208.724476
893.581834	210.169231
895.791618	209.716783
898.000856	210.910490
900.209548	210.788811
902.415742	214.330070
904.623345	213.694406
906.828451	214.208392
909.033013	216.746853
911.235079	219.002797
913.438555	220.570629
915.639537	221.722378
917.839978	222.523077
920.041827	224.711189
922.237284	228.751049
924.436101	239.203497
926.630480	257.560839
928.828215	282.747552
931.021515	316.016783
933.216224	358.752448
935.408447	400.418881
937.600132	438.700000
939.791279	470.768531
941.979943	494.013986
944.168070	510.592308
946.353717	518.593706
948.542716	520.387413
950.727292	518.447552
952.911333	511.961538
955.098724	506.761538
957.277812	508.117483
959.460249	512.899301
961.642153	514.327273
963.821583	515.253147
965.998540	517.567832
968.176905	522.528671
970.356676	526.543357
972.530099	530.286713
974.706868	531.831469
976.879231	534.009790
979.053000	529.748951
981.222366	522.967133
983.395077	511.455944
985.565321	496.195804
987.735037	472.238462
989.904224	444.704895
992.069014	419.138462
994.237145	393.655245
996.400882	365.634965
998.566025	342.137063
1000.728710	323.022378
1002.890868	310.825175
1005.050570	302.001399
1007.209748	293.356643
1009.370332	287.621678
1011.528461	281.870629
1013.686066	277.135664
1015.843148	272.979720
1017.999707	270.308392
1020.151886	267.509790
1022.305471	261.704196
1024.458535	256.332867
1026.609151	250.908392
1028.761172	248.480420
1030.908820	246.444755
1033.059800	243.342657
1035.206409	237.865734
1037.352500	233.155944
1039.498071	228.951049
1041.645048	224.918182
1043.785737	220.153846
1045.929754	219.764336
1048.071331	215.842657
1050.212392	214.313986
1052.354857	214.180420
1054.491043	216.367133
1056.630555	215.009091
1058.765711	217.223776
1060.904192	217.620979
1063.038320	216.087413
1065.171933	217.018182
1067.306952	217.193007
1069.437621	217.654545
1071.569695	219.742657
1073.699340	217.953846
1075.828473	217.312587
1077.957094	215.650350
1080.085204	213.643357
1082.210888	210.312587
1084.336062	209.868531
1086.462640	204.083916
1088.584881	199.065734
1090.708525	199.364336
1092.827836	198.386014
1094.952375	197.681119
1097.070669	196.039161
1099.190368	195.872028
1101.307648	196.674825
1103.424422	195.179021
1105.540689	195.332168
1107.654541	196.835664
1109.769796	197.392308
1111.880729	193.587413
1113.994973	192.093007
1116.104897	191.673427
1118.216225	190.287413
1120.327049	186.634965
1122.433556	182.962238
1124.543372	180.904895
1126.648874	181.011888
1128.755779	177.509091
1130.856469	175.816084
1132.962371	174.570629
1135.063964	176.159441
1137.166960	173.688811
1139.269455	173.091608
1141.365744	172.616783
1143.467239	170.970629
1145.564432	169.508392
1147.661126	168.910490
1149.757323	170.260140
1151.853021	172.781119
1153.948222	173.627972
1156.041026	173.544056
1158.135232	174.483217
1160.223247	177.067832
1162.316460	174.327273
1164.403485	173.930070
1166.493810	172.849650
1168.579846	173.216783
1170.669180	173.027273
1172.752333	171.427972
1174.836889	170.920280
1176.922845	173.348252
1179.004520	172.985315
1181.087597	174.883217
1183.168288	174.820979
1185.248487	175.359441
1187.328195	174.019580
1189.407412	172.791608
1191.484247	170.500699
1193.558701	170.544755
1195.636447	166.448951
1197.709922	161.032867
1199.784798	158.096503
1201.855407	157.683217
1203.927418	154.341259
1205.997052	157.006993
1208.068087	156.222378
1210.138634	158.886713
1212.204920	158.311888
1214.272607	159.527972
1216.337922	158.958741
1218.404637	160.418182
1220.467096	158.902098
1222.532840	155.054545
1224.594331	156.817483
1226.657221	159.215385
1228.717744	159.476923
1230.777784	160.281119
1232.837340	161.218881
1234.894531	163.108392
1236.951241	164.081119
1239.005588	165.446154
1241.063215	162.160839
1243.118480	162.602797
1245.169504	163.753147
1247.221928	161.138462
1249.273873	161.007692
1251.323458	159.607692
1253.372565	156.490210
1255.421194	153.081818
1257.469344	152.142657
1259.517016	147.524476
1261.560457	149.070629
1263.607173	148.772727
1265.651537	148.020280
1267.695423	152.335664
1269.736959	154.383916
1271.776145	155.541958
1273.818603	154.446154
1275.856839	155.339860
1277.896474	154.694406
1279.935634	152.674126
1281.970576	150.878322
1284.006916	148.555245
1286.040911	151.367133
1288.076305	153.168531
1290.107485	154.684615
1292.140064	157.874825
1294.172170	160.010490
1296.201936	162.837063
1298.233100	160.392308
1300.260056	160.635664
1302.288410	159.237063
1304.312560	157.244755
1306.339974	154.328671
1308.363187	152.903497
1310.387796	151.411888
1312.410072	154.265734
1314.433745	156.911888
1316.455085	156.618881
1318.475957	157.393007
1320.496363	157.078322
1322.512574	156.213986
1324.530184	157.811888
1326.545465	157.555245
1328.564005	157.058741
1330.578355	154.080420
1332.590380	151.069930
1334.605662	147.628671
1336.616759	147.790909
1338.629253	145.795804
1340.637564	144.795105
1342.649131	145.420979
1344.654658	145.739161
1346.663441	149.191608
1348.668046	152.022378
1350.675905	153.467832
1352.683302	154.160839
1354.684668	152.954545
1356.687431	151.561538
1358.689733	150.721678
1360.691576	151.141958
1362.692960	151.358042
1364.692029	151.995105
1366.690640	149.522378
1368.688793	147.944056
1370.686488	149.639161
1372.680019	150.242657
1374.674947	148.976224
1376.669418	148.634266
1378.663432	147.823077
1380.655139	147.417483
1382.646390	146.176224
1384.635336	146.968531
1386.625677	146.975524
1388.615563	144.531469
1390.603146	143.101399
1392.590275	143.985315
1394.575102	144.302098
1396.561323	145.346154
1398.545245	145.572727
1400.528714	146.539161
1402.511731	147.353846
1404.492450	148.908392
1406.474563	148.430070
1408.454379	149.791608
1410.433745	148.516084
1412.408971	148.049650
1414.387437	147.371329
1416.363609	149.009091
1418.339331	147.802797
1420.314604	151.425175
1422.287586	153.591608
1424.260120	155.752448
1426.232207	158.430070
1428.203845	159.304196
1430.171355	157.348252
1432.143940	155.340559
1434.108718	152.194406
1436.078569	152.804895
1438.044295	149.111888
1440.011415	150.487413
1441.976250	147.707692
1443.936967	150.759441
1445.902751	149.146154
1447.862580	150.730769
1449.823802	151.545455
1451.786417	154.238462
1453.744917	153.627273
1455.702975	151.792308
1457.660590	152.456643
1459.617764	155.461538
1461.572662	155.964336
1463.528952	158.253147
1465.482968	157.534965
1467.436544	158.855245
1469.387847	155.637063
1471.340542	155.282517
1473.290966	154.134266
1475.240951	154.639860
1477.190496	150.736364
1479.137773	148.525874
1481.082783	148.799301
1483.029184	149.923077
1484.975149	150.860839
1486.920675	150.839860
1488.863937	153.530070
1490.806762	154.054545
1492.747324	151.265734
1494.689277	151.395105
1496.628969	152.888112
1498.568225	153.507692
1500.507047	152.304895
1502.443608	152.451748
1504.381561	150.260140
1506.317256	149.794406
1508.252517	150.038462
1510.185521	149.824476
1512.118093	152.009091
1514.050233	150.850350
1515.981941	149.539161
1517.911395	149.602098
1519.842240	150.259441
1521.772654	149.610490
1523.698995	145.594406
1525.626726	146.475524
1527.552207	146.718182
1529.477259	147.919580
1531.401882	150.276923
1533.326076	147.027972
1535.248023	149.607692
1537.171359	150.900699
1539.092450	153.344056
1541.011296	153.540559
1542.931532	153.621678
1544.849524	154.399301
1546.767090	154.590210
1548.682414	157.473427
1550.599128	157.627273
1552.511787	155.461538
1554.427650	154.365734
1556.341273	149.137063
1558.252659	151.089510
1560.165433	151.962937
1562.074158	150.106993
1563.984273	148.788112
1565.893964	145.284615
1567.803231	148.220979
1569.710265	146.953846
1571.615066	147.018182
1573.521256	146.279720
1575.425214	144.662937
1577.328752	145.504895
1579.231868	144.407692
1581.132756	148.177622
1583.035031	151.539161
1584.935079	150.400699
1586.836515	151.657343
1588.733916	150.992308
1590.630899	150.744755
1592.527464	146.633566
1594.425417	147.044056
1596.317535	144.369231
1598.212846	143.474126
1600.107740	144.065734
1602.000412	143.996503
1603.892668	144.472028
1605.782704	146.342657
1607.672324	144.304895
1609.561529	145.742657
1611.450318	145.088811
1613.336891	142.232168
1615.224850	141.720280
1617.108793	142.354545
1618.994124	140.911888
1620.879040	141.826573
1622.761744	143.335664
1624.645833	143.805594
1626.525912	141.506294
1628.407377	142.547552
1630.286632	142.475524
1632.167273	142.097203
1634.042110	142.864336
1635.921929	144.392308
1637.797742	142.950350
1639.673145	142.694406
1641.549935	137.106993
1643.420927	142.993007
1645.295101	149.086014
1647.165277	151.420280
1649.038633	153.162937
1650.909786	157.016783
1652.778737	158.561538
1654.649074	157.995105
1656.515417	157.230769
1658.383146	156.361538
1660.248677	150.506294
1662.115592	145.597902
1663.978519	138.295804
1665.842831	143.051049
1667.704947	140.386014
1669.566659	136.879720
1671.429755	136.861538
1673.290657	138.281119
1675.149365	138.593706
1677.007670	137.690909
1678.867360	136.818182
1680.721283	142.290909
1682.578378	140.948252
1684.435071	144.341259
1686.287788	145.000000
1688.143676	146.940559
1689.995589	144.841259
1691.847102	143.022378
1693.698215	141.903497
1695.548926	140.702797
1697.399237	137.109091
1699.247364	134.511189
1701.096874	132.750350
1702.940636	134.206993
1704.789348	133.616783
1706.632313	138.152448
1708.478444	138.097203
1710.320614	139.769231
1712.165948	138.930769
1714.005542	140.193706
1715.846520	138.593706
1717.688881	136.975524
1719.527286	134.177622
1721.367074	134.075524
1723.204687	133.871329
1725.041904	135.469231
1726.876948	138.577622
1728.713375	141.248951
1730.547630	142.688811
1732.381490	143.425874
1734.214957	144.628671
1736.044477	145.460839
1737.877156	141.468531
1739.705891	140.335664
1741.537784	137.972028
1743.365734	137.536364
1745.193292	135.572727
1747.020458	137.219580
1748.847233	139.032867
1750.673617	138.754545
1752.496064	137.357343
1754.321665	134.909790
1756.143332	136.448252
1757.966381	136.196503
1759.787269	135.537762
1761.607767	136.988811
1763.429647	134.094406
1765.245827	136.516084
1767.065159	138.930070
1768.880564	145.522378
1770.699119	143.815385
1772.513749	143.145455
1774.327993	139.858042
1776.141849	139.037063
1777.955319	139.739161
1779.766636	136.089510
1781.579334	136.237063
1783.391645	133.339860
1785.200039	131.346154
1787.009814	134.905594
1788.815673	136.867133
1790.624679	138.168531
1792.429771	136.122378
1794.236243	137.908392
1796.042332	136.293706
1797.844511	141.287413
1799.649833	140.082517
1801.451247	140.026573
1803.254041	142.962238
1805.052929	138.405594
1806.853198	139.440559
1808.653085	139.141958
1810.450831	136.732867
1812.248196	135.497203
1814.045180	134.048951
1815.841784	131.918881
1817.636249	133.568531
1819.432093	136.075524
1821.222283	134.067133
1823.017369	136.425175
1824.806802	136.069231
1826.599372	134.277622
1828.389807	135.683916
1830.178108	135.070629
1831.969544	130.920280
1833.755334	132.022378
1835.542504	131.502797
1837.327542	130.132168
1839.115714	132.744755
1840.900000	130.968531
1842.682157	130.235664
1844.465692	131.272028
1846.247099	131.683916
1848.029885	133.276923
1849.808791	133.025175
1851.589075	132.822378
1853.367233	131.754545
1855.146770	134.141958
1856.924182	132.699301
1858.699470	132.578322
1860.476137	132.255944
1862.250681	131.509091
1864.026602	132.211888
1865.796904	131.574825
1867.570332	129.948252
1869.341641	129.123776
1871.112580	128.239860
1872.884895	127.174126
1874.651598	127.769231
1876.421425	127.868531
1878.187389	132.734965
1879.956477	137.607692
1881.721703	138.468531
1883.486561	140.378322
1885.252795	141.406294
1887.015171	137.951049
1888.777180	136.052448
1890.538822	133.137762
1892.300096	129.533566
1894.061003	126.366434
1895.821544	122.131469
1897.579975	121.975524
1899.338041	125.364336
1901.093998	128.277622
1902.851333	127.872727
1904.608301	131.392308
1906.363164	133.288112
1908.115921	134.025874
1909.868315	135.473427
1911.622084	134.720280
1913.373750	133.838462
1915.123314	134.141259
1916.874254	130.953846
1918.624830	130.786014
1920.371568	128.737063
1922.119681	129.290210
1923.865695	127.279720
1925.613085	128.032867
1927.358376	127.423776
1929.101570	129.441259
1930.846140	128.311189
1932.588613	129.258741
1934.330726	130.115385
1936.072479	130.579720
1937.813873	129.574126
1939.553173	130.117483
1941.292114	129.122378
1943.030696	128.361538
1944.767186	127.916783
1946.503319	127.567832
1948.240826	128.938462
1949.974512	129.762937
1951.709571	129.935664
1953.442543	130.181818
1955.175158	132.057343
1956.907416	130.545455
1958.639318	127.732867
1960.369134	130.780420
1962.096866	130.953846
1963.825971	131.032168
1965.554722	129.810490
1967.281389	128.290909
1969.007702	128.380420
1970.735388	128.416084
1972.457538	127.951049
1974.182789	129.623077
1975.904234	132.835664
1977.628778	134.482517
1979.351243	134.773427
1981.069904	137.456643
1982.791664	137.153147
1984.509622	136.858741
1986.228954	135.245455
1987.944485	135.782517
1989.664838	133.551049
1991.381391	130.686014
1993.094149	128.080420
1994.810002	131.266434
1996.523782	131.206993
1998.237213	134.200699
1999.948573	132.948252
2001.661306	130.814685
2003.370247	131.290210
2005.082282	131.572727
2006.788807	128.993007
2008.498425	131.564336
2010.205975	131.581818
2011.913178	131.558042
2013.618315	133.513287
2015.323105	136.767133
2017.029267	136.673427
2018.731647	138.263636
2020.435399	135.199301
2022.137087	136.983916
2023.838431	138.489510
2025.539429	139.560140
2027.238367	137.123077
2028.938675	139.473427
2030.635209	138.159441
2032.333114	134.286713
2034.028961	133.185315
2035.727892	132.867832
2037.421338	129.790909
2039.116156	129.388811
2040.810630	128.376224
2042.501336	133.537063
2044.195126	133.988112
2045.885149	137.455245
2047.576543	134.718182
2049.265884	134.195105
2050.956595	130.192308
2052.643544	127.141259
2054.330152	127.395105
2056.018131	126.020979
2057.702350	126.358042
2059.387939	127.727972
2061.073189	128.079021
2062.756391	127.625874
2064.440962	126.249650
2066.120071	129.600000
2067.803965	127.625874
2069.482399	130.911189
2071.163909	130.948252
2072.841669	132.911888
2074.519091	133.614685
2076.197884	132.812587
2077.874633	135.630070
2079.549341	136.937063
2081.225418	135.642657
2082.899455	132.809790
2084.573156	132.445455
2086.246522	132.038462
2087.917850	130.809790
2089.588843	133.380420
2091.259502	131.492308
2092.929826	130.551049
2094.599817	129.830769
2096.267772	132.178322
2097.935394	134.101399
2099.600982	136.724476
2101.267938	135.760839
2102.932861	134.288112
2104.597451	132.511888
2106.260010	132.572727
2107.923937	130.717483
2109.585834	130.994406
2111.247399	127.713287
2112.908634	128.260839
2114.567839	129.737762
2116.226715	132.553846
2117.885260	131.741958
2119.543476	132.871329
2121.197968	130.458042
2122.855525	128.522378
2124.512753	124.583217
2126.166259	127.485315
2127.821133	124.800699
2129.472289	127.435664
2131.126506	126.889510
2132.777007	126.834965
2134.428874	128.466434
2136.075333	131.774126
2137.726547	131.639860
2139.374047	131.047552
2141.022914	130.317483
2142.669763	130.116084
2144.316285	129.579021
2145.962482	133.418881
2147.604971	132.500000
2149.250518	134.513287
2150.892358	133.456643
2152.537255	130.304196
2154.178447	131.163636
2155.819315	131.565035
2157.459860	130.568531
2159.098392	129.772727
2160.738290	130.766434
2162.374488	132.338462
2164.012052	132.812587
2165.649293	132.692308
2167.284525	133.047552
2168.919436	133.895105
2170.554025	131.535664
2172.188292	129.657343
2173.818867	128.529371
2175.452492	128.951049
2177.082426	128.704196
2178.713725	129.355245
2180.343020	128.476923
2181.971994	131.033566
2183.600650	129.686014
2185.228986	128.463636
2186.855319	130.061538
2188.481334	129.066434
2190.105348	124.668531
2191.730726	122.278322
2193.354105	121.165035
2194.978847	123.234965
2196.599909	121.106294
2198.220654	120.983217
2199.842764	119.639860
2201.462876	122.339161
2203.080991	121.676923
2204.698791	124.831469
2206.316276	127.913287
2207.933445	126.511189
2209.550299	121.988112
2211.166838	122.680420
2212.781383	123.147552
2214.393936	123.850350
2216.007853	120.787413
2217.619779	117.667133
2219.233068	118.260839
2220.844367	119.155245
2222.453676	118.779021
2224.064349	124.046853
2225.673033	125.663636
2227.281405	124.960140
2228.887789	125.287413
2230.495537	126.807692
2232.101298	126.109091
2233.706748	125.662238
2235.310214	124.449650
2236.915042	123.653147
2238.517886	124.998601
2240.118747	124.905594
2241.720971	123.086014
2243.321212	128.144056
2244.922816	127.713287
2246.520768	126.836364
2248.120082	126.843357
2249.717416	125.910490
2251.314442	126.634266
2252.912829	126.735664
2254.507568	127.442657
2256.100331	129.007692
2257.694455	126.355245
2259.289941	125.160140
2260.881783	123.003497
2262.473318	123.155245
2264.066214	119.833566
2265.653801	117.246853
2267.246085	117.297203
2268.833061	119.224476
2270.423066	120.728671
2272.007766	120.255245
2273.597160	121.147552
2275.181251	122.140559
2276.766704	120.667832
2278.350187	120.518182
2279.936697	120.202098
2281.519573	120.173427
2283.102145	120.443357
2284.684414	120.726573
2286.263054	123.722378
2287.844717	125.884615
2289.422752	127.368531
2291.003810	126.490210
2292.581242	125.679720
2294.156710	122.564336
2295.735199	121.316084
2297.310065	120.437063
2298.884630	118.526573
2300.458895	115.934965
2302.032859	115.393706
2303.606523	116.097902
2305.179886	115.189510
2306.749631	116.451049
2308.319077	118.798601
2309.891542	118.499301
2311.458731	117.220979
2313.028939	114.028671
2314.595532	116.367832
2316.163485	118.051748
2317.729483	117.509790
2319.295182	117.248252
2320.860585	120.065035
2322.424034	125.300699
2323.988841	130.177622
2325.550041	135.032867
2327.114255	137.140559
2328.673208	137.280420
2330.235174	134.985315
2331.795190	129.918881
2333.354910	128.306294
2334.912681	122.797203
2336.470158	116.020979
2338.027339	114.195804
2339.582574	112.847552
2341.137514	116.434266
2342.692161	117.972028
2344.246514	119.616783
2345.800573	120.204895
2347.354338	122.149650
2348.906160	122.528671
2350.456038	122.709790
2352.008924	122.352448
2353.556568	120.177622
2355.107219	117.431469
2356.654280	118.415385
2358.202698	115.473427
2359.750824	115.990909
2361.295363	116.308392
2362.841259	118.015385
2364.385216	115.655944
2365.930531	118.535664
2367.472261	119.681818
2369.015348	122.279720
2370.556500	121.860140
2372.097362	120.986713
2373.637935	118.650350
2375.178219	116.906294
2376.718214	114.675524
2378.254630	114.400699
2379.794048	114.099301
2381.329889	113.235664
2382.867086	113.941259
2384.400709	116.672028
2385.937331	118.008392
2387.472022	118.203497
2389.004784	118.973427
2390.537260	120.115385
2392.067807	119.269231
2393.601352	119.192308
2395.129686	119.169930
2396.659376	118.250350
2398.188781	119.476224
2399.717900	119.374825
2401.246735	120.602098
2402.770365	119.176923
2404.298630	117.597203
2405.821692	114.446853
2407.349388	113.710490
2408.870245	113.196503
2410.395735	112.024476
2411.917664	113.176224
2413.440949	111.265734
2414.962313	113.408392
2416.481757	114.712587
2418.002556	115.538462
2419.521436	117.344755
2421.040034	119.187413
2422.556715	120.641259
2424.074750	122.180420
2425.592504	122.016783
2427.106707	123.773427
2428.620629	122.341259
2430.134272	123.069930
2431.649268	119.745455
2433.160716	120.530070
2434.673519	117.884615
2436.184409	117.529371
2437.695019	116.102098
2439.203718	117.231469
2440.715404	116.769930
2442.223546	116.598601
2443.731409	114.137063
2445.238995	114.439860
2446.743040	111.505594
2448.250071	111.220979
2449.755193	110.290210
2451.260038	109.396503
2452.762976	108.516783
2454.265637	107.030769
2455.768022	105.013287
2457.268502	106.786014
2458.770335	107.227972
2460.270264	108.825175
2461.769917	107.823776
2463.269295	107.778322
2464.766769	106.920280
2466.262343	109.634266
2467.760896	112.484615
2469.255920	110.959441
2470.752298	113.462937
2472.245149	112.900000
2473.739352	112.408392
2475.233282	113.732168
2476.723689	113.620280
2478.217072	112.341958
2479.708558	109.027273
2481.198147	102.309790
2482.687464	101.896503
2484.174886	104.944755
2485.665283	105.486014
2487.152161	105.718881
2488.640391	109.188811
2490.125105	109.683916
2491.609548	112.153846
2493.095343	113.760839
2494.579245	114.937063
2496.064499	113.352448
2497.544619	110.925874
2499.027711	106.169231
2500.508913	108.460140
2501.989846	110.031469
2503.468890	108.151748
2504.947666	107.981119
2506.426172	106.464336
2507.904411	105.716084
2509.382381	107.075524
2510.856847	106.510490
2512.334281	104.567832
2513.808212	102.101399
2515.283494	102.323776
2516.758508	101.782517
2518.230021	102.436364
2519.702885	104.656643
2521.173865	103.544755
2522.646196	103.560839
2524.113414	103.144056
2525.583597	102.795105
2527.051900	103.941259
2528.519938	102.786713
2529.987711	100.304895
2531.455219	101.361538
2532.922462	103.181818
2534.386213	103.036364
2535.851315	102.880420
2537.314538	104.514685
2538.779112	102.341958
2540.240196	103.276923
2541.702630	103.912587
2543.164801	104.817483
2544.623486	106.471329
2546.086743	108.823776
2547.544903	109.706993
2549.004412	113.423776
2550.458828	112.396503
2551.917813	110.758741
2553.374927	108.967832
2554.830170	108.105594
2556.285152	105.463636
2557.738264	102.620280
2559.192725	99.233566
2560.645317	100.560839
2562.097649	100.297203
2563.548113	99.307692
2565.001533	98.160140
2566.449871	99.700000
2567.901165	97.604196
2569.350592	98.884615
2570.796548	99.267832
2572.245458	101.200000
2573.690897	100.969930
2575.137685	102.677622
2576.582609	104.783217
2578.027276	106.345455
2579.473290	104.932867
2580.915837	104.404895
2582.359732	104.076224
2583.800162	101.988112
2585.241940	102.167832
2586.681857	102.313986
2588.123122	100.587413
2589.560926	99.965035
2591.001679	100.455245
2592.437369	101.531469
2593.876009	101.471329
2595.312792	101.309790
2596.747718	102.188112
2598.185593	102.332168
2599.618410	100.425175
2601.052573	99.320979
2602.484883	100.619580
2603.918539	99.720979
2605.350342	100.212587
2606.781892	99.217483
2608.213188	99.286713
2609.642633	99.274126
2611.071825	102.842657
2612.499166	104.177622
2613.927854	103.814685
2615.356289	102.015385
2616.781277	101.367133
2618.207612	99.437063
2619.632098	98.519580
2621.057930	97.713986
2622.480318	97.454545
2623.904052	97.691608
2625.325940	98.510490
2626.747577	100.680420
2628.167369	102.217483
2629.588507	99.867133
2631.009395	97.178322
2632.426845	95.367133
2633.847234	94.181119
2635.264186	95.714685
2636.680890	85.839860
2638.097345	97.365035
2639.513552	106.716783
2640.929510	118.946154
2642.343628	126.634965
2643.757499	130.091608
2645.169530	128.193706
2646.582906	125.753846
2647.992852	119.497203
2649.405733	111.004895
2650.815187	104.469231
2652.224394	95.578322
2653.631765	82.712587
2655.042070	93.300000
2656.450539	94.522378
2657.857173	98.970629
2659.263562	99.146853
2660.668117	98.553147
2662.074016	98.744056
2663.478082	102.106993
2664.881904	98.002098
2666.285481	96.724476
2667.687226	97.641958
2669.090315	97.998601
2670.489987	98.951748
2671.891001	100.711189
2673.288600	101.608392
2674.689129	99.126573
2676.086243	95.661538
2677.484700	95.023077
2678.881329	94.290909
2680.277716	95.010490
2681.673862	92.839860
2683.068181	92.744755
2684.463843	93.190210
2685.856095	95.458042
2687.249691	97.169231
2688.641462	96.806993
2690.034575	95.016084
2691.425865	92.032867
2692.815332	91.197203
2694.204560	91.125874
2695.593547	91.756643
2696.983877	95.259441
2698.369222	97.266434
2699.757491	96.630769
2701.143940	94.962937
2702.530150	96.328671
2703.916122	96.082517
2705.298695	95.476224
2706.682609	95.065035
2708.066286	92.716084
2709.449725	92.708392
2710.829768	93.267133
2712.211153	92.832168
2713.590722	93.531469
2714.971633	93.049650
2716.350729	94.452448
2717.728010	90.386713
2719.106633	92.067832
2720.483443	90.064336
2721.860017	91.276923
2723.236355	89.121678
2724.610881	87.586014
2725.986748	86.905594
2727.359228	85.728671
2728.734625	83.953147
2730.105060	85.867832
2731.476837	87.015385
2732.848380	88.472727
2734.218114	86.681119
2735.589188	90.241259
2736.958455	89.631469
2738.327488	90.588112
2739.694714	90.408392
2741.061708	90.615385
2742.428469	90.372028
2743.794997	91.864336
2745.159720	95.388112
2746.524212	96.381818
2747.888471	96.785315
2749.252499	97.506993
2750.616294	98.529371
2751.976716	99.755245
2753.340049	98.905594
2754.698439	98.536364
2756.059739	97.936364
2757.417668	97.427273
2758.778507	96.519580
2760.137545	94.301399
2761.493215	88.535664
2762.851793	91.462937
2764.207005	95.224476
2765.561987	98.381818
2766.915172	100.589510
2768.271264	101.987413
2769.623992	102.569930
2770.976491	102.265734
2772.328762	102.032867
2773.682372	98.196503
2775.032620	95.129371
2776.381075	88.658042
2777.732434	85.665035
2779.080434	92.651049
2780.429773	91.162937
2781.777319	93.013986
2783.124638	90.909091
2784.471731	89.934965
2785.817033	87.526573
2787.162109	88.031469
2788.506959	89.724476
2789.851582	89.076224
2791.192854	92.625874
2792.535464	92.538462
2793.877848	94.413986
2795.220008	95.010490
2796.558818	92.379720
2797.900527	92.205594
2799.238889	89.207692
2800.578588	89.408392
2801.916501	85.442657
2803.252630	88.301399
2804.588536	87.658042
2805.925778	89.113986
2807.261237	91.241958
2808.596473	91.936364
2809.929927	93.061538
2811.264717	92.479720
2812.596166	90.182517
2813.930511	89.576923
2815.259958	89.879021
2816.590742	87.869930
2817.921304	84.592308
2819.250087	85.053846
2820.580207	82.502098
2821.908547	82.834266
2823.236667	83.458042
2824.563010	84.006294
2825.890688	84.588112
2827.215034	82.353147
2828.540715	83.072727
2829.864621	84.910490
2831.188308	87.368531
2832.513330	88.118182
2833.835023	91.863636
2835.156496	94.449650
2836.477751	95.245455
2837.798787	95.665035
2839.118051	97.653846
2840.438650	97.616084
2841.757477	93.630769
2843.076086	89.250350
2844.392925	87.388112
2845.709546	85.387413
2847.025949	85.709091
2848.340584	86.051049
2849.656553	86.899301
2850.969202	86.438462
2852.283187	84.671329
2853.596955	84.735664
2854.910506	83.043357
2856.222290	83.571329
2857.532309	81.886014
2858.843661	79.955245
2860.151699	79.602797
2861.461072	80.650350
2862.770229	81.395105
2864.079171	81.904196
2865.386350	83.086713
2866.691765	82.828671
2867.998515	82.254545
2869.303502	81.648252
2870.608276	80.217483
2871.911288	84.559441
2873.217182	85.454545
2874.518220	84.253846
2875.820593	86.937063
2877.121206	87.486014
2878.423153	86.227972
2879.724887	87.476923
2881.023317	89.016084
2882.323080	88.722378
2883.621085	89.167133
2884.918879	87.542657
2886.214917	87.978322
2887.512288	90.828671
2888.807903	89.713986
2890.103307	89.153846
2891.398501	91.364336
2892.690396	89.840559
2893.985168	86.681119
2895.276643	85.483217
2896.569452	82.961538
2897.862049	81.951049
2899.151353	80.893706
2900.441989	81.575524
2901.730874	81.279021
2903.021092	82.237063
2904.308018	80.288112
2905.596276	80.625175
2906.882784	81.574126
2908.169085	79.032867
2909.455177	77.200000
2910.739521	76.538462
2912.026737	77.073427
2913.309126	78.734266
2914.592846	81.330070
2915.874821	84.688811
2917.156589	84.926573
2918.436611	85.857343
2919.719503	85.065734
2921.000650	83.917483
2922.278515	82.820979
2923.559249	81.520979
2924.836702	80.772727
2926.113950	80.451049
2927.389455	79.712587
2928.667828	81.204895
2929.941386	82.495804
2931.217812	82.269930
2932.492497	83.241259
2933.765442	83.439161
2935.039717	85.679720
2936.312253	85.555245
2937.584585	84.461538
2938.853644	84.377622
2940.125567	82.460140
2941.395753	80.274825
2942.665736	79.173427
2943.935515	79.856643
2945.203557	78.620280
2946.469864	77.506993
2947.735968	79.820280
2949.003402	81.490909
2950.269102	84.461538
2951.534599	84.402797
2952.799894	84.578322
2954.061924	85.016783
2955.325285	82.437762
2956.588444	82.242657
2957.849870	81.372028
2959.112626	81.318881
2960.373651	79.588811
2961.632945	75.525874
2962.892038	72.864336
2964.150931	72.830769
2965.409624	72.567832
2966.668117	74.298601
2967.924881	75.467133
2969.181445	77.786014
2970.436282	78.594406
2971.692448	81.530070
2972.945358	80.264336
2974.199598	82.667133
2975.453639	80.897902
2976.705954	78.723077
2977.958071	77.104196
2979.208463	78.467133
2980.461710	78.116783
2981.710180	80.451049
2982.961504	81.857343
2984.209580	82.652448
2985.457458	80.313287
2986.705139	80.491608
2987.952624	79.074825
2989.198387	79.130769
2990.443953	76.657343
2991.690848	75.618881
2992.934497	72.710490
2994.179475	71.714685
2995.421210	71.102098
2996.665796	70.153147
2997.908662	71.396503
2999.148288	70.123776
3000.390765	68.167832
3001.630001	71.820280
3002.870565	72.556643
3004.109412	72.655245
3005.348065	73.245455
3006.585002	73.908392
3007.823266	71.010490
3009.059816	71.800699
3010.296171	73.416783
3011.532333	72.067832
3012.766782	72.067832
3014.001037	71.065734
3015.235099	69.037762
3016.467449	72.493706
3017.698087	72.588112
3018.931571	74.838462
3020.163343	75.383916
3021.393405	77.632867
3022.623275	78.476224
3023.851435	80.036364
3025.080921	81.455245
3026.308699	78.283916
3027.536285	78.916783
3028.765197	77.358741
3029.989367	75.695804
3031.216380	76.809790
3032.440170	73.260140
3033.665285	74.057343
3034.888694	72.095105
3036.111914	74.960140
3037.333428	74.417483
3038.557783	74.369930
3039.777403	75.925874
3040.998348	74.686014
3042.219105	76.351748
3043.438158	75.944056
3044.658537	75.687413
3045.875699	76.219580
3047.094186	74.367133
3048.310972	76.238462
3049.527569	74.020979
3050.743979	74.241958
3051.957175	71.523077
3053.173209	73.076923
3054.386031	72.283217
3055.601690	70.369930
3056.812626	68.312587
3058.024887	70.896503
3059.236962	71.339161
3060.448850	73.043357
3061.659040	72.612587
3062.869045	72.238811
3064.078863	70.479021
3065.286985	69.497552
3066.494921	67.418881
3067.701163	68.526224
3068.908728	67.507692
3070.114600	64.647902
3071.320286	63.222378
3072.525787	66.567483
3073.729596	69.185315
3074.934728	68.018531
3076.138167	66.166434
3077.339914	67.870979
3078.541478	68.365734
3079.742858	68.571329
3080.944054	70.385315
3082.143560	70.425175
3083.342882	70.360140
3084.543528	68.711888
3085.742485	68.895105
3086.938246	71.172028
3088.136837	71.983217
3089.332234	69.335664
3090.528954	67.950350
3091.722482	69.830070
3092.918839	68.224476
3094.113508	67.133566
3095.304987	66.986014
3096.500797	65.211888
3097.691914	64.876224
3098.884353	63.371329
3100.073605	63.791608
3101.265683	62.576224
3102.456076	63.430769
3103.643284	64.034965
3104.831815	66.514685
3106.021668	69.902098
3107.208336	67.823077
3108.394825	69.092308
3109.581134	71.047552
3110.768765	71.997203
3111.953215	68.990210
3113.135984	66.612587
3114.321577	64.355245
3115.505489	61.983916
3116.687723	62.083217
3117.869779	62.097902
3119.051656	63.810490
3120.233355	62.823077
3121.413376	59.183916
3122.591721	59.497203
3123.772887	57.548252
3124.950877	58.655944
3126.128690	56.681818
3127.306326	58.160839
3128.482287	59.088811
3129.658072	62.941958
3130.835177	65.339860
3132.010608	68.266434
3133.184366	71.286014
3134.356452	72.044056
3135.529858	70.853147
3136.703089	68.685315
3137.874647	64.583217
3139.047527	66.690210
3140.217239	63.429371
3141.388272	60.632168
3142.557634	58.381119
3143.725327	57.494406
3144.895835	55.386014
3146.061684	54.506993
3147.231843	56.197902
3148.397344	55.027273
3149.562672	56.981119
3150.727826	57.812587
3151.892806	57.776224
3153.059107	62.372727
3154.220754	61.965734
3155.383722	62.425874
3156.546516	62.544056
3157.709138	59.880420
3158.870095	59.146853
3160.030879	58.731469
3161.191491	58.416084
3162.350440	56.016783
3163.509216	56.358741
3164.667821	56.008392
3165.826254	55.755245
3166.984515	58.399301
3168.141114	57.895105
3169.296052	57.057343
3170.452309	55.545455
3171.606906	55.599301
3172.761331	58.331469
3173.914097	59.240559
3175.066693	59.367832
3176.219118	60.076923
3177.371374	60.760140
3178.523460	63.343357
3179.672399	62.962937
3180.824145	61.146853
3181.974234	58.185315
3183.122665	54.333566
3184.270928	53.456643
3185.419021	53.066434
3186.566946	53.202797
3187.713216	53.520979
3188.859317	52.460839
3190.003763	56.952448
3191.148042	59.636364
3192.292153	62.393706
3193.437582	60.760839
3194.579872	60.334965
3195.721994	59.083217
3196.863950	58.057343
3198.005738	58.602797
3199.147359	59.260839
3200.285844	57.957343
3201.425647	58.413287
3202.566768	59.023077
3203.704754	64.257343
3204.841091	65.407692
3205.977262	65.598601
3207.114751	65.302098
3208.250591	65.590909
3209.387747	62.954545
3210.520291	61.332168
3211.657117	56.196503
3212.789331	54.235664
3213.922863	48.696503
3215.056229	52.576923
3216.186468	53.518182
3217.319505	55.315385
3218.449416	53.834965
3219.580644	55.131469
3220.708746	55.640559
3221.839645	57.511189
3222.968901	57.648252
3224.096512	57.418881
3225.221002	55.476224
3226.349767	56.732867
3227.475410	55.377622
3228.600890	60.018182
3229.724729	59.179021
3230.851362	59.572028
3231.973398	58.082517
3233.096750	59.253846
3234.219940	57.109790
3235.342968	57.864336
3236.464356	55.860140
3237.585583	54.730769
3238.705171	52.223077
3239.824598	52.290210
3240.942387	51.615385
3242.062969	52.447552
3243.180436	53.048252
3244.297744	54.795804
3245.414890	57.551748
3246.530401	58.311888
3247.647227	57.423077
3248.760942	59.240559
3249.877448	57.050350
3250.992318	55.250350
3252.104080	55.074825
3253.215683	54.800000
3254.328600	51.209790
3255.441359	50.593706
3256.551011	52.127273
3257.661978	53.411189
3258.772786	54.266434
3259.881962	51.713986
3260.989507	57.320979
3262.098367	65.095804
3263.207068	66.649650
3264.312667	69.710490
3265.419581	70.651049
3266.524865	69.345455
3267.631463	68.349650
3268.734961	69.381119
3269.839773	68.070629
3270.944428	63.365035
3272.045984	57.192308
3273.147385	52.363636
3274.250099	57.892308
3275.352656	60.351049
3276.452118	59.090210
3277.554362	58.865035
3278.653512	57.412587
3279.751036	59.014685
3280.848405	59.752448
3281.948557	57.291608
3283.045615	56.100699
3284.142518	54.311888
3285.239267	54.125175
3286.331456	51.772727
3287.427895	55.106294
3288.522711	54.111888
3289.617372	53.162238
3290.710412	55.292308
3291.803298	55.292308
3292.894563	53.339161
3293.987141	52.702797
3295.078098	51.125175
3296.167437	51.381818
3297.256621	52.051748
3298.347119	54.260140
3299.434532	53.251748
3300.521793	54.133566
3301.610366	51.502098
3302.698786	50.843357
3303.782659	52.276224
3304.870774	49.648252
3305.955808	48.637762
3307.039226	49.501399
3308.123955	50.357343
3309.207070	50.422378
3310.291496	51.212587
3311.372844	51.106294
3312.455504	50.721678
3313.536550	50.175524
3314.617445	48.901399
3315.696727	47.556643
3316.775858	47.285315
3317.856300	47.267832
3318.933669	48.993007
3320.012349	48.316783
3321.089417	48.503497
3322.166335	47.228671
3323.241642	45.751748
3324.316800	43.700000
3325.393270	43.344755
3326.466668	44.026573
3327.539918	44.136364
3328.614479	41.295804
3329.687430	39.828671
3330.758774	40.563636
3331.831428	40.105594
3332.901015	39.400000
3333.971913	39.426573
3335.041204	40.820280
3336.111806	41.576923
3337.180801	43.792308
3338.248190	45.500699
3339.313974	44.953846
3340.383984	47.661538
3341.450931	46.871329
3342.514816	47.302797
3343.581469	48.154545
3344.646517	45.716084
3345.709963	46.010490
3346.773261	44.463636
3347.836414	43.178322
3348.899420	39.955944
3349.962279	41.755944
3351.023537	40.830070
3352.081738	40.113287
3353.144160	42.836364
3354.203525	42.228671
3355.262745	43.802098
3356.323275	41.537762
3357.379295	39.266434
3358.438080	38.331469
3359.492357	34.881119
3360.549397	35.017483
3361.604840	34.401399
3362.661591	36.490210
3363.716745	39.531469
3364.770301	42.453147
3365.822260	44.464336
3366.876981	46.564336
3367.928653	49.186713
3368.980182	45.846154
3370.033020	43.817483
3371.082810	40.964336
3372.133908	36.442657
3373.181961	35.482517
3374.232774	32.894406
3375.280541	33.080420
3376.328166	35.679720
3377.375649	35.423776
3378.421538	39.190210
3379.468736	40.581119
3380.512892	44.604895
3381.559806	43.039860
3382.605128	40.938462
3383.647410	39.103497
3384.689550	38.315385
3385.732998	36.039860
3386.776306	35.987413
3387.818023	35.832168
3388.859599	36.773427
3389.901035	36.097203
3390.940881	38.955245
3391.979140	38.591608
3393.018706	41.741958
3394.058131	40.860140
3395.095970	41.195804
3396.132221	41.480420
3397.168332	41.880420
3398.205751	37.213986
3399.240137	36.140559
3400.275830	32.439860
3401.311384	32.553846
3402.343907	30.038462
3403.379183	32.979021
3404.411428	31.554545
3405.443535	33.041958
3406.474058	34.713986
3407.505889	35.234266
3408.537580	37.134965
3409.566245	35.414685
3410.594771	35.108392
3411.624605	35.183217
3412.654300	35.456643
3413.680970	38.094406
3414.708947	38.198601
3415.733899	41.407692
3416.761601	38.615385
3417.786280	37.434266
3418.812265	38.106294
3419.836670	35.135664
3420.860939	33.893706
3421.883629	30.925175
3422.906183	32.323077
3423.930043	29.940559
3424.950883	29.478322
3425.971588	28.974326
3426.993598	29.074401
3428.012590	29.977323
3429.031447	31.881868
3430.051609	34.986813
3431.068755	39.490934
