-118.448435	-0.200000
-115.778835	11.700000
-113.112170	-15.900000
-110.446257	11.800000
-107.783276	3.000000
-105.118866	5.300000
-102.457386	3.800000
-99.794476	-2.500000
-97.136674	-9.500000
-94.477441	-2.300000
-91.818958	-4.500000
-89.163398	0.600000
-86.506410	1.400000
-83.854519	-10.800000
-81.201199	-10.700000
-78.550799	-4.000000
-75.898969	8.900000
-73.252230	1.900000
-70.604061	8.500000
-67.956636	8.600000
-65.312124	19.000000
-62.666184	10.500000
-60.025325	7.100000
-57.383037	8.500000
-54.743657	4.000000
-52.102849	-5.500000
-49.462781	-10.500000
-46.827785	-9.500000
-44.191360	-15.800000
-41.557839	9.800000
-38.922889	15.400000
-36.293004	14.400000
-33.659527	1.400000
-31.031112	11.400000
-28.403430	-5.300000
-25.774321	22.200000
-23.150268	15.700000
-20.522626	-6.500000
-17.900037	13.700000
-15.278180	29.500000
-12.657053	25.900000
-10.036656	93.200000
-7.419147	328.100000
-4.800210	941.500000
-2.184159	2301.100000
0.431164	3033.400000
3.045760	1900.300000
5.657473	254.300000
8.270615	37.400000
10.878723	5.200000
13.490413	5.900000
16.097072	20.400000
18.705159	6.300000
21.312522	-1.500000
23.914860	-9.800000
26.520776	19.900000
29.121670	3.500000
31.723992	22.100000
34.321297	0.900000
36.922177	5.500000
39.518043	18.900000
42.115336	-5.700000
44.711910	-6.000000
47.303475	6.200000
49.896468	4.000000
52.486600	-3.700000
55.078160	-19.300000
57.666860	-19.000000
60.256987	-12.000000
62.842116	-8.500000
65.428671	-4.600000
68.014513	-2.000000
70.597501	4.000000
73.181915	5.300000
75.759201	0.500000
78.340053	-2.700000
80.918056	-0.600000
83.495349	6.100000
86.074068	6.200000
88.647806	1.000000
91.222970	19.400000
93.795291	0.500000
96.366904	-8.800000
98.935677	22.100000
101.505877	17.700000
104.073239	6.800000
106.642026	5.500000
109.207977	2.800000
111.771093	10.700000
114.337765	5.300000
116.895216	11.300000
119.458352	29.300000
122.016529	2.000000
124.578259	48.500000
127.135034	53.700000
129.693234	49.000000
132.246482	75.300000
134.799031	124.000000
137.355131	194.300000
139.906284	249.700000
142.456738	316.700000
145.006496	367.700000
147.553434	391.900000
150.099676	415.600000
152.647344	439.400000
155.194317	447.600000
157.736353	458.800000
160.277696	449.300000
162.818346	441.000000
165.360422	451.600000
167.899687	418.500000
170.436142	438.500000
172.971907	469.500000
175.509097	413.300000
178.045595	424.700000
180.579288	443.900000
183.110178	418.200000
185.640379	455.700000
188.172005	427.200000
190.700830	428.400000
193.226856	437.700000
195.752197	434.100000
198.278962	442.100000
200.802930	442.100000
203.326214	442.200000
205.848813	444.000000
208.368619	466.500000
210.887742	425.200000
213.406182	428.400000
215.926046	437.000000
218.438909	434.600000
220.955303	420.900000
223.471015	438.600000
225.981838	430.000000
228.494085	454.900000
231.003549	449.100000
233.512335	423.200000
236.020443	447.900000
238.529974	425.900000
241.034625	431.500000
243.538601	450.500000
246.044000	446.700000
248.544524	456.800000
251.048571	441.000000
253.545648	449.300000
256.046247	461.100000
258.544075	449.100000
261.041230	470.400000
263.537712	470.600000
266.029331	497.300000
268.524470	490.000000
271.016843	526.200000
273.508545	523.000000
275.997483	551.800000
278.487846	557.000000
280.975447	589.500000
283.460288	630.800000
285.948643	730.400000
288.430059	868.800000
290.914989	1140.900000
293.395074	1704.600000
295.878671	2595.200000
298.357425	3614.800000
300.837603	3778.100000
303.315028	2760.900000
305.791790	1601.600000
308.267889	1036.200000
310.741239	823.000000
313.213927	690.900000
315.685954	593.200000
318.157320	619.700000
320.625942	579.500000
323.093904	552.000000
325.563289	550.700000
328.027850	522.900000
330.495916	500.700000
332.959162	529.200000
335.421750	479.400000
337.883682	483.800000
340.344957	506.300000
342.803498	507.100000
345.263461	520.400000
347.720691	498.400000
350.177267	519.700000
352.633189	509.900000
355.086382	486.800000
357.540996	508.500000
359.990809	507.500000
362.444119	487.300000
364.892629	493.800000
367.340489	479.500000
369.789770	483.300000
372.234258	508.700000
374.680168	497.100000
377.125429	499.000000
379.567970	472.300000
382.009864	467.600000
384.451111	466.000000
386.889642	494.300000
389.329595	476.600000
391.766834	444.700000
394.201361	475.600000
396.639376	461.900000
399.072614	473.700000
401.507274	485.100000
403.937160	484.300000
406.370532	486.100000
408.799134	479.900000
411.227095	496.200000
413.656476	469.700000
416.081092	481.700000
418.507130	466.800000
420.932527	504.400000
423.357284	478.500000
425.777283	452.300000
428.198703	514.900000
430.617426	467.700000
433.037570	483.500000
435.455019	494.900000
437.873888	474.300000
440.290064	480.400000
442.701493	492.700000
445.116398	501.300000
447.528613	489.400000
449.940194	498.300000
452.351141	511.900000
454.759402	490.900000
457.167030	498.100000
459.574027	500.000000
461.980391	503.100000
464.384073	498.900000
466.787125	521.100000
469.189547	505.400000
471.591340	516.500000
473.990454	501.300000
476.390988	496.500000
478.790893	459.500000
481.186075	502.800000
483.584724	507.400000
485.978653	482.300000
488.371956	486.800000
490.764633	490.300000
493.156685	487.500000
495.550156	472.500000
497.938914	445.400000
500.325006	446.700000
502.712518	462.600000
505.099406	448.700000
507.483631	421.100000
509.869275	455.900000
512.252256	449.500000
514.632577	424.300000
517.014317	435.800000
519.393398	447.200000
521.773898	447.900000
524.151740	434.900000
526.526927	415.600000
528.901496	449.200000
531.277484	436.800000
533.650818	457.200000
536.025570	432.100000
538.395637	450.900000
540.765088	441.200000
543.135957	473.600000
545.502146	460.000000
547.869753	467.600000
550.234714	458.300000
552.599062	473.100000
554.962798	489.100000
557.327951	478.800000
559.688431	482.800000
562.050330	470.600000
564.409589	505.600000
566.766209	463.300000
569.126274	489.900000
571.479649	473.400000
573.836468	461.600000
576.190651	459.200000
578.544227	471.200000
580.897194	460.800000
583.247530	471.500000
585.599282	481.100000
587.944358	467.900000
590.294898	466.800000
592.638765	442.800000
594.988092	464.000000
597.332772	443.700000
599.674826	440.900000
602.018298	418.700000
604.359147	468.400000
606.699394	426.700000
609.037020	450.800000
611.378081	409.100000
613.714504	436.400000
616.052345	421.400000
618.387567	397.400000
620.720174	428.100000
623.054197	462.500000
625.385607	420.100000
627.716418	411.600000
630.046631	441.400000
632.376246	443.300000
634.701239	404.900000
637.031673	390.400000
639.357485	431.900000
641.680691	395.600000
644.005312	426.300000
646.327329	430.800000
648.648751	434.300000
650.967570	432.400000
653.287805	406.300000
655.607447	441.800000
657.924488	435.400000
660.240937	440.000000
662.554788	427.500000
664.870055	431.000000
667.182725	410.800000
669.496810	424.400000
671.806295	431.500000
674.117196	440.400000
676.425504	415.700000
678.733224	437.600000
681.042359	417.300000
683.346901	443.500000
685.650856	444.500000
687.954226	424.300000
690.259010	446.000000
692.559208	438.000000
694.860820	451.500000
697.161848	442.200000
699.458293	425.300000
701.756154	455.800000
704.053431	437.100000
706.350125	430.400000
708.642243	449.200000
710.937772	420.000000
713.228728	442.100000
715.521098	441.300000
717.810892	404.600000
720.100107	453.000000
722.388741	465.300000
724.674804	422.300000
726.962280	447.700000
729.247186	436.000000
731.531513	432.500000
733.813272	444.300000
736.096445	426.100000
738.379041	432.900000
740.657082	434.700000
742.936536	474.800000
745.215415	442.000000
747.493718	445.900000
749.767472	455.100000
752.042640	452.600000
754.317234	450.300000
756.589268	463.200000
758.862716	456.600000
761.133606	458.200000
763.401940	440.900000
765.671687	469.800000
767.938880	463.600000
770.205502	440.200000
772.471555	438.200000
774.735055	469.200000
776.999969	431.100000
779.264313	439.800000
781.524128	473.000000
783.785356	443.100000
786.046015	430.100000
788.304129	481.700000
790.559698	466.000000
792.818658	461.200000
795.071119	472.700000
797.328947	463.700000
799.582255	455.300000
801.833024	448.300000
804.085205	474.400000
806.334848	483.600000
808.585902	452.400000
810.832445	441.600000
813.080400	449.300000
815.325821	459.100000
817.572653	461.000000
819.818924	472.400000
822.060691	439.600000
824.305840	468.100000
826.544517	453.300000
828.786577	460.300000
831.024138	470.800000
833.263110	445.900000
835.499556	453.100000
837.737413	453.400000
839.972745	455.900000
842.205554	470.800000
844.439774	459.600000
846.671472	478.000000
848.902615	463.300000
851.133203	468.100000
853.363236	462.900000
855.592716	467.200000
857.817714	491.500000
860.046087	453.100000
862.269981	467.300000
864.495285	454.800000
866.716114	459.600000
868.940315	452.800000
871.160043	468.300000
873.381182	476.800000
875.601770	498.700000
877.819848	460.000000
880.039337	462.900000
882.254359	469.100000
884.468833	480.400000
886.682760	461.100000
888.896139	477.400000
891.108971	489.600000
893.321257	471.800000
895.531040	474.200000
897.740278	489.900000
899.948971	471.200000
902.155165	464.900000
904.362768	484.600000
906.567874	449.200000
908.772436	493.100000
910.974502	468.100000
913.177978	467.800000
915.378960	486.100000
917.579401	494.600000
919.781249	485.900000
921.976707	459.900000
924.175524	500.300000
926.369902	502.000000
928.567638	465.300000
930.760938	491.100000
932.955647	506.600000
935.147870	483.300000
937.339555	475.500000
939.530702	488.300000
941.719366	479.700000
943.907493	492.300000
946.093140	493.100000
948.282139	491.500000
950.466715	502.500000
952.650756	502.400000
954.838147	491.000000
957.017234	520.100000
959.199672	538.900000
961.381576	524.900000
963.561006	481.200000
965.737963	498.400000
967.916327	484.900000
970.096099	520.900000
972.269522	512.100000
974.446291	507.600000
976.618653	501.800000
978.792423	522.900000
980.961789	487.800000
983.134500	533.100000
985.304744	504.600000
987.474460	529.600000
989.643647	535.400000
991.808437	531.900000
993.976568	536.200000
996.140305	509.300000
998.305448	529.600000
1000.468133	524.600000
1002.630291	531.900000
1004.789993	555.900000
1006.949171	522.500000
1009.109755	513.200000
1011.267884	532.700000
1013.425489	548.800000
1015.582571	526.000000
1017.739130	527.000000
1019.891309	513.300000
1022.044894	544.400000
1024.197958	547.300000
1026.348574	527.700000
1028.500595	559.200000
1030.648243	536.800000
1032.799223	533.500000
1034.945832	547.500000
1037.091923	522.500000
1039.237494	536.800000
1041.384471	533.800000
1043.525159	543.000000
1045.669177	562.300000
1047.810754	540.900000
1049.951815	557.800000
1052.094280	529.400000
1054.230466	545.100000
1056.369978	554.600000
1058.505134	556.600000
1060.643615	558.200000
1062.777742	524.200000
1064.911356	588.000000
1067.046375	530.700000
1069.177044	546.300000
1071.309118	563.500000
1073.438763	549.300000
1075.567896	562.400000
1077.696517	560.000000
1079.824627	554.000000
1081.950311	570.600000
1084.075485	566.700000
1086.202063	539.400000
1088.324304	547.500000
1090.447948	556.400000
1092.567259	540.100000
1094.691798	572.800000
1096.810092	548.600000
1098.929791	568.200000
1101.047071	562.400000
1103.163845	563.100000
1105.280112	522.200000
1107.393964	545.400000
1109.509219	544.800000
1111.620152	547.300000
1113.734396	543.300000
1115.844320	556.000000
1117.955648	545.900000
1120.066471	567.900000
1122.172979	534.900000
1124.282795	561.400000
1126.388297	553.100000
1128.495202	560.700000
1130.595892	538.100000
1132.701794	550.300000
1134.803387	558.100000
1136.906383	564.000000
1139.008878	546.300000
1141.105166	541.000000
1143.206662	539.800000
1145.303855	518.000000
1147.400549	540.400000
1149.496745	569.200000
1151.592444	537.200000
1153.687645	530.300000
1155.780449	567.500000
1157.874655	552.400000
1159.962670	539.300000
1162.055883	538.700000
1164.142908	518.000000
1166.233232	540.900000
1168.319269	550.100000
1170.408603	561.800000
1172.491756	535.400000
1174.576311	532.500000
1176.662268	542.100000
1178.743943	555.500000
1180.827020	554.400000
1182.907711	545.800000
1184.987910	560.200000
1187.067618	548.800000
1189.146835	548.200000
1191.223670	525.600000
1193.298124	562.800000
1195.375870	567.500000
1197.449345	543.800000
1199.524221	548.400000
1201.594830	563.300000
1203.666841	573.500000
1205.736475	561.600000
1207.807510	571.300000
1209.878057	546.000000
1211.944343	553.300000
1214.012030	562.800000
1216.077345	559.700000
1218.144060	562.700000
1220.206519	583.500000
1222.272263	576.700000
1224.333754	576.200000
1226.396644	569.300000
1228.457167	560.200000
1230.517206	541.500000
1232.576763	577.700000
1234.633954	577.800000
1236.690664	589.100000
1238.745011	557.000000
1240.802638	583.400000
1242.857903	549.400000
1244.908927	570.100000
1246.961351	569.200000
1249.013295	560.600000
1251.062881	553.000000
1253.111988	555.100000
1255.160617	574.500000
1257.208767	570.600000
1259.256439	589.500000
1261.299880	562.200000
1263.346596	543.200000
1265.390959	565.800000
1267.434846	560.800000
1269.476382	549.600000
1271.515567	553.800000
1273.558026	574.400000
1275.596262	552.900000
1277.635897	588.100000
1279.675057	538.200000
1281.709998	561.500000
1283.746339	543.900000
1285.780334	567.900000
1287.815728	542.100000
1289.846908	553.800000
1291.879487	572.800000
1293.911593	559.300000
1295.941359	566.100000
1297.972523	573.200000
1299.999479	564.700000
1302.027833	591.300000
1304.051983	560.800000
1306.079397	570.200000
1308.102609	568.200000
1310.127219	549.400000
1312.149495	593.400000
1314.173168	573.700000
1316.194508	592.200000
1318.215380	600.300000
1320.235786	562.900000
1322.251997	593.200000
1324.269606	550.000000
1326.284888	583.100000
1328.303427	582.000000
1330.317778	585.400000
1332.329803	566.200000
1334.345085	568.200000
1336.356182	583.100000
1338.368676	557.900000
1340.376987	583.500000
1342.388554	559.700000
1344.394081	584.600000
1346.402864	559.500000
1348.407469	565.800000
1350.415328	599.200000
1352.422725	585.700000
1354.424091	583.900000
1356.426854	608.200000
1358.429156	577.600000
1360.430999	587.400000
1362.432382	606.400000
1364.431452	589.000000
1366.430063	608.900000
1368.428216	575.500000
1370.425911	584.500000
1372.419442	614.800000
1374.414370	586.500000
1376.408841	598.700000
1378.402855	572.900000
1380.394561	576.300000
1382.385813	590.800000
1384.374759	556.300000
1386.365100	574.700000
1388.354986	568.100000
1390.342569	607.700000
1392.329697	575.500000
1394.314525	577.900000
1396.300746	598.800000
1398.284668	541.200000
1400.268137	606.400000
1402.251154	583.200000
1404.231872	582.900000
1406.213986	603.700000
1408.193802	581.800000
1410.173168	577.600000
1412.148394	585.100000
1414.126860	580.200000
1416.103031	579.500000
1418.078754	587.700000
1420.054027	567.400000
1422.027009	579.800000
1423.999543	573.400000
1425.971630	589.400000
1427.943268	569.200000
1429.910778	585.500000
1431.883363	584.500000
1433.848141	606.700000
1435.817991	594.600000
1437.783718	620.300000
1439.750837	602.100000
1441.715673	579.000000
1443.676390	580.900000
1445.642174	603.900000
1447.602003	608.900000
1449.563225	599.200000
1451.525840	590.600000
1453.484340	582.600000
1455.442398	602.400000
1457.400013	593.100000
1459.357187	588.500000
1461.312085	603.700000
1463.268375	600.400000
1465.222391	615.400000
1467.175967	584.500000
1469.127270	594.100000
1471.079965	600.800000
1473.030389	616.000000
1474.980373	588.500000
1476.929919	625.400000
1478.877196	576.700000
1480.822206	575.100000
1482.768607	597.600000
1484.714572	612.900000
1486.660098	595.400000
1488.603360	569.500000
1490.546185	603.100000
1492.486747	594.200000
1494.428700	598.100000
1496.368392	623.800000
1498.307648	600.200000
1500.246469	581.800000
1502.183031	598.500000
1504.120984	595.200000
1506.056679	601.900000
1507.991939	591.600000
1509.924944	602.000000
1511.857516	595.600000
1513.789656	620.200000
1515.721364	578.600000
1517.650818	600.200000
1519.581663	618.300000
1521.512077	610.300000
1523.438417	579.500000
1525.366149	625.400000
1527.291630	598.700000
1529.216682	582.100000
1531.141305	586.600000
1533.065499	638.200000
1534.987446	590.700000
1536.910782	595.600000
1538.831873	608.800000
1540.750719	601.400000
1542.670955	631.400000
1544.588947	597.300000
1546.506513	605.900000
1548.421837	588.900000
1550.338551	617.000000
1552.251210	617.200000
1554.167073	615.800000
1556.080696	640.000000
1557.992082	604.300000
1559.904856	618.200000
1561.813581	590.800000
1563.723696	612.300000
1565.633387	598.200000
1567.542654	607.500000
1569.449688	640.300000
1571.354489	626.400000
1573.260679	606.900000
1575.164637	602.100000
1577.068175	594.500000
1578.971291	603.200000
1580.872179	628.300000
1582.774454	606.300000
1584.674502	588.100000
1586.575937	617.100000
1588.473339	605.600000
1590.370322	589.300000
1592.266887	595.600000
1594.164840	600.700000
1596.056958	631.400000
1597.952269	616.400000
1599.847163	606.800000
1601.739835	608.800000
1603.632091	615.700000
1605.522126	589.400000
1607.411747	613.900000
1609.300951	589.100000
1611.189741	625.500000
1613.076314	585.800000
1614.964273	619.500000
1616.848216	608.600000
1618.733547	599.200000
1620.618463	596.700000
1622.501166	616.300000
1624.385256	633.200000
1626.265335	627.600000
1628.146800	584.800000
1630.026055	583.800000
1631.906696	610.000000
1633.781533	611.400000
1635.661352	613.500000
1637.537165	618.000000
1639.412568	607.000000
1641.289358	614.600000
1643.160350	616.000000
1645.034524	607.000000
1646.904700	613.800000
1648.778056	612.600000
1650.649209	615.200000
1652.518160	620.000000
1654.388497	604.700000
1656.254840	593.100000
1658.122569	577.100000
1659.988100	614.300000
1661.855015	629.400000
1663.717942	587.400000
1665.582254	598.000000
1667.444370	590.400000
1669.306082	587.900000
1671.169178	600.700000
1673.030080	606.000000
1674.888788	592.500000
1676.747093	576.900000
1678.606783	574.500000
1680.460706	590.000000
1682.317801	576.600000
1684.174494	587.800000
1686.027211	594.900000
1687.883098	582.400000
1689.735012	596.100000
1691.586525	605.000000
1693.437637	602.300000
1695.288349	589.900000
1697.138660	580.400000
1698.986787	571.700000
1700.836297	585.100000
1702.680059	566.300000
1704.528770	588.200000
1706.371736	599.900000
1708.217867	589.700000
1710.060037	591.500000
1711.905371	557.800000
1713.744965	583.000000
1715.585943	564.900000
1717.428304	550.400000
1719.266709	589.400000
1721.106497	570.100000
1722.944110	584.400000
1724.781327	568.700000
1726.616371	569.200000
1728.452798	561.800000
1730.287053	600.800000
1732.120913	583.500000
1733.954380	573.800000
1735.783900	560.400000
1737.616579	581.900000
1739.445314	577.000000
1741.277207	553.300000
1743.105157	585.500000
1744.932715	569.000000
1746.759881	564.200000
1748.586656	589.500000
1750.413040	580.500000
1752.235487	574.600000
1754.061088	587.900000
1755.882755	579.100000
1757.705804	566.400000
1759.526692	608.900000
1761.347190	582.600000
1763.169070	583.700000
1764.985250	563.900000
1766.804582	589.400000
1768.619987	600.000000
1770.438542	588.600000
1772.253172	577.700000
1774.067416	593.700000
1775.881272	591.600000
1777.694742	576.900000
1779.506059	571.800000
1781.318757	588.000000
1783.131068	588.000000
1784.939462	584.900000
1786.749237	558.900000
1788.555096	589.500000
1790.364101	584.700000
1792.169193	576.900000
1793.975666	588.200000
1795.781755	588.700000
1797.583934	608.600000
1799.389256	581.500000
1801.190670	576.300000
1802.993464	611.200000
1804.792352	598.400000
1806.592621	598.700000
1808.392508	581.100000
1810.190254	589.200000
1811.987618	573.500000
1813.784603	569.800000
1815.581207	572.200000
1817.375672	565.300000
1819.171516	571.100000
1820.961706	570.900000
1822.756792	598.700000
1824.546225	578.600000
1826.338795	575.900000
1828.129230	576.800000
1829.917531	572.800000
1831.708967	587.700000
1833.494757	567.300000
1835.281927	558.900000
1837.066965	575.700000
1838.855137	561.000000
1840.639423	571.200000
1842.421580	592.500000
1844.205115	581.300000
1845.986522	573.100000
1847.769308	588.300000
1849.548214	609.700000
1851.328498	581.000000
1853.106656	586.000000
1854.886193	594.600000
1856.663605	586.100000
1858.438893	585.900000
1860.215560	580.600000
1861.990103	590.400000
1863.766025	587.800000
1865.536326	605.000000
1867.309755	578.600000
1869.081064	580.600000
1870.852003	575.300000
1872.624318	573.100000
1874.391020	588.000000
1876.160848	577.200000
1877.926812	586.200000
1879.695900	584.900000
1881.461126	569.300000
1883.225983	581.100000
1884.992218	568.400000
1886.754594	568.200000
1888.516603	573.500000
1890.278244	606.100000
1892.039519	549.800000
1893.800426	569.500000
1895.560967	574.000000
1897.319398	575.300000
1899.077464	560.700000
1900.833421	555.300000
1902.590756	582.400000
1904.347724	576.200000
1906.102587	571.900000
1907.855344	555.400000
1909.607738	542.000000
1911.361507	567.700000
1913.113173	568.500000
1914.862737	591.700000
1916.613677	573.200000
1918.364253	565.500000
1920.110990	556.800000
1921.859104	569.700000
1923.605118	565.200000
1925.352508	558.900000
1927.097799	581.700000
1928.840993	572.900000
1930.585563	575.100000
1932.328036	556.000000
1934.070149	561.200000
1935.811902	559.900000
1937.553296	597.500000
1939.292596	594.500000
1941.031536	558.800000
1942.770119	564.900000
1944.506609	555.700000
1946.242742	556.400000
1947.980249	557.100000
1949.713934	588.200000
1951.448994	557.000000
1953.181966	550.100000
1954.914581	536.200000
1956.646839	561.600000
1958.378741	596.200000
1960.108557	577.500000
1961.836289	576.000000
1963.565394	563.900000
1965.294145	561.100000
1967.020812	573.100000
1968.747125	600.300000
1970.474811	615.700000
1972.196961	554.000000
1973.922212	579.400000
1975.643657	549.600000
1977.368201	554.700000
1979.090666	589.600000
1980.809327	583.000000
1982.531087	575.100000
1984.249045	596.000000
1985.968376	554.700000
1987.683908	562.500000
1989.404261	582.900000
1991.120814	563.400000
1992.833571	573.500000
1994.549425	581.400000
1996.263205	586.800000
1997.976636	585.700000
1999.687996	581.100000
2001.400729	603.700000
2003.109670	560.100000
2004.821705	583.100000
2006.528230	585.300000
2008.237848	578.800000
2009.945398	586.600000
2011.652601	570.500000
2013.357738	580.000000
2015.062528	579.900000
2016.768690	563.500000
2018.471070	593.800000
2020.174822	595.700000
2021.876510	567.200000
2023.577854	558.000000
2025.278852	564.000000
2026.977790	573.800000
2028.678098	564.300000
2030.374632	569.100000
2032.072537	575.900000
2033.768383	613.300000
2035.467315	573.200000
2037.160761	579.600000
2038.855579	556.300000
2040.550053	589.100000
2042.240759	575.200000
2043.934549	569.500000
2045.624572	534.300000
2047.315966	581.600000
2049.005307	561.000000
2050.696018	548.300000
2052.382966	576.100000
2054.069575	573.500000
2055.757554	579.600000
2057.441773	574.700000
2059.127362	570.300000
2060.812612	564.900000
2062.495814	576.900000
2064.180385	573.300000
2065.859494	576.700000
2067.543388	585.600000
2069.221822	549.700000
2070.903332	591.100000
2072.581092	556.500000
2074.258514	575.400000
2075.937306	577.200000
2077.614056	579.400000
2079.288764	573.200000
2080.964841	571.300000
2082.638878	574.400000
2084.312579	554.300000
2085.985945	574.900000
2087.657273	582.900000
2089.328266	577.300000
2090.998925	571.000000
2092.669249	561.700000
2094.339240	572.300000
2096.007195	572.000000
2097.674817	577.200000
2099.340404	591.800000
2101.007361	575.700000
2102.672283	573.400000
2104.336874	561.000000
2105.999433	564.600000
2107.663360	576.500000
2109.325257	550.900000
2110.986822	554.600000
2112.648056	553.100000
2114.307262	591.000000
2115.966137	594.200000
2117.624683	559.800000
2119.282899	563.800000
2120.937391	564.800000
2122.594948	541.000000
2124.252176	573.800000
2125.905682	543.200000
2127.560556	570.400000
2129.211712	581.000000
2130.865929	591.900000
2132.516430	584.600000
2134.168297	560.400000
2135.814756	572.100000
2137.465970	571.400000
2139.113470	550.600000
2140.762337	570.100000
2142.409186	571.900000
2144.055708	546.800000
2145.701905	568.300000
2147.344394	550.700000
2148.989941	543.600000
2150.631781	558.200000
2152.276678	587.800000
2153.917870	554.800000
2155.558738	560.400000
2157.199282	566.900000
2158.837814	567.800000
2160.477712	586.900000
2162.113910	543.200000
2163.751475	578.900000
2165.388716	557.000000
2167.023948	566.200000
2168.658859	574.400000
2170.293448	561.700000
2171.927715	548.000000
2173.558289	565.900000
2175.191915	564.600000
2176.821849	568.500000
2178.453148	561.500000
2180.082442	547.700000
2181.711417	518.800000
2183.340073	552.300000
2184.968409	556.200000
2186.594742	538.000000
2188.220757	565.700000
2189.844771	581.300000
2191.470149	550.200000
2193.093528	542.400000
2194.718270	565.600000
2196.339332	543.200000
2197.960077	541.900000
2199.582187	538.400000
2201.202299	545.100000
2202.820414	559.900000
2204.438214	561.300000
2206.055699	560.400000
2207.672868	566.600000
2209.289722	537.600000
2210.906261	530.500000
2212.520806	544.000000
2214.133359	527.800000
2215.747276	566.000000
2217.359202	568.900000
2218.972491	549.300000
2220.583790	558.300000
2222.193099	545.500000
2223.803772	550.200000
2225.412456	552.600000
2227.020828	542.800000
2228.627212	536.400000
2230.234960	540.700000
2231.840721	560.900000
2233.446171	517.900000
2235.049636	560.900000
2236.654464	544.300000
2238.257309	549.300000
2239.858170	553.100000
2241.460393	531.400000
2243.060635	551.100000
2244.662239	513.200000
2246.260191	560.900000
2247.859505	572.100000
2249.456839	562.600000
2251.053864	564.600000
2252.652252	547.900000
2254.246991	554.000000
2255.839753	557.100000
2257.433878	563.900000
2259.029364	558.500000
2260.621206	550.600000
2262.212741	560.700000
2263.805637	549.500000
2265.393224	567.300000
2266.985508	545.200000
2268.572484	550.300000
2270.162489	543.100000
2271.747189	545.000000
2273.336583	557.900000
2274.920674	515.800000
2276.506127	531.200000
2278.089610	555.200000
2279.676120	539.000000
2281.258996	536.100000
2282.841568	532.700000
2284.423837	526.400000
2286.002477	505.000000
2287.584140	512.400000
2289.162175	515.700000
2290.743233	540.500000
2292.320665	534.700000
2293.896132	528.900000
2295.474622	532.400000
2297.049488	534.600000
2298.624053	553.900000
2300.198318	509.300000
2301.772282	515.600000
2303.345946	504.000000
2304.919309	528.300000
2306.489054	515.200000
2308.058500	517.300000
2309.630965	501.700000
2311.198154	521.500000
2312.768362	505.900000
2314.334955	521.300000
2315.902908	525.500000
2317.468905	520.800000
2319.034605	508.800000
2320.600008	534.800000
2322.163456	532.700000
2323.728264	535.400000
2325.289464	536.700000
2326.853678	552.600000
2328.412631	525.000000
2329.974597	527.000000
2331.534613	542.900000
2333.094333	522.300000
2334.652104	515.300000
2336.209580	534.300000
2337.766762	533.700000
2339.321997	515.100000
2340.876937	517.600000
2342.431584	523.400000
2343.985937	540.000000
2345.539996	513.400000
2347.093761	517.000000
2348.645583	531.500000
2350.195461	529.800000
2351.748347	511.800000
2353.295991	518.300000
2354.846642	530.200000
2356.393702	537.300000
2357.942121	527.900000
2359.490247	528.100000
2361.034785	510.600000
2362.580681	525.200000
2364.124639	533.200000
2365.669954	523.300000
2367.211684	534.000000
2368.754771	544.300000
2370.295923	545.500000
2371.836785	529.200000
2373.377358	539.700000
2374.917641	516.700000
2376.457636	508.600000
2377.994053	520.500000
2379.533471	515.900000
2381.069312	507.200000
2382.606509	541.200000
2384.140131	512.400000
2385.676754	520.100000
2387.211445	535.200000
2388.744207	527.100000
2390.276682	503.300000
2391.807230	531.100000
2393.340775	506.100000
2394.869109	502.400000
2396.398799	520.700000
2397.928204	522.000000
2399.457323	503.300000
2400.986158	524.700000
2402.509787	521.300000
2404.038053	523.900000
2405.561115	536.200000
2407.088811	532.300000
2408.609668	515.400000
2410.135158	525.500000
2411.657087	517.200000
2413.180372	521.700000
2414.701736	525.600000
2416.221180	504.400000
2417.741979	516.900000
2419.260859	530.400000
2420.779457	513.400000
2422.296138	516.400000
2423.814173	506.800000
2425.331927	509.800000
2426.846130	523.600000
2428.360052	527.000000
2429.873694	530.200000
2431.388691	503.000000
2432.900139	505.100000
2434.412942	485.900000
2435.923832	530.300000
2437.434442	506.900000
2438.943141	538.300000
2440.454827	512.900000
2441.962968	517.100000
2443.470832	498.600000
2444.978418	518.900000
2446.482463	500.800000
2447.989494	504.300000
2449.494616	523.500000
2450.999461	505.800000
2452.502399	504.700000
2454.005060	522.200000
2455.507445	497.800000
2457.007925	503.800000
2458.509758	512.300000
2460.009687	501.800000
2461.509340	491.500000
2463.008717	498.000000
2464.506192	483.700000
2466.001765	487.500000
2467.500319	504.000000
2468.995343	505.100000
2470.491721	491.100000
2471.984571	463.200000
2473.478775	476.700000
2474.972705	499.600000
2476.463112	477.400000
2477.956495	470.000000
2479.447981	501.400000
2480.937570	482.700000
2482.426887	495.300000
2483.914309	493.400000
2485.404706	483.900000
2486.891584	478.900000
2488.379814	487.900000
2489.864528	495.900000
2491.348971	494.400000
2492.834766	477.200000
2494.318668	494.200000
2495.803922	477.500000
2497.284042	475.200000
2498.767134	492.800000
2500.248336	485.100000
2501.729269	501.600000
2503.208313	493.700000
2504.687088	464.600000
2506.165595	492.900000
2507.643834	459.500000
2509.121804	474.500000
2510.596270	483.100000
2512.073704	490.900000
2513.547635	486.900000
2515.022916	488.600000
2516.497931	469.000000
2517.969444	473.500000
2519.442307	505.000000
2520.913288	490.400000
2522.385619	488.000000
2523.852837	499.200000
2525.323020	489.100000
2526.791323	488.400000
2528.259361	471.700000
2529.727134	490.100000
2531.194642	487.200000
2532.661885	487.500000
2534.125636	472.600000
2535.590737	475.200000
2537.053961	472.300000
2538.518535	473.800000
2539.979619	466.400000
2541.442053	463.400000
2542.904224	505.600000
2544.362909	509.700000
2545.826166	490.600000
2547.284326	487.000000
2548.743835	475.100000
2550.198251	465.700000
2551.657236	484.600000
2553.114350	496.900000
2554.569593	475.900000
2556.024575	491.100000
2557.477687	483.900000
2558.932148	478.100000
2560.384740	470.100000
2561.837072	486.700000
2563.287536	505.400000
2564.740956	469.100000
2566.189294	478.500000
2567.640588	461.100000
2569.090015	479.400000
2570.535970	492.900000
2571.984881	485.600000
2573.430320	478.600000
2574.877108	488.200000
2576.322032	488.600000
2577.766699	479.400000
2579.212713	498.900000
2580.655260	487.800000
2582.099155	494.000000
2583.539585	473.800000
2584.981362	479.100000
2586.421280	481.000000
2587.862545	464.600000
2589.300349	483.000000
2590.741102	476.100000
2592.176792	460.600000
2593.615432	451.500000
2595.052215	462.100000
2596.487141	478.700000
2597.925016	484.600000
2599.357832	458.800000
2600.791996	483.100000
2602.224306	487.900000
2603.657962	462.500000
2605.089765	469.100000
2606.521315	473.100000
2607.952611	488.500000
2609.382055	471.200000
2610.811248	485.400000
2612.238589	456.000000
2613.667277	460.500000
2615.095712	485.900000
2616.520700	470.000000
2617.947035	462.000000
2619.371521	438.500000
2620.797353	458.500000
2622.219741	469.600000
2623.643475	458.200000
2625.065362	474.800000
2626.487000	492.000000
2627.906792	477.000000
2629.327930	482.500000
2630.748818	457.400000
2632.166268	463.600000
2633.586657	475.000000
2635.003609	478.700000
2636.420313	443.500000
2637.836768	476.800000
2639.252975	466.300000
2640.668933	453.300000
2642.083051	454.400000
2643.496922	466.500000
2644.908953	441.800000
2646.322329	460.900000
2647.732275	474.100000
2649.145156	473.700000
2650.554610	464.100000
2651.963817	473.100000
2653.371187	474.100000
2654.781493	452.700000
2656.189962	457.800000
2657.596596	444.000000
2659.002985	461.900000
2660.407540	460.700000
2661.813439	460.500000
2663.217505	464.400000
2664.621326	477.400000
2666.024904	489.700000
2667.426649	484.600000
2668.829738	464.400000
2670.229409	462.300000
2671.630424	459.800000
2673.028023	462.300000
2674.428552	449.600000
2675.825666	470.200000
2677.224123	464.700000
2678.620752	470.100000
2680.017139	468.300000
2681.413285	483.700000
2682.807604	451.600000
2684.203266	478.100000
2685.595518	465.200000
2686.989114	488.000000
2688.380885	466.700000
2689.773998	452.300000
2691.165288	439.500000
2692.554755	461.800000
2693.943982	435.700000
2695.332970	440.600000
2696.723300	459.200000
2698.108645	473.500000
2699.496914	458.000000
2700.883363	452.500000
2702.269573	475.400000
2703.655545	449.200000
2705.038117	434.900000
2706.422032	438.100000
2707.805709	466.800000
2709.189148	459.400000
2710.569191	463.100000
2711.950576	460.900000
2713.330145	449.300000
2714.711056	452.900000
2716.090151	436.900000
2717.467433	451.700000
2718.846056	446.800000
2720.222866	470.600000
2721.599440	446.900000
2722.975778	472.000000
2724.350304	468.200000
2725.726171	461.600000
2727.098651	437.400000
2728.474047	463.500000
2729.844483	448.000000
2731.216260	440.000000
2732.587802	448.900000
2733.957536	456.900000
2735.328611	443.200000
2736.697877	433.000000
2738.066911	439.600000
2739.434137	446.000000
2740.801131	459.800000
2742.167892	458.800000
2743.534420	440.500000
2744.899143	456.900000
2746.263635	429.000000
2747.627894	441.100000
2748.991921	440.900000
2750.355717	433.200000
2751.716139	453.400000
2753.079472	452.500000
2754.437862	446.000000
2755.799162	440.800000
2757.157091	428.000000
2758.517930	422.400000
2759.876968	439.200000
2761.232638	435.900000
2762.591216	407.600000
2763.946428	422.800000
2765.301410	442.400000
2766.654595	429.400000
2768.010687	433.300000
2769.363415	429.100000
2770.715914	444.800000
2772.068185	411.100000
2773.421795	418.900000
2774.772043	420.200000
2776.120498	433.000000
2777.471857	428.500000
2778.819857	430.200000
2780.169196	426.700000
2781.516742	414.100000
2782.864061	443.700000
2784.211154	412.600000
2785.556456	429.900000
2786.901532	422.300000
2788.246382	419.700000
2789.591005	435.200000
2790.932277	425.200000
2792.274887	427.800000
2793.617271	434.300000
2794.959431	406.300000
2796.298241	408.700000
2797.639950	401.300000
2798.978312	435.400000
2800.318011	430.800000
2801.655924	417.900000
2802.992053	426.400000
2804.327958	411.300000
2805.665201	420.500000
2807.000660	436.100000
2808.335896	438.600000
2809.669349	404.400000
2811.004140	441.200000
2812.335589	415.000000
2813.669934	416.300000
2814.999381	406.700000
2816.330165	441.000000
2817.660727	427.600000
2818.989510	412.700000
2820.319629	427.200000
2821.647970	423.300000
2822.976090	424.000000
2824.302432	400.300000
2825.630111	391.200000
2826.954457	421.200000
2828.280138	425.600000
2829.604044	412.100000
2830.927731	404.100000
2832.252753	403.800000
2833.574445	417.000000
2834.895919	391.000000
2836.217174	416.400000
2837.538210	401.900000
2838.857474	421.600000
2840.178073	413.900000
2841.496900	399.500000
2842.815509	417.100000
2844.132347	407.800000
2845.448968	427.600000
2846.765372	403.200000
2848.080007	393.200000
2849.395976	402.500000
2850.708625	402.700000
2852.022610	372.000000
2853.336377	398.500000
2854.649929	420.200000
2855.961713	394.000000
2857.271731	405.200000
2858.583084	419.500000
2859.891122	417.600000
2861.200495	428.600000
2862.509652	418.000000
2863.818594	399.900000
2865.125773	427.500000
2866.431188	400.900000
2867.737938	415.700000
2869.042925	388.500000
2870.347699	383.700000
2871.650711	405.700000
2872.956605	439.800000
2874.257643	425.900000
2875.560016	399.600000
2876.860629	412.400000
2878.162576	407.400000
2879.464310	404.300000
2880.762739	391.900000
2882.062503	401.200000
2883.360508	407.400000
2884.658302	393.800000
2885.954340	395.800000
2887.251711	420.900000
2888.547326	417.100000
2889.842730	388.600000
2891.137924	427.600000
2892.429819	382.900000
2893.724591	415.200000
2895.016066	385.500000
2896.308874	388.900000
2897.601472	395.600000
2898.890776	392.900000
2900.181412	376.600000
2901.470297	371.400000
2902.760515	386.800000
2904.047440	388.600000
2905.335699	407.600000
2906.622207	400.000000
2907.908508	411.500000
2909.194600	392.400000
2910.478944	386.600000
2911.766160	386.400000
2913.048548	381.700000
2914.332269	379.900000
2915.614244	390.700000
2916.896012	384.800000
2918.176034	407.200000
2919.458926	399.800000
2920.740073	402.600000
2922.017938	411.100000
2923.298672	388.100000
2924.576125	411.900000
2925.853372	393.200000
2927.128878	395.300000
2928.407251	386.300000
2929.680809	385.500000
2930.957235	371.900000
2932.231920	398.700000
2933.504865	371.800000
2934.779140	352.700000
2936.051676	386.500000
2937.324008	382.700000
2938.593066	381.400000
2939.864990	372.600000
2941.135176	382.100000
2942.405159	394.200000
2943.674938	383.300000
2944.942980	393.200000
2946.209287	375.900000
2947.475391	373.400000
2948.742825	388.400000
2950.008525	380.800000
2951.274022	382.100000
2952.539317	373.200000
2953.801347	371.100000
2955.064708	382.100000
2956.327866	381.000000
2957.589293	373.400000
2958.852049	387.800000
2960.113074	386.900000
2961.372367	363.700000
2962.631461	361.500000
2963.890354	391.400000
2965.149047	380.000000
2966.407540	386.900000
2967.664304	370.000000
2968.920868	362.600000
2970.175705	379.900000
2971.431871	382.500000
2972.684781	378.000000
2973.939021	342.700000
2975.193062	394.400000
2976.445377	390.200000
2977.697494	381.600000
2978.947886	375.100000
2980.201133	371.700000
2981.449603	359.300000
2982.700927	378.500000
2983.949003	375.800000
2985.196881	378.000000
2986.444562	367.700000
2987.692047	354.800000
2988.937810	349.900000
2990.183376	351.800000
2991.430270	374.700000
2992.673920	376.400000
2993.918898	375.400000
2995.160633	362.900000
2996.405218	358.800000
2997.648085	358.100000
2998.887711	375.300000
3000.130187	363.300000
3001.369424	361.800000
3002.609988	360.000000
3003.848835	403.400000
3005.087488	356.400000
3006.324425	378.100000
3007.562689	366.400000
3008.799239	380.500000
3010.035594	370.500000
3011.271756	370.500000
3012.506205	353.200000
3013.740460	356.800000
3014.974522	360.700000
3016.206872	369.500000
3017.437510	347.400000
3018.670994	365.700000
3019.902766	368.400000
3021.132828	370.600000
3022.362698	354.500000
3023.590858	361.400000
3024.820344	336.800000
3026.048122	377.600000
3027.275708	334.000000
3028.504620	342.100000
3029.728790	363.000000
3030.955803	369.100000
3032.179592	358.700000
3033.404708	362.900000
3034.628117	367.300000
3035.851337	336.300000
3037.072851	380.100000
3038.297206	357.500000
3039.516826	349.200000
3040.737771	369.500000
3041.958528	353.700000
3043.177581	357.100000
3044.397960	370.500000
3045.615122	347.000000
3046.833609	335.200000
3048.050394	337.000000
3049.266992	364.900000
3050.483401	357.200000
3051.696598	359.500000
3052.912632	368.700000
3054.125454	331.500000
3055.341113	366.100000
3056.552049	373.700000
3057.764310	348.500000
3058.976385	351.500000
3060.188273	349.100000
3061.398463	347.500000
3062.608467	358.200000
3063.818286	342.700000
3065.026408	353.800000
3066.234344	352.200000
3067.440586	367.400000
3068.648151	356.300000
3069.854023	360.200000
3071.059709	364.100000
3072.265210	347.900000
3073.469018	357.200000
3074.674150	346.700000
3075.877590	357.800000
3077.079337	353.600000
3078.280901	321.000000
3079.482281	347.200000
3080.683477	321.800000
3081.882983	355.000000
3083.082305	346.300000
3084.282951	360.000000
3085.481907	336.100000
3086.677669	363.600000
3087.876260	339.500000
3089.071657	327.900000
3090.268377	356.300000
3091.461905	333.500000
3092.658261	327.700000
3093.852931	325.300000
3095.044410	358.200000
3096.240220	354.100000
3097.431337	334.800000
3098.623776	354.600000
3099.813028	347.600000
3101.005106	313.200000
3102.195499	333.600000
3103.382707	325.600000
3104.571238	335.600000
3105.761091	347.600000
3106.947759	333.700000
3108.134248	329.800000
3109.320557	329.000000
3110.508188	337.600000
3111.692638	333.600000
3112.875407	338.900000
3114.061000	319.400000
3115.244912	351.800000
3116.427146	355.400000
3117.609201	327.400000
3118.791079	329.700000
3119.972778	333.600000
3121.152799	340.200000
3122.331144	320.400000
3123.512310	340.600000
3124.690300	313.200000
3125.868113	323.400000
3127.045749	336.800000
3128.221710	310.900000
3129.397494	326.000000
3130.574600	303.100000
3131.750031	346.800000
3132.923789	328.000000
3134.095875	316.600000
3135.269281	320.100000
3136.442512	326.500000
3137.614070	342.700000
3138.786950	322.100000
3139.956662	356.500000
3141.127695	321.600000
3142.297057	313.800000
3143.464750	340.800000
3144.635258	338.000000
3145.801107	328.400000
3146.971266	318.900000
3148.136767	334.300000
3149.302095	332.300000
3150.467249	320.200000
3151.632229	341.500000
3152.798530	331.200000
3153.960177	335.200000
3155.123145	305.800000
3156.285939	336.200000
3157.448561	327.900000
3158.609518	318.700000
3159.770302	291.900000
3160.930914	314.200000
3162.089863	313.300000
3163.248639	323.200000
3164.407244	321.000000
3165.565677	311.700000
3166.723938	332.900000
3167.880537	312.000000
3169.035475	314.100000
3170.191732	324.100000
3171.346329	310.000000
3172.500754	303.600000
3173.653520	301.900000
3174.806116	315.000000
3175.958541	304.300000
3177.110797	313.100000
3178.262883	300.500000
3179.411822	326.500000
3180.563568	306.900000
3181.713656	301.900000
3182.862088	319.300000
3184.010351	323.000000
3185.158444	315.500000
3186.306369	305.400000
3187.452639	319.400000
3188.598740	302.200000
3189.743186	312.200000
3190.887465	318.500000
3192.031576	316.500000
3193.177005	304.100000
3194.319294	304.600000
3195.461417	309.700000
3196.603372	312.800000
3197.745161	316.000000
3198.886782	313.000000
3200.025267	308.300000
3201.165070	305.100000
3202.306191	308.300000
3203.444177	309.900000
3204.580514	283.100000
3205.716685	306.000000
3206.854174	310.500000
3207.990013	298.400000
3209.127170	335.600000
3210.259714	294.600000
3211.396540	310.000000
3212.528754	311.000000
3213.662286	296.800000
3214.795652	321.000000
3215.925891	302.400000
3217.058928	285.500000
3218.188839	287.400000
3219.320067	319.900000
3220.448169	311.500000
3221.579068	294.500000
3222.708324	313.300000
3223.835935	300.700000
3224.960425	307.200000
3226.089190	305.700000
3227.214833	298.600000
3228.340313	291.800000
3229.464152	294.500000
3230.590785	301.300000
3231.712821	298.900000
3232.836173	298.700000
3233.959363	308.500000
3235.082391	288.500000
3236.203779	279.100000
3237.325006	280.000000
3238.444594	295.300000
3239.564021	278.800000
3240.681810	304.300000
3241.802392	298.100000
3242.919859	302.700000
3244.037167	288.100000
3245.154313	310.500000
3246.269824	296.500000
3247.386650	296.500000
3248.500365	322.600000
3249.616870	291.400000
3250.731741	296.200000
3251.843503	296.000000
3252.955106	301.200000
3254.068023	303.700000
3255.180782	278.500000
3256.290434	295.600000
3257.401400	275.000000
3258.512208	290.900000
3259.621385	296.400000
3260.728930	300.300000
3261.837790	274.500000
3262.946491	289.300000
3264.052090	288.900000
3265.159003	285.600000
3266.264288	272.800000
3267.370886	317.400000
3268.474384	293.600000
3269.579196	284.900000
3270.683851	287.800000
3271.785407	297.300000
3272.886808	292.700000
3273.989522	297.200000
3275.092079	288.100000
3276.191540	291.900000
3277.293785	284.000000
3278.392934	285.000000
3279.490459	258.500000
3280.587828	280.900000
3281.687980	295.900000
3282.785038	289.500000
3283.881941	271.000000
3284.978689	274.800000
3286.070879	288.200000
3287.167317	283.400000
3288.262134	298.000000
3289.356795	262.200000
3290.449835	276.100000
3291.542721	283.600000
3292.633986	275.400000
3293.726564	306.200000
3294.817521	275.600000
3295.906859	299.600000
3296.996044	277.000000
3298.086542	287.500000
3299.173955	256.200000
3300.261216	268.300000
3301.349789	274.200000
3302.438209	261.800000
3303.522082	273.400000
3304.610197	273.000000
3305.695231	276.900000
3306.778648	263.500000
3307.863378	266.300000
3308.946493	278.400000
3310.030919	269.300000
3311.112267	291.500000
3312.194927	242.600000
3313.275973	284.500000
3314.356868	277.700000
3315.436150	259.700000
3316.515281	277.400000
3317.595723	277.800000
3318.673092	280.600000
3319.751771	269.700000
3320.828840	270.000000
3321.905758	286.800000
3322.981065	273.600000
3324.056223	254.400000
3325.132692	280.300000
3326.206091	282.100000
3327.279341	259.300000
3328.353902	269.900000
3329.426853	276.300000
3330.498197	271.600000
3331.570851	279.500000
3332.640438	277.600000
3333.711336	265.400000
3334.780627	281.300000
3335.851229	273.600000
3336.920224	278.700000
3337.987613	270.800000
3339.053397	265.200000
3340.123407	275.900000
3341.190354	271.600000
3342.254239	273.700000
3343.320892	271.000000
3344.385940	253.000000
3345.449385	269.100000
3346.512684	283.100000
3347.575836	274.700000
3348.638842	263.900000
3349.701702	253.600000
3350.762960	272.300000
3351.821161	256.700000
3352.883583	262.800000
3353.942948	267.400000
3355.002168	237.000000
3356.062698	264.600000
3357.118718	264.000000
3358.177503	246.700000
3359.231780	261.800000
3360.288820	263.200000
3361.344263	265.100000
3362.401014	251.900000
3363.456168	277.400000
3364.509724	246.300000
3365.561683	260.700000
3366.616404	262.000000
3367.668076	264.600000
3368.719605	250.900000
3369.772443	267.300000
3370.822233	270.800000
3371.873331	256.200000
3372.921384	251.000000
3373.972197	261.000000
3375.019964	263.700000
3376.067589	242.400000
3377.115071	238.200000
3378.160961	257.500000
3379.208159	257.700000
3380.252315	251.800000
3381.299229	270.800000
3382.344551	250.600000
3383.386833	252.500000
3384.428973	257.800000
3385.472421	244.800000
3386.515729	254.800000
3387.557446	244.100000
3388.599022	241.800000
3389.640458	254.700000
3390.680304	247.900000
3391.718563	260.300000
3392.758129	265.500000
3393.797554	248.900000
3394.835392	257.700000
3395.871643	264.200000
3396.907755	257.400000
3397.945174	246.000000
3398.979560	247.000000
3400.015253	248.100000
3401.050807	237.800000
3402.083330	246.800000
3403.118606	248.200000
3404.150851	250.400000
3405.182958	246.700000
3406.213481	248.600000
3407.245312	245.200000
3408.277003	239.700000
3409.305668	257.100000
3410.334194	256.800000
3411.364028	244.600000
3412.393723	242.600000
3413.420393	240.200000
3414.448370	249.200000
3415.473322	226.600000
3416.501024	246.500000
3417.525703	261.800000
3418.551688	252.000000
3419.576093	255.900000
3420.600362	235.400000
3421.623052	241.800000
3422.645606	224.400000
3423.669466	234.400000
3424.690306	234.700000
3425.711011	254.900000
3426.733021	250.100000
3427.752013	235.700000
3428.770870	251.900000
3429.791032	228.400000
3430.808178	234.300000
