-118.059454	8.089835
-115.389854	12.840659
-112.723189	16.159291
-110.057276	18.251848
-107.394295	19.324451
-104.729885	19.583217
-102.068405	19.234266
-99.405496	15.955245
-96.747693	17.432867
-94.088461	18.304895
-91.429977	18.695105
-88.774417	18.925175
-86.117429	19.711888
-83.465539	20.416084
-80.812218	20.465734
-78.161818	19.244755
-75.509988	21.469930
-72.863249	19.662937
-70.215081	20.206294
-67.567655	18.808392
-64.923143	20.518182
-62.277203	21.588811
-59.636344	21.781119
-56.994056	23.253147
-54.354677	23.011888
-51.713868	22.478322
-49.073800	23.046853
-46.438804	21.097203
-43.802380	22.971329
-41.168858	24.439860
-38.533908	28.135664
-35.904023	31.641259
-33.270546	35.245455
-30.642131	35.765035
-28.014450	35.539161
-25.385340	27.106993
-22.761287	-20.609790
-20.133645	-185.641958
-17.511056	-533.374825
-14.889199	-357.013986
-12.268072	829.327273
-9.647675	2472.711888
-7.030167	3800.002797
-4.411230	4695.284615
-1.795178	5155.348252
0.820145	5179.334965
3.434741	4772.313287
6.046454	3939.870629
8.659596	2711.325874
11.267704	1207.118881
13.879394	-202.727273
16.486053	-712.044755
19.094140	-378.967832
21.701503	-13.437762
24.303841	38.417483
26.909757	35.853147
29.510651	36.000699
32.112973	37.787413
34.710278	38.911189
37.311158	38.965734
39.907023	37.441958
42.504317	38.223776
45.100891	37.918182
47.692456	33.590210
50.285449	37.148951
52.875581	37.251049
55.467141	39.604895
58.055841	37.452448
60.645968	39.072727
63.231096	41.098601
65.817652	44.441958
68.403494	43.201399
70.986482	42.310490
73.570896	42.945455
76.148182	45.150350
78.729034	46.420979
81.307037	53.267133
83.884330	51.302098
86.463049	49.176224
89.036786	48.101399
91.611951	51.549650
94.184272	52.020979
96.755885	55.127972
99.324658	54.353147
101.894858	58.534965
104.462220	66.359441
107.031007	76.927273
109.596958	91.288112
112.160074	108.563636
114.726746	126.169231
117.284197	163.012587
119.847333	226.713287
122.405509	334.255944
124.967240	520.895105
127.524014	828.843357
130.082215	1311.939860
132.635462	1973.714685
135.188012	2799.267133
137.744112	3742.702797
140.295264	4725.367133
142.845719	5694.339161
145.395476	6559.406294
147.942414	7256.673427
150.488657	7764.148252
153.036325	8069.053846
155.583297	8219.764336
158.125334	8250.048951
160.666677	8229.158741
163.207327	8167.609790
165.749403	8104.355944
168.288667	8045.698601
170.825123	7993.960839
173.360887	7960.981119
175.898077	7915.737063
178.434576	7870.126573
180.968269	7833.344056
183.499158	7799.474825
186.029360	7776.883916
188.560986	7755.609091
191.089811	7738.879720
193.615837	7713.367832
196.141177	7693.399301
198.667942	7682.408392
201.191911	7666.795804
203.715195	7653.616084
206.237794	7639.667832
208.757600	7627.167133
211.276723	7617.759441
213.795163	7614.420280
216.315027	7610.044755
218.827890	7611.269930
221.344284	7618.470629
223.859996	7623.242657
226.370818	7633.351049
228.883065	7662.431469
231.392530	7672.894406
233.901316	7691.563636
236.409423	7702.354545
238.918955	7714.696503
241.423606	7733.621678
243.927581	7742.970629
246.432980	7761.133566
248.933504	7778.637063
251.437552	7801.744056
253.934628	7817.547552
256.435228	7837.724476
258.933056	7860.781119
261.430211	7862.127972
263.926693	7870.390210
266.418312	7867.013287
268.913451	7860.867832
271.405823	7853.726573
273.897525	7846.765734
276.386464	7845.149650
278.876827	7838.867133
281.364427	7839.006993
283.849268	7826.079021
286.337624	7820.896503
288.819040	7820.024476
291.303970	7828.841958
293.784055	7837.444755
296.267652	7848.831469
298.746406	7846.798601
301.226584	7844.648252
303.704009	7840.430070
306.180771	7840.334266
308.656870	7848.512587
311.130220	7865.109790
313.602908	7877.944056
316.074935	7902.430769
318.546301	7920.277622
321.014922	7938.706294
323.482885	7945.189510
325.952269	7950.115385
328.416831	7926.564336
330.884897	7894.203497
333.348143	7860.194406
335.810731	7825.051049
338.272663	7794.707692
340.733938	7772.513287
343.192479	7739.489510
345.652442	7705.553147
348.109672	7672.806294
350.566248	7642.292308
353.022170	7603.649650
355.475362	7554.769930
357.929977	7500.473427
360.379790	7440.506294
362.833099	7383.279021
365.281610	7302.721678
367.729469	7240.336364
370.178751	7180.421678
372.623239	7099.624476
375.069149	7035.822378
377.514409	6980.797203
379.956951	6924.623776
382.398845	6851.990210
384.840092	6790.359441
387.278623	6732.457343
389.718576	6675.604196
392.155815	6615.843357
394.590342	6544.016783
397.028357	6503.241958
399.461595	6462.087413
401.896254	6410.205594
404.326141	6374.306294
406.759513	6335.705594
409.188115	6305.760839
411.616075	6265.124476
414.045457	6242.593706
416.470073	6222.165734
418.896111	6193.941958
421.321508	6163.660140
423.746265	6142.130070
426.166264	6136.916084
428.587684	6122.430070
431.006407	6110.132867
433.426551	6106.761538
435.844000	6097.432867
438.262869	6086.549650
440.679045	6080.319580
443.090473	6075.004196
445.505379	6064.237063
447.917594	6046.504895
450.329175	6035.102797
452.740122	6025.709790
455.148383	6008.027273
457.556011	5989.535664
459.963007	5978.003497
462.369372	5963.864336
464.773054	5948.649650
467.176106	5934.180420
469.578528	5925.566434
471.980320	5910.719580
474.379435	5894.951049
476.779969	5889.463636
479.179874	5870.327273
481.575056	5851.263636
483.973705	5829.500000
486.367634	5816.260839
488.760937	5793.593706
491.153614	5771.713287
493.545666	5754.158741
495.939136	5726.955944
498.327894	5707.304895
500.713986	5683.270629
503.101498	5661.885315
505.488387	5648.790210
507.872612	5632.377622
510.258255	5621.176923
512.641237	5610.775524
515.021558	5603.658042
517.403298	5588.076923
519.782379	5584.874825
522.162879	5567.905594
524.540721	5547.864336
526.915908	5542.246853
529.290477	5518.383916
531.666464	5496.356643
534.039799	5466.934965
536.414551	5440.600699
538.784618	5398.172727
541.154069	5347.915385
543.524938	5306.355944
545.891127	5252.688811
548.258734	5199.226573
550.623695	5134.115385
552.988043	5071.415385
555.351778	5011.076923
557.716931	4942.686713
560.077412	4875.418182
562.439311	4803.058042
564.798569	4742.363636
567.155190	4676.112587
569.515255	4611.302098
571.868629	4560.144056
574.225448	4496.049650
576.579632	4438.627972
578.933208	4385.967133
581.286175	4327.085315
583.636510	4272.897203
585.988263	4215.041958
588.333339	4156.160140
590.683879	4108.946154
593.027745	4060.298601
595.377073	4011.366434
597.721752	3973.853846
600.063807	3944.737762
602.407279	3917.427273
604.748128	3902.560140
607.088375	3884.747552
609.426001	3863.065035
611.767062	3850.399301
614.103485	3841.540559
616.441325	3835.688811
618.776548	3837.472028
621.109155	3836.229371
623.443178	3828.869930
625.774587	3838.929371
628.105398	3839.956643
630.435612	3840.662937
632.765227	3839.631469
635.090220	3828.344056
637.420653	3812.961538
639.746466	3804.646154
642.069671	3798.826573
644.394293	3792.324476
646.716309	3783.941958
649.037731	3783.486014
651.356551	3783.597203
653.676786	3792.060140
655.996428	3796.843357
658.313469	3813.702797
660.629918	3830.893706
662.943769	3852.818881
665.259036	3874.762238
667.571706	3902.263636
669.885791	3929.648951
672.195276	3956.497902
674.506177	3987.202098
676.814485	4025.127972
679.122205	4058.030769
681.431339	4084.167133
683.735881	4123.620979
686.039837	4168.059441
688.343207	4203.392308
690.647991	4249.516084
692.948189	4281.514685
695.249801	4316.163636
697.550829	4353.403497
699.847274	4386.921678
702.145135	4422.117483
704.442412	4451.889510
706.739106	4480.337762
709.031224	4513.271329
711.326753	4545.425175
713.617708	4579.116084
715.910078	4616.839860
718.199873	4651.398601
720.489087	4670.409091
722.777722	4704.035664
725.063784	4734.179021
727.351261	4767.420979
729.636166	4798.809790
731.920494	4832.004895
734.202253	4870.195105
736.485426	4906.777622
738.768022	4942.479720
741.046062	4997.595105
743.325517	5049.255245
745.604395	5087.939860
747.882699	5131.169930
750.156453	5184.224476
752.431620	5230.973427
754.706214	5283.703497
756.978249	5326.175524
759.251697	5371.434266
761.522587	5418.058741
763.790921	5463.994406
766.060668	5504.604895
768.327861	5546.891608
770.594483	5579.555944
772.860535	5625.106993
775.124036	5659.251748
777.388950	5709.302098
779.653294	5751.821678
781.913109	5793.243357
784.174336	5829.133566
786.434996	5873.344755
788.693110	5909.686014
790.948679	5939.300000
793.207639	5965.025874
795.460100	5995.548951
797.717927	6023.620979
799.971236	6048.923776
802.222005	6056.902098
804.474186	6087.131469
806.723828	6103.341259
808.974883	6117.374825
811.221426	6133.027972
813.469381	6161.302098
815.714802	6179.418182
817.961634	6207.584615
820.207905	6238.337762
822.449671	6268.316783
824.694821	6293.197902
826.933498	6322.885315
829.175557	6344.530070
831.413118	6374.769930
833.652091	6398.734965
835.888537	6429.634266
838.126394	6465.744755
840.361726	6513.988112
842.594535	6564.201399
844.828755	6620.968531
847.060452	6677.490210
849.291595	6744.932168
851.522183	6815.681818
853.752217	6893.550350
855.981697	6979.574126
858.206695	7075.560140
860.435068	7180.958042
862.658961	7285.053846
864.884266	7393.023776
867.105095	7515.670629
869.329296	7648.048252
871.549024	7777.521678
873.770162	7914.294406
875.990750	8056.895105
878.208829	8194.568531
880.428317	8329.207692
882.643339	8452.988112
884.857814	8577.815385
887.071740	8686.542657
889.285120	8759.579720
891.497952	8830.802098
893.710238	8884.849650
895.920021	8919.159441
898.129259	8936.330070
900.337952	8931.489510
902.544146	8904.831469
904.751749	8860.360839
906.956854	8790.383916
909.161416	8689.133566
911.363483	8587.846853
913.566959	8449.287413
915.767941	8297.225175
917.968381	8137.074126
920.170230	7957.602098
922.365688	7778.145455
924.564505	7594.257343
926.758883	7396.437063
928.956619	7199.669231
931.149919	7012.729371
933.344628	6848.188811
935.536851	6691.025874
937.728535	6548.438462
939.919682	6431.918182
942.108346	6351.186014
944.296474	6274.607692
946.482121	6225.156643
948.671120	6201.244056
950.855696	6171.702098
953.039737	6159.893706
955.227128	6149.102098
957.406215	6144.797203
959.588653	6160.476923
961.770557	6161.134266
963.949986	6167.016783
966.126943	6172.235664
968.305308	6167.865035
970.485080	6138.290909
972.658503	6116.602098
974.835272	6083.836364
977.007634	6028.854545
979.181404	5982.432867
981.350770	5912.647552
983.523480	5838.097902
985.693725	5773.185315
987.863441	5698.259441
990.032628	5624.790210
992.197418	5530.223776
994.365549	5445.644755
996.529286	5350.992308
998.694429	5266.458741
1000.857113	5168.834965
1003.019272	5074.355245
1005.178974	4988.602797
1007.338151	4906.788112
1009.498735	4829.731469
1011.656865	4753.802098
1013.814470	4670.848252
1015.971552	4594.979021
1018.128110	4516.949650
1020.280289	4452.597902
1022.433875	4382.786713
1024.586939	4322.873427
1026.737554	4259.078322
1028.889576	4218.348951
1031.037224	4171.314685
1033.188204	4137.010490
1035.334813	4099.880420
1037.480903	4051.216084
1039.626475	4007.406294
1041.773452	3965.602797
1043.914140	3916.469231
1046.058158	3871.982517
1048.199735	3829.552448
1050.340796	3802.109091
1052.483261	3770.647552
1054.619447	3742.492308
1056.758958	3706.506294
1058.894115	3673.485315
1061.032596	3648.320280
1063.166723	3611.313986
1065.300337	3581.856643
1067.435356	3540.620280
1069.566025	3506.167133
1071.698099	3470.697902
1073.827744	3431.423077
1075.956877	3406.638462
1078.085498	3368.797902
1080.213608	3333.222378
1082.339292	3295.092308
1084.464466	3251.342657
1086.591044	3207.304895
1088.713284	3156.379021
1090.836929	3111.791608
1092.956239	3067.494406
1095.080779	3017.580420
1097.199073	2960.393007
1099.318772	2906.508392
1101.436052	2859.185315
1103.552826	2807.349650
1105.669093	2772.652448
1107.782944	2721.419580
1109.898200	2669.195804
1112.009132	2621.214685
1114.123377	2578.627972
1116.233301	2538.669930
1118.344629	2494.914685
1120.455452	2442.173427
1122.561959	2395.469231
1124.671776	2350.779720
1126.777278	2311.746853
1128.884183	2274.046853
1130.984873	2241.075524
1133.090775	2193.600000
1135.192368	2157.093007
1137.295364	2124.544056
1139.397859	2086.612587
1141.494147	2052.577622
1143.595643	2016.125175
1145.692835	1974.317483
1147.789530	1936.902098
1149.885726	1901.482517
1151.981425	1867.568531
1154.076625	1839.326573
1156.169429	1809.390909
1158.263636	1778.246154
1160.351651	1756.572727
1162.444864	1730.402797
1164.531889	1701.304895
1166.622213	1683.514685
1168.708250	1660.072727
1170.797584	1624.266434
1172.880737	1599.732168
1174.965292	1575.457343
1177.051249	1547.058741
1179.132924	1523.110490
1181.216001	1490.729371
1183.296692	1463.015385
1185.376891	1448.713986
1187.456599	1423.788112
1189.535816	1404.772028
1191.612651	1393.932867
1193.687105	1383.016084
1195.764850	1368.988112
1197.838326	1363.344056
1199.913202	1355.127972
1201.983811	1345.300699
1204.055821	1336.720979
1206.125456	1322.052448
1208.196491	1320.996503
1210.267038	1320.765734
1212.333324	1308.537762
1214.401011	1306.203497
1216.466326	1294.666434
1218.533041	1287.682517
1220.595500	1277.075524
1222.661244	1269.387413
1224.722734	1257.427273
1226.785625	1252.962238
1228.846148	1248.869930
1230.906187	1243.834965
1232.965744	1242.602797
1235.022935	1243.986713
1237.079645	1237.746154
1239.133991	1238.532168
1241.191619	1230.206294
1243.246884	1228.511189
1245.297908	1228.472727
1247.350332	1228.278322
1249.402276	1220.922378
1251.451862	1222.395105
1253.500969	1219.076224
1255.549598	1217.414685
1257.597748	1215.247552
1259.645419	1222.651049
1261.688860	1218.387413
1263.735577	1216.334266
1265.779940	1209.635664
1267.823827	1210.384615
1269.865362	1207.769930
1271.904548	1202.316783
1273.947007	1193.478322
1275.985243	1188.559441
1278.024878	1182.972028
1280.064038	1182.041958
1282.098979	1184.039860
1284.135319	1184.970629
1286.169315	1181.292308
1288.204708	1182.181119
1290.235889	1185.017483
1292.268467	1186.822378
1294.300574	1189.913287
1296.330340	1190.636364
1298.361504	1184.086014
1300.388460	1186.171329
1302.416814	1186.905594
1304.440963	1187.669231
1306.468378	1184.554545
1308.491590	1181.448252
1310.516200	1178.523077
1312.538476	1181.112587
1314.562149	1187.883217
1316.583489	1185.898601
1318.604361	1194.973427
1320.624766	1197.541259
1322.640978	1197.855245
1324.658587	1204.300000
1326.673868	1205.522378
1328.692408	1206.500000
1330.706759	1200.951049
1332.718784	1203.560140
1334.734066	1203.618881
1336.745163	1203.505594
1338.757657	1201.602098
1340.765968	1196.478322
1342.777534	1202.091608
1344.783062	1203.107692
1346.791845	1206.486014
1348.796450	1208.879021
1350.804309	1212.327273
1352.811706	1213.315385
1354.813072	1221.893007
1356.815834	1233.729371
1358.818137	1239.679720
1360.819980	1241.566434
1362.821363	1241.431469
1364.820433	1240.539860
1366.819044	1240.267133
1368.817197	1236.577622
1370.814891	1230.067832
1372.808423	1227.908392
1374.803351	1222.326573
1376.797821	1222.309790
1378.791835	1226.148252
1380.783542	1222.338462
1382.774794	1222.556643
1384.763740	1220.497902
1386.754081	1218.134266
1388.743967	1214.499301
1390.731549	1211.411888
1392.718678	1208.418881
1394.703505	1204.574825
1396.689727	1206.939161
1398.673649	1213.180420
1400.657118	1217.654545
1402.640134	1212.390909
1404.620853	1207.834965
1406.602966	1201.739860
1408.582783	1196.287413
1410.562148	1192.137063
1412.537375	1188.307692
1414.515840	1184.855245
1416.492012	1182.328671
1418.467735	1178.711189
1420.443008	1174.686014
1422.415990	1177.126573
1424.388524	1171.801399
1426.360610	1162.451049
1428.332249	1157.701399
1430.299759	1151.678322
1432.272343	1149.361538
1434.237122	1145.069231
1436.206972	1148.986014
1438.172699	1152.723077
1440.139818	1155.498601
1442.104654	1151.908392
1444.065370	1148.995105
1446.031154	1151.504895
1447.990983	1147.402098
1449.952206	1139.661538
1451.914821	1134.548951
1453.873321	1129.443357
1455.831378	1127.855245
1457.788994	1120.738462
1459.746167	1121.409091
1461.701065	1116.196503
1463.657356	1110.774126
1465.611372	1097.428671
1467.564947	1095.128671
1469.516250	1091.563636
1471.468946	1086.727972
1473.419369	1077.425175
1475.369354	1071.969930
1477.318900	1075.197203
1479.266177	1077.158741
1481.211186	1072.927972
1483.157588	1077.680420
1485.103552	1075.639860
1487.049079	1077.088112
1488.992340	1076.329371
1490.935166	1080.674825
1492.875728	1077.969930
1494.817681	1074.113287
1496.757372	1062.172727
1498.696629	1058.751049
1500.635450	1059.129371
1502.572012	1055.613986
1504.509965	1051.275524
1506.445659	1051.462937
1508.380920	1048.373427
1510.313925	1050.781818
1512.246497	1056.607692
1514.178637	1059.589510
1516.110345	1060.124476
1518.039799	1062.088112
1519.970644	1056.088811
1521.901057	1052.939860
1523.827398	1049.481119
1525.755130	1045.267133
1527.680611	1036.065734
1529.605663	1029.696503
1531.530286	1027.234965
1533.454480	1029.178322
1535.376426	1038.364336
1537.299763	1039.612587
1539.220853	1038.376224
1541.139700	1044.551049
1543.059935	1039.666434
1544.977928	1032.433566
1546.895494	1034.899301
1548.810818	1030.572028
1550.727532	1026.620979
1552.640191	1029.523776
1554.556054	1036.809091
1556.469677	1043.290909
1558.381062	1045.909091
1560.293837	1045.166434
1562.202562	1039.268531
1564.112676	1040.915385
1566.022367	1035.858741
1567.931635	1031.060140
1569.838669	1027.692308
1571.743470	1024.996503
1573.649660	1024.416783
1575.553618	1030.562238
1577.457155	1031.302797
1579.360272	1031.358741
1581.261159	1023.965734
1583.163435	1022.588811
1585.063483	1016.564336
1586.964918	1017.221678
1588.862320	1014.979021
1590.759303	1017.339860
1592.655868	1017.144056
1594.553821	1027.965035
1596.445939	1021.270629
1598.341250	1025.009091
1600.236144	1019.104196
1602.128816	1018.841958
1604.021071	1012.307692
1605.911107	1010.871329
1607.800727	1011.081119
1609.689932	1009.241259
1611.578722	1009.203497
1613.465294	1012.598601
1615.353254	1014.920280
1617.237197	1015.011888
1619.122527	1004.881119
1621.007444	1002.679720
1622.890147	995.554545
1624.774237	993.868531
1626.654315	988.391608
1628.535781	990.389510
1630.415036	990.394406
1632.295677	988.248951
1634.170514	986.862238
1636.050332	989.388112
1637.926146	992.758741
1639.801549	989.226573
1641.678338	987.065035
1643.549331	986.629371
1645.423505	998.118182
1647.293680	1003.917483
1649.167037	1007.258741
1651.038190	1018.053147
1652.907141	1015.013287
1654.777477	1008.023077
1656.643821	1000.056643
1658.511550	996.259441
1660.377080	980.321678
1662.243996	962.346154
1664.106923	953.341259
1665.971235	950.915385
1667.833351	954.142657
1669.695062	953.458042
1671.558159	956.251748
1673.419060	962.649650
1675.277769	960.759441
1677.136074	967.612587
1678.995764	967.118182
1680.849686	970.306294
1682.706782	963.318881
1684.563475	960.455944
1686.416191	958.399301
1688.272079	950.928671
1690.123993	948.433566
1691.975506	955.005594
1693.826618	957.890210
1695.677330	960.685315
1697.527641	962.553147
1699.375767	973.197902
1701.225278	973.407692
1703.069040	977.641259
1704.917751	970.698601
1706.760716	961.752448
1708.606848	957.126573
1710.449017	954.093706
1712.294352	951.943357
1714.133946	951.602797
1715.974924	947.428671
1717.817285	952.379720
1719.655690	949.690909
1721.495478	956.553147
1723.333091	954.040559
1725.170308	955.295105
1727.005352	948.487413
1728.841779	948.354545
1730.676034	953.243357
1732.509894	952.307692
1734.343360	944.894406
1736.172881	941.516783
1738.005560	934.330769
1739.834295	932.234266
1741.666187	924.080420
1743.494137	928.971329
1745.321696	927.816783
1747.148862	933.697902
1748.975637	930.236364
1750.802020	939.075524
1752.624467	947.196503
1754.450069	949.173427
1756.271736	947.739161
1758.094785	950.804895
1759.915672	937.620979
1761.736171	933.774126
1763.558051	929.874825
1765.374231	931.540559
1767.193563	926.527273
1769.008968	924.503497
1770.827523	920.629371
1772.642153	922.616783
1774.456396	921.587413
1776.270253	921.044755
1778.083723	916.014685
1779.895040	915.130769
1781.707737	903.528671
1783.520049	904.627273
1785.328443	905.260839
1787.138217	910.704895
1788.944077	910.890210
1790.753082	918.575524
1792.558174	917.333566
1794.364647	918.244056
1796.170736	918.637063
1797.972914	924.709790
1799.778237	924.243357
1801.579651	925.259441
1803.382445	922.448951
1805.181333	925.104895
1806.981602	924.329371
1808.781489	923.218182
1810.579234	914.913986
1812.376599	914.793706
1814.173584	902.233566
1815.970188	897.530769
1817.764653	897.355944
1819.560497	895.260140
1821.350686	899.825175
1823.145772	905.858042
1824.935206	903.969231
1826.727776	909.333566
1828.518211	912.539860
1830.306512	915.708392
1832.097948	910.844056
1833.883738	915.295804
1835.670908	908.489510
1837.455946	910.820280
1839.244118	910.596503
1841.028404	905.217483
1842.810560	906.227273
1844.594096	906.585315
1846.375503	904.972028
1848.158289	911.473427
1849.937194	914.837063
1851.717479	911.727972
1853.495637	908.900699
1855.275174	907.962937
1857.052586	904.633566
1858.827874	904.544755
1860.604540	902.094406
1862.379084	902.190909
1864.155006	908.784615
1865.925307	911.465734
1867.698736	913.235664
1869.470045	913.254545
1871.240983	911.125874
1873.013299	903.572028
1874.780001	900.768531
1876.549829	894.410490
1878.315793	890.030769
1880.084880	887.060140
1881.850106	882.751049
1883.614964	882.753147
1885.381199	884.600699
1887.143575	879.155944
1888.905584	879.949650
1890.667225	881.503497
1892.428500	883.494406
1894.189407	878.856643
1895.949948	877.709790
1897.708379	879.083916
1899.466444	877.973427
1901.222402	879.072727
1902.979736	869.571329
1904.736705	861.609790
1906.491567	857.620979
1908.244325	855.192308
1909.996718	859.285315
1911.750488	861.762238
1913.502154	858.863636
1915.251718	860.202797
1917.002657	860.299301
1918.753234	863.462937
1920.499971	867.905594
1922.248085	866.539860
1923.994099	860.151748
1925.741488	851.664336
1927.486780	852.799301
1929.229974	850.172028
1930.974543	857.556643
1932.717017	860.461538
1934.459130	864.667832
1936.200883	872.618182
1937.942276	873.225874
1939.681576	876.714685
1941.420517	876.568531
1943.159099	874.151748
1944.895590	872.802797
1946.631723	865.430070
1948.369230	866.215385
1950.102915	861.383916
1951.837975	861.313287
1953.570946	853.522378
1955.303561	846.423776
1957.035820	841.581818
1958.767722	839.055245
1960.497538	836.726573
1962.225269	837.211888
1963.954375	847.170629
1965.683126	851.016084
1967.409793	856.349650
1969.136106	860.339860
1970.863792	860.387413
1972.585942	857.565734
1974.311193	851.281818
1976.032637	848.951748
1977.757182	854.331469
1979.479646	854.069231
1981.198308	855.364336
1982.920068	855.532867
1984.638026	859.634266
1986.357357	855.739161
1988.072889	855.471329
1989.793241	851.606294
1991.509795	851.054545
1993.222552	850.789510
1994.938405	851.961538
1996.652186	854.772028
1998.365617	860.598601
2000.076977	859.768531
2001.789709	863.756643
2003.498651	857.879720
2005.210685	858.254545
2006.917211	855.681119
2008.626828	855.581818
2010.334379	851.467832
2012.041581	848.444755
2013.746718	846.750350
2015.451509	844.493706
2017.157671	841.986014
2018.860051	844.144755
2020.563802	843.935664
2022.265491	846.719580
2023.966835	846.244755
2025.667833	854.617483
2027.366770	863.103497
2029.067079	866.239161
2030.763613	865.396503
2032.461518	858.676224
2034.157364	849.551049
2035.856296	849.549650
2037.549742	850.468531
2039.244559	848.697203
2040.939034	844.109091
2042.629740	841.002797
2044.323530	840.927273
2046.013553	845.055245
2047.704947	845.337762
2049.394288	841.835664
2051.084999	834.192308
2052.771947	825.366434
2054.458556	819.900699
2056.146534	828.841259
2057.830753	829.116084
2059.516343	824.827972
2061.201593	823.189510
2062.884794	823.534266
2064.569366	826.111189
2066.248475	830.025874
2067.932369	828.321678
2069.610802	826.397203
2071.292313	822.247552
2072.970072	824.026573
2074.647495	822.688811
2076.326287	824.772028
2078.003037	821.713287
2079.677745	818.486014
2081.353822	816.849650
2083.027859	820.952448
2084.701560	824.269231
2086.374926	830.499301
2088.046253	826.146853
2089.717246	826.832168
2091.387905	824.392308
2093.058230	820.978322
2094.728221	813.939860
2096.396176	811.733566
2098.063798	807.352448
2099.729385	800.698601
2101.396341	795.527972
2103.061264	797.112587
2104.725855	800.671329
2106.388414	807.053147
2108.052341	804.014685
2109.714237	807.473427
2111.375803	812.676224
2113.037037	816.869231
2114.696243	825.236364
2116.355118	832.072028
2118.013664	830.947552
2119.671880	831.618881
2121.326372	824.478322
2122.983929	824.166434
2124.641157	819.155245
2126.294663	815.689510
2127.949537	811.522378
2129.600692	809.626573
2131.254910	809.932867
2132.905411	810.526573
2134.557278	816.487413
2136.203737	813.365035
2137.854951	813.342657
2139.502451	815.004196
2141.151318	810.113986
2142.798166	814.346853
2144.444689	811.704895
2146.090886	818.318881
2147.733375	818.150350
2149.378922	816.431469
2151.020762	815.518182
2152.665659	816.273427
2154.306850	811.622378
2155.947719	812.681119
2157.588263	815.495804
2159.226795	812.012587
2160.866693	808.378322
2162.502891	809.900000
2164.140455	808.434266
2165.777697	806.701399
2167.412929	802.637762
2169.047840	796.590909
2170.682428	798.027273
2172.316696	794.874825
2173.947270	789.744755
2175.580896	797.040559
2177.210830	795.727972
2178.842129	792.150350
2180.471423	796.615385
2182.100398	800.811189
2183.729053	803.719580
2185.357389	801.297902
2186.983723	804.052448
2188.609738	799.185315
2190.233751	806.456643
2191.859130	803.741259
2193.482508	799.848951
2195.107251	801.051049
2196.728313	793.469231
2198.349058	788.720979
2199.971168	786.607692
2201.591280	784.501399
2203.209395	782.062238
2204.827195	773.992308
2206.444680	773.440559
2208.061849	777.051748
2209.678703	780.864336
2211.295241	782.475524
2212.909787	781.801399
2214.522340	784.207692
2216.136257	781.058741
2217.748183	780.861538
2219.361472	778.630769
2220.972771	781.520979
2222.582080	784.293007
2224.192753	785.132168
2225.801437	789.659441
2227.409808	790.878322
2229.016193	791.962937
2230.623941	793.063636
2232.229702	787.358741
2233.835152	785.524476
2235.438617	784.444755
2237.043445	779.169930
2238.646289	776.482517
2240.247150	779.827273
2241.849374	788.158741
2243.449616	791.794406
2245.051220	791.463636
2246.649171	792.031469
2248.248485	799.634965
2249.845819	793.184615
2251.442845	789.099301
2253.041233	788.844056
2254.635972	784.529371
2256.228734	778.212587
2257.822859	776.576923
2259.418345	777.909091
2261.010186	785.949650
2262.601721	789.181818
2264.194618	783.057343
2265.782205	785.733566
2267.374488	788.246853
2268.961465	786.924476
2270.551469	787.586713
2272.136169	789.407692
2273.725563	780.688112
2275.309655	779.220979
2276.895107	774.780420
2278.478591	777.527972
2280.065100	785.542657
2281.647976	786.058042
2283.230549	779.847203
2284.812818	781.605594
2286.391457	782.543007
2287.973121	783.356643
2289.551156	773.475874
2291.132214	773.109790
2292.709645	761.637413
2294.285113	757.872727
2295.863603	750.367483
2297.438469	751.281119
2299.013034	759.620629
2300.587299	762.430769
2302.161263	768.731818
2303.734926	772.235664
2305.308290	775.078322
2306.878035	772.402098
2308.447481	769.682517
2310.019945	774.363636
2311.587135	766.463636
2313.157343	758.208392
2314.723936	750.872727
2316.291889	751.299301
2317.857886	757.651049
2319.423586	760.006294
2320.988988	759.117483
2322.552437	764.111189
2324.117245	778.937762
2325.678445	779.446853
2327.242659	785.029371
2328.801611	782.646154
2330.363578	776.308392
2331.923593	771.659441
2333.483314	769.246154
2335.041085	775.288811
2336.598561	770.393706
2338.155743	762.562238
2339.710977	763.419580
2341.265918	774.423077
2342.820564	782.023077
2344.374917	770.079021
2345.928977	767.446154
2347.482742	759.783916
2349.034564	753.464336
2350.584442	747.517483
2352.137328	752.564336
2353.684972	756.809790
2355.235623	752.823776
2356.782683	750.463636
2358.331101	758.198601
2359.879228	758.441958
2361.423766	759.112587
2362.969662	753.200000
2364.513620	758.660140
2366.058935	755.483916
2367.600665	753.544056
2369.143752	759.747552
2370.684903	776.955245
2372.225765	780.077622
2373.766338	775.403497
2375.306622	769.487413
2376.846617	764.122378
2378.383034	757.226573
2379.922452	754.024476
2381.458293	749.125175
2382.995490	750.719580
2384.529112	756.329371
2386.065734	758.531469
2387.600426	769.755944
2389.133188	783.415385
2390.665663	785.962937
2392.196210	777.248951
2393.729755	779.628671
2395.258089	776.979021
2396.787780	778.565734
2398.317184	777.720280
2399.846304	782.848951
2401.375139	787.851748
2402.898768	796.437762
2404.427033	796.481119
2405.950096	800.173427
2407.477792	804.093706
2408.998649	792.488112
2410.524139	778.594406
2412.046068	778.593007
2413.569353	771.331469
2415.090716	771.660839
2416.610160	765.244056
2418.130959	767.711189
2419.649840	764.486014
2421.168438	757.462238
2422.685119	759.202098
2424.203154	759.004196
2425.720908	756.491608
2427.235111	748.516084
2428.749033	745.017483
2430.262675	749.745455
2431.777672	747.287413
2433.289120	750.452448
2434.801923	745.106993
2436.312812	740.641259
2437.823423	734.455944
2439.332122	729.073427
2440.843807	733.201399
2442.351949	730.574126
2443.859813	723.116084
2445.367399	725.290210
2446.871444	731.762238
2448.378474	739.274126
2449.883597	741.301399
2451.388441	745.888112
2452.891379	742.468531
2454.394041	738.553147
2455.896426	744.710490
2457.396906	745.825175
2458.898739	742.460140
2460.398667	734.855944
2461.898320	728.486014
2463.397698	730.697902
2464.895173	738.691608
2466.390746	740.649650
2467.889299	740.108392
2469.384324	741.839860
2470.880701	734.576923
2472.373552	732.599301
2473.867756	735.144755
2475.361686	734.124476
2476.852092	731.964336
2478.345476	731.577622
2479.836962	733.719580
2481.326551	736.958741
2482.815868	740.618182
2484.303289	741.306993
2485.793686	733.086713
2487.280565	732.904196
2488.768795	727.303497
2490.253508	722.660839
2491.737952	726.588112
2493.223746	729.220280
2494.707649	731.392308
2496.192902	733.807692
2497.673022	734.568531
2499.156115	730.927972
2500.637317	727.602098
2502.118250	732.287413
2503.597294	724.720280
2505.076069	724.484615
2506.554576	726.314685
2508.032815	727.377622
2509.510785	735.337063
2510.985250	731.114685
2512.462685	736.207692
2513.936616	735.332168
2515.411897	729.683916
2516.886911	722.781119
2518.358425	720.195105
2519.831288	717.139860
2521.302269	700.944755
2522.774600	700.009790
2524.241817	712.327273
2525.712001	713.328671
2527.180304	716.420979
2528.648342	718.915385
2530.116115	724.690909
2531.583623	731.346154
2533.050866	731.290909
2534.514617	736.576923
2535.979718	732.409091
2537.442942	723.804895
2538.907516	713.541958
2540.368600	720.087413
2541.831034	720.197902
2543.293205	714.712587
2544.751890	715.185315
2546.215147	713.811189
2547.673307	718.176224
2549.132816	725.988112
2550.587231	721.474126
2552.046217	725.667832
2553.503331	719.165035
2554.958574	717.804196
2556.413555	713.408392
2557.866668	721.187413
2559.321129	715.716084
2560.773720	716.451748
2562.226052	713.927273
2563.676517	715.710490
2565.129937	724.504196
2566.578275	721.685315
2568.029569	715.696503
2569.478996	715.394406
2570.924951	711.476923
2572.373861	712.817483
2573.819301	711.538462
2575.266088	714.495804
2576.711013	710.040559
2578.155679	708.268531
2579.601693	703.041259
2581.044241	708.347552
2582.488136	709.011189
2583.928566	713.160839
2585.370343	715.280420
2586.810261	717.119580
2588.251526	719.743357
2589.689329	725.737762
2591.130082	723.563636
2592.565773	721.954545
2594.004413	721.213986
2595.441195	714.557343
2596.876122	709.502797
2598.313996	708.458042
2599.746813	698.647552
2601.180977	698.665734
2602.613287	692.426573
2604.046943	689.183217
2605.478746	693.153846
2606.910295	687.197203
2608.341592	683.912587
2609.771036	688.088811
2611.200228	688.351049
2612.627570	689.064336
2614.056257	692.620979
2615.484693	696.723077
2616.909681	696.553846
2618.336016	699.679720
2619.760502	701.940559
2621.186334	701.017483
2622.608722	706.463636
2624.032456	700.732168
2625.454343	701.480420
2626.875981	698.365035
2628.295773	694.511888
2629.716911	697.061538
2631.137799	695.091608
2632.555249	699.334266
2633.975638	701.799301
2635.392590	704.506993
2636.809293	706.662937
2638.225748	703.734965
2639.641955	702.100000
2641.057914	700.365035
2642.472032	693.297902
2643.885902	686.472727
2645.297934	683.202098
2646.711309	691.200699
2648.121255	688.711888
2649.534137	689.418881
2650.943590	700.445455
2652.352797	707.314685
2653.760168	704.048252
2655.170473	705.884615
2656.578943	704.591608
2657.985577	706.600000
2659.391966	701.800699
2660.796521	706.153846
2662.202420	704.072028
2663.606486	704.909790
2665.010307	694.116783
2666.413884	694.390909
2667.815630	701.779021
2669.218719	690.895804
2670.618390	686.072727
2672.019405	688.581119
2673.417004	684.111189
2674.817533	682.130070
2676.214646	687.831469
2677.613103	697.434965
2679.009733	696.241958
2680.406120	696.293007
2681.802265	698.236364
2683.196585	703.540559
2684.592246	703.834965
2685.984499	697.635664
2687.378094	692.998601
2688.769865	688.974825
2690.162979	679.860140
2691.554269	681.893007
2692.943736	684.174126
2694.332963	684.504196
2695.721951	682.122378
2697.112280	683.139161
2698.497626	687.086014
2699.885895	685.663636
2701.272344	680.150350
2702.658554	675.937063
2704.044525	668.618182
2705.427098	670.350350
2706.811013	667.630769
2708.194690	674.363636
2709.578128	676.380420
2710.958172	676.934965
2712.339556	670.468531
2713.719126	674.725874
2715.100036	675.898601
2716.479132	670.556643
2717.856414	664.274825
2719.235037	666.476224
2720.611847	664.346154
2721.988420	668.219580
2723.364758	672.505594
2724.739285	677.310490
2726.115152	675.241958
2727.487632	678.364336
2728.863028	672.986014
2730.233464	678.726573
2731.605241	680.257343
2732.976783	683.356643
2734.346517	678.978322
2735.717592	675.918182
2737.086858	670.239161
2738.455891	670.491608
2739.823118	670.209091
2741.190112	667.222378
2742.556872	666.998601
2743.923401	673.571329
2745.288124	672.613986
2746.652615	676.477622
2748.016875	684.076224
2749.380902	686.037063
2750.744698	678.458042
2752.105120	674.686713
2753.468452	667.065734
2754.826842	660.209790
2756.188142	657.271329
2757.546072	654.976923
2758.906910	661.016783
2760.265949	667.822378
2761.621619	672.511189
2762.980197	676.123776
2764.335408	685.580420
2765.690390	687.953846
2767.043576	689.310490
2768.399668	686.839860
2769.752395	679.218182
2771.104895	667.544755
2772.457166	661.554545
2773.810776	654.727972
2775.161024	653.784615
2776.509478	655.478322
2777.860838	657.482517
2779.208838	655.211189
2780.558176	654.654545
2781.905722	653.679720
2783.253042	651.674825
2784.600135	643.457343
2785.945437	640.916084
2787.290512	634.641958
2788.635362	630.633566
2789.979986	630.901399
2791.321258	636.542657
2792.663868	648.241958
2794.006252	654.737063
2795.348411	655.387413
2796.687221	664.768531
2798.028931	668.641958
2799.367293	675.104895
2800.706991	672.605594
2802.044905	670.462937
2803.381034	666.348252
2804.716939	662.288811
2806.054182	657.669930
2807.389641	652.084615
2808.724877	649.532168
2810.058330	642.965035
2811.393120	641.411888
2812.724570	647.569930
2814.058915	649.532168
2815.388362	653.141259
2816.719146	654.253147
2818.049708	652.774825
2819.378491	655.819580
2820.708610	661.023776
2822.036951	655.527972
2823.365071	651.164336
2824.691413	648.077622
2826.019092	641.476224
2827.343437	636.160140
2828.669119	631.531469
2829.993025	627.369231
2831.316712	624.860140
2832.641734	633.769930
2833.963426	640.251049
2835.284900	639.818881
2836.606155	642.297203
2837.927191	629.490210
2839.246454	625.320280
2840.567053	628.522378
2841.885881	626.415385
2843.204490	626.667133
2844.521328	628.516783
2845.837949	630.167832
2847.154353	637.644056
2848.468987	649.895804
2849.784957	653.914685
2851.097606	648.840559
2852.411590	644.392308
2853.725358	635.930070
2855.038909	639.128671
2856.350694	643.011888
2857.660712	644.630070
2858.972065	643.139860
2860.280103	639.688811
2861.589475	639.169231
2862.898633	640.887413
2864.207575	648.000000
2865.514753	642.430769
2866.820169	645.838462
2868.126919	651.746154
2869.431906	651.796503
2870.736680	649.927972
2872.039692	651.260839
2873.345585	648.953846
2874.646624	647.908392
2875.948997	652.748951
2877.249610	659.571329
2878.551557	663.503497
2879.853290	663.928671
2881.151720	662.268531
2882.451483	663.946154
2883.749489	665.917483
2885.047283	661.397902
2886.343321	659.059441
2887.640692	659.146154
2888.936307	656.000000
2890.231711	660.499301
2891.526904	664.751748
2892.818800	666.068531
2894.113572	667.000000
2895.405047	662.021678
2896.697855	654.919580
2897.990453	641.191608
2899.279757	637.720280
2900.570393	635.087413
2901.859278	632.006294
2903.149495	631.768531
2904.436421	635.530070
2905.724679	641.758042
2907.011188	652.459441
2908.297489	658.316084
2909.583581	664.013287
2910.867925	658.876923
2912.155140	644.960839
2913.437529	642.797203
2914.721250	638.394406
2916.003225	637.832168
2917.284992	638.217483
2918.565015	638.100699
2919.847907	638.359441
2921.129054	637.553147
2922.406919	641.246154
2923.687653	637.905594
2924.965106	633.353147
2926.242353	631.515385
2927.517858	635.624476
2928.796231	637.183916
2930.069790	638.364336
2931.346216	646.215385
2932.620901	644.313986
2933.893845	639.988811
2935.168121	640.531469
2936.440657	638.381119
2937.712988	635.097203
2938.982047	629.004196
2940.253971	625.151049
2941.524157	628.102098
2942.794139	627.667133
2944.063918	618.838462
2945.331961	620.497203
2946.598267	622.874825
2947.864372	623.534266
2949.131806	620.032867
2950.397506	627.071329
2951.663003	631.588811
2952.928298	631.264336
2954.190328	627.260140
2955.453688	623.011189
2956.716847	621.178322
2957.978274	622.731469
2959.241030	624.542657
2960.502054	622.644755
2961.761348	629.243357
2963.020442	631.767832
2964.279335	631.691608
2965.538028	641.511189
2966.796521	641.486014
2968.053285	633.074825
2969.309849	620.072727
2970.564686	614.327273
2971.820851	614.534266
2973.073762	609.881818
2974.328002	611.703497
2975.582043	604.918182
2976.834358	612.604895
2978.086474	622.574126
2979.336866	637.786713
2980.590113	642.313986
2981.838583	639.769930
2983.089908	639.006993
2984.337983	636.697902
2985.585862	633.890909
2986.833543	627.568531
2988.081027	616.758741
2989.326790	614.569930
2990.572357	605.464336
2991.819251	613.468531
2993.062901	618.258042
2994.307879	626.707692
2995.549613	620.429371
2996.794199	627.092308
2998.037066	631.446853
2999.276692	633.770629
3000.519168	631.364336
3001.758404	630.725175
3002.998968	623.564336
3004.237816	626.197902
3005.476468	624.940559
3006.713406	632.418881
3007.951670	627.388811
3009.188219	627.504196
3010.424575	624.091608
3011.660737	627.236364
3012.895185	626.155944
3014.129441	626.976224
3015.363503	630.045455
3016.595853	636.310490
3017.826491	630.104196
3019.059975	637.184615
3020.291747	633.780420
3021.521809	635.543357
3022.751679	628.149650
3023.979839	624.019580
3025.209325	619.630070
3026.437102	614.586713
3027.664688	612.895804
3028.893601	616.860839
3030.117771	623.449650
3031.344784	630.572727
3032.568573	626.928671
3033.793689	632.704196
3035.017098	630.167133
3036.240317	630.248252
3037.461831	624.903497
3038.686186	628.251049
3039.905806	625.560839
3041.126752	619.991608
3042.347509	619.603497
3043.566562	623.179021
3044.786940	621.518182
3046.004102	621.005594
3047.222590	617.434965
3048.439375	617.375524
3049.655973	611.567832
3050.872382	608.304196
3052.085579	604.254545
3053.301613	611.018182
3054.514435	611.481818
3055.730094	611.402098
3056.941030	617.016783
3058.153291	621.632867
3059.365366	617.655245
3060.577253	620.940559
3061.787444	621.300699
3062.997448	617.360490
3064.207266	609.968531
3065.415388	602.414336
3066.623325	592.944755
3067.829566	590.673077
3069.037132	592.921678
3070.243003	598.889860
3071.448690	602.059441
3072.654191	605.451399
3073.857999	611.735664
3075.063131	621.531818
3076.266570	618.307692
3077.468318	619.075175
3078.669881	619.058042
3079.871261	620.129371
3081.072457	617.620979
3082.271963	613.767832
3083.471286	611.763636
3084.671932	614.476224
3085.870888	607.967832
3087.066650	607.004196
3088.265241	614.309790
3089.460638	611.889510
3090.657358	607.289510
3091.850886	611.640559
3093.047242	614.148951
3094.241912	623.234266
3095.433391	622.919580
3096.629201	616.518182
3097.820318	613.022378
3099.012757	613.797902
3100.202009	613.886014
3101.394086	614.856643
3102.584480	614.829371
3103.771688	609.639860
3104.960219	609.220979
3106.150071	612.359441
3107.336740	613.373427
3108.523228	617.587413
3109.709538	607.165734
3110.897169	599.593007
3112.081618	595.458741
3113.264388	591.909790
3114.449980	592.041958
3115.633893	587.374126
3116.816127	585.606993
3117.998182	592.053147
3119.180059	604.190909
3120.361758	612.917483
3121.541780	615.904196
3122.720125	617.134965
3123.901290	608.971329
3125.079280	607.277622
3126.257094	601.163636
3127.434730	598.584615
3128.610691	595.916783
3129.786475	595.155944
3130.963581	597.376923
3132.139012	603.002098
3133.312770	608.595105
3134.484855	609.087413
3135.658262	606.498601
3136.831492	605.576923
3138.003051	600.601399
3139.175930	607.024476
3140.345642	608.986014
3141.516675	610.714685
3142.686038	608.105594
3143.853730	606.638462
3145.024238	603.351049
3146.190088	604.209091
3147.360246	602.893007
3148.525748	599.196503
3149.691075	594.694406
3150.856229	592.190909
3152.021210	596.016084
3153.187510	601.641958
3154.349158	597.903497
3155.512125	591.274126
3156.674920	589.778322
3157.837542	593.030070
3158.998499	597.474126
3160.159283	601.195105
3161.319895	599.633566
3162.478843	601.869231
3163.637620	597.490210
3164.796225	600.084615
3165.954657	600.279021
3167.112919	603.462238
3168.269518	599.895105
3169.424456	598.506294
3170.580713	602.559441
3171.735309	605.555944
3172.889735	605.223776
3174.042501	602.739860
3175.195096	600.485315
3176.347522	594.129371
3177.499778	586.576224
3178.651863	590.342657
3179.800803	586.656643
3180.952549	596.060140
3182.102637	594.706993
3183.251069	600.317483
3184.399331	605.518881
3185.547425	609.588112
3186.695350	610.506993
3187.841619	614.472727
3188.987720	615.751049
3190.132167	610.323077
3191.276446	612.166434
3192.420557	610.683217
3193.565985	608.590909
3194.708275	610.205594
3195.850398	608.395105
3196.992353	612.893706
3198.134141	612.020979
3199.275762	608.782517
3200.414248	603.073427
3201.554051	605.004196
3202.695172	604.019580
3203.833158	603.637063
3204.969495	608.545455
3206.105666	608.788112
3207.243154	614.072028
3208.378994	613.092308
3209.516151	612.998601
3210.648695	619.081818
3211.785521	615.726573
3212.917735	612.074825
3214.051266	607.065035
3215.184633	602.777622
3216.314872	600.149650
3217.447909	602.156643
3218.577820	596.632867
3219.709047	594.658042
3220.837150	591.268531
3221.968049	586.843357
3223.097304	589.625175
3224.224916	591.919580
3225.349405	589.262238
3226.478170	584.147552
3227.603813	580.382517
3228.729294	580.355944
3229.853133	585.008392
3230.979766	584.998601
3232.101802	582.600000
3233.225154	588.343357
3234.348344	586.541958
3235.471372	586.700000
3236.592760	591.908392
3237.713986	590.215385
3238.833575	586.969231
3239.953002	584.546853
3241.070791	585.376923
3242.191372	585.261538
3243.308840	583.322378
3244.426147	586.181818
3245.543294	584.239161
3246.658805	587.180420
3247.775630	586.832867
3248.889346	589.854545
3250.005851	593.181119
3251.120722	592.363636
3252.232484	591.654545
3253.344086	592.200699
3254.457004	586.547552
3255.569762	583.023776
3256.679414	582.669231
3257.790381	587.321678
3258.901189	585.059441
3260.010365	596.344056
3261.117911	601.939860
3262.226770	604.932867
3263.335472	605.783916
3264.441071	608.502098
3265.547984	608.400699
3266.653268	606.287413
3267.759866	603.274825
3268.863364	604.602797
3269.968177	606.022378
3271.072832	606.678322
3272.174388	604.308392
3273.275788	604.818881
3274.378502	602.520979
3275.481060	605.257343
3276.580521	609.556643
3277.682766	609.253846
3278.781915	607.680420
3279.879440	612.564336
3280.976809	612.911888
3282.076960	617.889510
3283.174019	614.269231
3284.270922	607.706294
3285.367670	599.156643
3286.459860	598.468531
3287.556298	595.076224
3288.651114	591.372727
3289.745776	590.555944
3290.838816	590.701399
3291.931701	593.003497
3293.022967	603.068531
3294.115544	605.876224
3295.206502	613.612587
3296.295840	615.218881
3297.385025	621.001399
3298.475523	624.969930
3299.562936	628.195804
3300.650196	615.544755
3301.738769	605.800699
3302.827190	599.270629
3303.911063	596.198601
3304.999178	591.231469
3306.084211	595.906294
3307.167629	595.359441
3308.252359	600.999301
3309.335473	608.766434
3310.419900	614.990210
3311.501248	623.192308
3312.583908	623.990210
3313.664954	622.562937
3314.745849	620.452448
3315.825130	616.534266
3316.904261	615.311888
3317.984704	614.018182
3319.062072	615.951049
3320.140752	610.839860
3321.217820	610.337063
3322.294739	607.144755
3323.370046	607.661538
3324.445204	607.466434
3325.521673	605.747552
3326.595072	608.276224
3327.668322	603.597203
3328.742882	599.676923
3329.815834	600.716084
3330.887177	602.144056
3331.959831	600.997902
3333.029419	596.082517
3334.100317	596.009091
3335.169608	592.046154
3336.240210	595.782517
3337.309205	598.266434
3338.376594	599.013287
3339.442378	594.860140
3340.512388	597.811189
3341.579335	598.325175
3342.643220	602.034266
3343.709873	602.743357
3344.774921	601.102797
3345.838366	596.038462
3346.901665	600.158042
3347.964817	595.358741
3349.027823	595.979720
3350.090683	595.950350
3351.151941	590.482517
3352.210142	591.434266
3353.272563	599.888112
3354.331929	596.974825
3355.391149	597.465734
3356.451679	600.616783
3357.507699	605.405594
3358.566483	605.304196
3359.620760	609.123077
3360.677801	604.888112
3361.733243	604.732867
3362.789995	611.322378
3363.845148	612.882517
3364.898704	613.788811
3365.950664	614.492308
3367.005385	608.410490
3368.057057	614.297203
3369.108586	612.405594
3370.161423	614.346853
3371.211213	606.432168
3372.262312	604.209091
3373.310365	600.810490
3374.361177	601.951049
3375.408945	607.731469
3376.456570	606.862937
3377.504052	606.946853
3378.549942	608.423776
3379.597140	606.511888
3380.641296	608.293007
3381.688210	602.716783
3382.733532	603.830070
3383.775813	595.409790
3384.817954	592.872727
3385.861402	592.846853
3386.904709	595.249650
3387.946427	602.068531
3388.988003	610.594406
3390.029438	615.255245
3391.069285	614.774825
3392.107543	607.528671
3393.147109	601.283916
3394.186535	602.480420
3395.224373	597.323077
3396.260624	590.599301
3397.296736	594.818881
3398.334155	601.575524
3399.368541	608.413986
3400.404234	613.756643
3401.439788	617.676224
3402.472311	620.454545
3403.507587	618.485315
3404.539832	616.042657
3405.571939	617.593007
3406.602462	616.376923
3407.634292	611.267133
3408.665984	605.281119
3409.694648	611.669930
3410.723175	609.317483
3411.753008	606.193007
3412.782704	603.166434
3413.809374	602.927972
3414.837351	608.069930
3415.862303	610.865734
3416.890005	618.876224
3417.914684	621.066434
3418.940669	618.231469
3419.965074	619.968531
3420.989343	620.297203
3422.012033	622.969231
3423.034587	614.604895
3424.058447	612.030070
3425.079287	612.239161
3426.099991	610.554645
3427.122002	609.326449
3428.140994	608.781319
3429.159850	609.146004
3430.180013	610.647253
3431.197159	613.511813
