-118.059454	14.006044
-115.389854	13.105495
-112.723189	13.511289
-110.057276	14.899301
-107.394295	16.945405
-104.729885	19.325475
-102.068405	21.715385
-99.405496	22.579021
-96.747693	24.418182
-94.088461	25.137762
-91.429977	22.726573
-88.774417	23.829371
-86.117429	22.151049
-83.465539	18.588811
-80.812218	16.671329
-78.161818	13.301399
-75.509988	10.763636
-72.863249	15.458042
-70.215081	15.487413
-67.567655	18.477622
-64.923143	23.018182
-62.277203	26.545455
-59.636344	25.758042
-56.994056	28.643357
-54.354677	27.939161
-51.713868	26.567832
-49.073800	24.946154
-46.438804	23.861538
-43.802380	22.684615
-41.168858	27.090210
-38.533908	26.480420
-35.904023	28.281818
-33.270546	29.270629
-30.642131	30.902797
-28.014450	28.983916
-25.385340	23.234965
-22.761287	-27.539860
-20.133645	-197.039161
-17.511056	-518.493706
-14.889199	-318.218182
-12.268072	808.683916
-9.647675	2409.130070
-7.030167	3698.715385
-4.411230	4569.451748
-1.795178	5016.455245
0.820145	5039.522378
3.434741	4638.560140
6.046454	3825.872028
8.659596	2622.655245
11.267704	1158.706294
13.879394	-190.329371
16.486053	-677.364336
19.094140	-385.884615
21.701503	-14.765734
24.303841	34.883916
26.909757	35.298601
29.510651	35.068531
32.112973	34.636364
34.710278	31.982517
37.311158	32.664336
39.907023	32.300699
42.504317	33.476224
45.100891	31.993007
47.692456	31.045455
50.285449	28.204895
52.875581	31.048252
55.467141	29.295804
58.055841	28.072028
60.645968	29.877622
63.231096	29.842657
65.817652	30.254545
68.403494	33.661538
70.986482	36.369231
73.570896	39.109790
76.148182	40.990909
78.729034	43.691608
81.307037	48.238462
83.884330	52.778322
86.463049	51.477622
89.036786	52.063636
91.611951	54.567832
94.184272	56.856643
96.755885	56.984615
99.324658	60.360140
101.894858	61.981818
104.462220	68.848951
107.031007	78.430769
109.596958	90.593007
112.160074	104.570629
114.726746	126.417483
117.284197	158.206993
119.847333	214.660839
122.405509	319.337762
124.967240	509.506294
127.524014	812.841259
130.082215	1290.997203
132.635462	1949.732168
135.188012	2775.837762
137.744112	3721.958042
140.295264	4712.687413
142.845719	5684.689510
145.395476	6560.993706
147.942414	7256.540559
150.488657	7764.997902
153.036325	8068.638462
155.583297	8215.303497
158.125334	8224.248252
160.666677	8189.280420
163.207327	8136.095804
165.749403	8082.147552
168.288667	8027.641958
170.825123	7985.169231
173.360887	7955.455944
175.898077	7918.848951
178.434576	7872.811189
180.968269	7850.508392
183.499158	7810.594406
186.029360	7783.198601
188.560986	7752.823077
191.089811	7746.218182
193.615837	7741.247552
196.141177	7729.113986
198.667942	7712.131469
201.191911	7693.366434
203.715195	7661.085315
206.237794	7633.945455
208.757600	7607.429371
211.276723	7596.244755
213.795163	7573.304895
216.315027	7574.617483
218.827890	7585.238462
221.344284	7598.581119
223.859996	7618.269231
226.370818	7643.146853
228.883065	7665.625874
231.392530	7685.858042
233.901316	7695.443357
236.409423	7713.144056
238.918955	7723.513287
241.423606	7733.086014
243.927581	7749.662937
246.432980	7781.424476
248.933504	7794.783217
251.437552	7807.442657
253.934628	7822.072727
256.435228	7843.642657
258.933056	7846.449650
261.430211	7853.712587
263.926693	7852.398601
266.418312	7859.449650
268.913451	7852.867133
271.405823	7839.289510
273.897525	7839.118182
276.386464	7837.485315
278.876827	7820.220979
281.364427	7818.222378
283.849268	7813.948252
286.337624	7817.438462
288.819040	7816.186014
291.303970	7822.930070
293.784055	7831.313986
296.267652	7848.018182
298.746406	7850.159441
301.226584	7857.714685
303.704009	7853.810490
306.180771	7857.226573
308.656870	7853.448252
311.130220	7875.430769
313.602908	7882.721678
316.074935	7898.755245
318.546301	7907.446853
321.014922	7902.715385
323.482885	7895.880420
325.952269	7894.374126
328.416831	7882.337063
330.884897	7862.058042
333.348143	7827.916084
335.810731	7806.339860
338.272663	7774.286713
340.733938	7759.910490
343.192479	7723.310490
345.652442	7688.409091
348.109672	7642.837762
350.566248	7596.010490
353.022170	7555.149650
355.475362	7508.907692
357.929977	7448.757343
360.379790	7386.720979
362.833099	7332.276224
365.281610	7266.149650
367.729469	7199.948252
370.178751	7141.623776
372.623239	7075.200699
375.069149	7015.688112
377.514409	6959.673427
379.956951	6901.529371
382.398845	6842.901399
384.840092	6780.023077
387.278623	6717.237063
389.718576	6657.037063
392.155815	6585.277622
394.590342	6511.277622
397.028357	6462.753846
399.461595	6411.758042
401.896254	6372.013986
404.326141	6333.393007
406.759513	6292.628671
409.188115	6257.856643
411.616075	6222.620979
414.045457	6198.475524
416.470073	6175.279021
418.896111	6145.695105
421.321508	6117.297203
423.746265	6102.513287
426.166264	6098.151748
428.587684	6088.350350
431.006407	6085.748951
433.426551	6076.548951
435.844000	6062.562937
438.262869	6058.432867
440.679045	6052.502098
443.090473	6048.402098
445.505379	6037.262937
447.917594	6029.698601
450.329175	6021.501399
452.740122	6012.499301
455.148383	6000.048252
457.556011	5982.003497
459.963007	5965.509790
462.369372	5948.641958
464.773054	5930.029371
467.176106	5920.149650
469.578528	5903.848951
471.980320	5885.772727
474.379435	5868.147552
476.779969	5852.264336
479.179874	5825.625874
481.575056	5804.969930
483.973705	5787.551748
486.367634	5766.224476
488.760937	5744.292308
491.153614	5729.887413
493.545666	5717.550350
495.939136	5693.965734
498.327894	5672.327972
500.713986	5659.283916
503.101498	5637.927273
505.488387	5621.846853
507.872612	5599.051748
510.258255	5593.474825
512.641237	5587.806294
515.021558	5580.724476
517.403298	5573.972727
519.782379	5574.369231
522.162879	5569.721678
524.540721	5555.288112
526.915908	5541.708392
529.290477	5517.748951
531.666464	5486.559441
534.039799	5459.336364
536.414551	5418.616084
538.784618	5382.470629
541.154069	5330.108392
543.524938	5279.011888
545.891127	5224.907692
548.258734	5166.597203
550.623695	5109.309091
552.988043	5050.966434
555.351778	4986.164336
557.716931	4920.617483
560.077412	4861.422378
562.439311	4800.008392
564.798569	4733.051748
567.155190	4673.943357
569.515255	4602.997203
571.868629	4531.931469
574.225448	4461.759441
576.579632	4394.535664
578.933208	4328.523776
581.286175	4276.822378
583.636510	4218.551049
585.988263	4161.072028
588.333339	4117.288112
590.683879	4075.005594
593.027745	4029.380420
595.377073	3995.690210
597.721752	3959.469231
600.063807	3923.230769
602.407279	3895.806294
604.748128	3874.460839
607.088375	3849.715385
609.426001	3837.563636
611.767062	3817.469930
614.103485	3810.241958
616.441325	3815.806294
618.776548	3818.002797
621.109155	3821.078322
623.443178	3823.555944
625.774587	3827.228671
628.105398	3824.010490
630.435612	3824.294406
632.765227	3817.555944
635.090220	3803.264336
637.420653	3795.557343
639.746466	3786.420979
642.069671	3780.547552
644.394293	3773.386713
646.716309	3768.911888
649.037731	3771.571329
651.356551	3778.147552
653.676786	3782.569231
655.996428	3793.309790
658.313469	3805.881818
660.629918	3817.095105
662.943769	3836.455245
665.259036	3858.267133
667.571706	3879.804895
669.885791	3903.505594
672.195276	3933.681119
674.506177	3965.048252
676.814485	4002.365734
679.122205	4045.260140
681.431339	4075.523077
683.735881	4124.272028
686.039837	4160.227273
688.343207	4189.097203
690.647991	4229.753147
692.948189	4265.117483
695.249801	4298.061538
697.550829	4331.670629
699.847274	4356.723077
702.145135	4386.712587
704.442412	4421.765035
706.739106	4452.086014
709.031224	4483.358042
711.326753	4529.354545
713.617708	4551.008392
715.910078	4586.128671
718.199873	4622.494406
720.489087	4659.620280
722.777722	4693.990210
725.063784	4729.505594
727.351261	4755.025175
729.636166	4792.367133
731.920494	4828.939161
734.202253	4858.453846
736.485426	4896.197902
738.768022	4937.170629
741.046062	4972.274126
743.325517	5012.979021
745.604395	5053.944755
747.882699	5096.732168
750.156453	5149.234965
752.431620	5196.394406
754.706214	5235.588112
756.978249	5283.296503
759.251697	5329.908392
761.522587	5380.089510
763.790921	5430.467832
766.060668	5475.343357
768.327861	5515.318881
770.594483	5552.517483
772.860535	5599.262937
775.124036	5632.529371
777.388950	5674.869231
779.653294	5710.903497
781.913109	5741.679720
784.174336	5789.602797
786.434996	5832.604196
788.693110	5881.997203
790.948679	5926.860839
793.207639	5956.394406
795.460100	5985.600699
797.717927	6017.573427
799.971236	6040.991608
802.222005	6055.062937
804.474186	6071.194406
806.723828	6084.462238
808.974883	6092.625874
811.221426	6115.341259
813.469381	6132.715385
815.714802	6156.400699
817.961634	6183.907692
820.207905	6206.720280
822.449671	6234.053846
824.694821	6264.885315
826.933498	6294.621678
829.175557	6320.574126
831.413118	6345.444056
833.652091	6372.857343
835.888537	6402.909091
838.126394	6443.926573
840.361726	6486.789510
842.594535	6543.944755
844.828755	6600.023077
847.060452	6660.841958
849.291595	6723.306294
851.522183	6793.608392
853.752217	6871.611189
855.981697	6954.640559
858.206695	7034.091608
860.435068	7135.319580
862.658961	7235.380420
864.884266	7347.621678
867.105095	7469.174825
869.329296	7607.532867
871.549024	7749.920280
873.770162	7898.090210
875.990750	8036.206294
878.208829	8182.189510
880.428317	8323.158741
882.643339	8448.651748
884.857814	8561.537762
887.071740	8663.614685
889.285120	8738.670629
891.497952	8805.060140
893.710238	8856.476923
895.920021	8897.510490
898.129259	8916.518182
900.337952	8922.413986
902.544146	8894.960839
904.751749	8849.817483
906.956854	8774.451049
909.161416	8677.534266
911.363483	8567.211189
913.566959	8437.592308
915.767941	8291.974126
917.968381	8137.631469
920.170230	7958.713986
922.365688	7766.911888
924.564505	7574.995105
926.758883	7393.398601
928.956619	7202.902098
931.149919	7010.952448
933.344628	6837.404196
935.536851	6675.072028
937.728535	6535.610490
939.919682	6425.130070
942.108346	6328.995105
944.296474	6253.751049
946.482121	6188.611888
948.671120	6149.820280
950.855696	6129.857343
953.039737	6120.144755
955.227128	6122.830070
957.406215	6129.360140
959.588653	6139.320979
961.770557	6143.035664
963.949986	6142.741958
966.126943	6146.225175
968.305308	6129.504895
970.485080	6101.359441
972.658503	6070.097902
974.835272	6041.815385
977.007634	6004.737063
979.181404	5948.839161
981.350770	5890.141259
983.523480	5825.774825
985.693725	5745.302797
987.863441	5668.284615
990.032628	5580.682517
992.197418	5494.934266
994.365549	5403.143357
996.529286	5317.933566
998.694429	5232.222378
1000.857113	5158.016084
1003.019272	5074.820979
1005.178974	4981.913287
1007.338151	4899.689510
1009.498735	4814.684615
1011.656865	4726.637762
1013.814470	4638.257343
1015.971552	4553.824476
1018.128110	4481.611189
1020.280289	4408.742657
1022.433875	4351.886014
1024.586939	4288.370629
1026.737554	4238.472028
1028.889576	4190.560839
1031.037224	4151.793706
1033.188204	4116.624476
1035.334813	4069.325874
1037.480903	4020.167832
1039.626475	3959.272727
1041.773452	3917.286713
1043.914140	3875.925874
1046.058158	3835.090909
1048.199735	3797.407692
1050.340796	3766.606294
1052.483261	3739.108392
1054.619447	3715.213287
1056.758958	3685.676923
1058.894115	3654.241958
1061.032596	3619.171329
1063.166723	3586.134266
1065.300337	3549.316783
1067.435356	3517.429371
1069.566025	3487.783916
1071.698099	3461.283916
1073.827744	3424.194406
1075.956877	3398.341958
1078.085498	3359.426573
1080.213608	3314.813986
1082.339292	3270.072028
1084.464466	3228.144755
1086.591044	3183.170629
1088.713284	3137.813986
1090.836929	3091.630070
1092.956239	3041.937063
1095.080779	3002.041958
1097.199073	2957.979720
1099.318772	2911.173427
1101.436052	2869.069930
1103.552826	2816.858741
1105.669093	2765.865035
1107.782944	2723.266434
1109.898200	2671.274126
1112.009132	2615.827972
1114.123377	2561.988112
1116.233301	2515.194406
1118.344629	2471.779720
1120.455452	2425.016084
1122.561959	2381.702098
1124.671776	2335.168531
1126.777278	2299.981818
1128.884183	2257.670629
1130.984873	2219.256643
1133.090775	2182.330769
1135.192368	2143.273427
1137.295364	2102.989510
1139.397859	2065.987413
1141.494147	2028.694406
1143.595643	1988.500699
1145.692835	1945.030070
1147.789530	1909.200000
1149.885726	1864.692308
1151.981425	1830.711189
1154.076625	1796.639161
1156.169429	1761.402797
1158.263636	1731.539860
1160.351651	1714.095105
1162.444864	1690.190909
1164.531889	1669.267832
1166.622213	1639.719580
1168.708250	1611.976224
1170.797584	1587.228671
1172.880737	1565.259441
1174.965292	1543.061538
1177.051249	1518.537063
1179.132924	1492.647552
1181.216001	1470.247552
1183.296692	1455.679021
1185.376891	1443.417483
1187.456599	1425.259441
1189.535816	1411.072028
1191.612651	1390.434965
1193.687105	1371.610490
1195.764850	1353.873427
1197.838326	1344.420979
1199.913202	1335.568531
1201.983811	1315.555245
1204.055821	1303.117483
1206.125456	1297.600000
1208.196491	1290.907692
1210.267038	1280.751748
1212.333324	1273.981818
1214.401011	1267.870629
1216.466326	1262.155944
1218.533041	1256.158042
1220.595500	1248.765734
1222.661244	1249.541958
1224.722734	1238.916084
1226.785625	1221.292308
1228.846148	1219.415385
1230.906187	1215.451049
1232.965744	1208.923077
1235.022935	1199.488112
1237.079645	1195.000000
1239.133991	1193.826573
1241.191619	1199.171329
1243.246884	1203.011189
1245.297908	1205.023077
1247.350332	1206.445455
1249.402276	1193.890210
1251.451862	1191.574126
1253.500969	1200.276224
1255.549598	1202.127972
1257.597748	1200.417483
1259.645419	1192.554545
1261.688860	1189.946154
1263.735577	1187.987413
1265.779940	1187.327972
1267.823827	1184.029371
1269.865362	1179.630070
1271.904548	1171.502797
1273.947007	1160.443357
1275.985243	1161.856643
1278.024878	1163.508392
1280.064038	1162.325874
1282.098979	1156.748252
1284.135319	1152.118881
1286.169315	1155.546853
1288.204708	1158.815385
1290.235889	1164.784615
1292.268467	1172.180420
1294.300574	1181.008392
1296.330340	1182.883916
1298.361504	1183.119580
1300.388460	1186.096503
1302.416814	1187.539161
1304.440963	1180.145455
1306.468378	1172.558741
1308.491590	1169.708392
1310.516200	1168.217483
1312.538476	1160.034266
1314.562149	1161.840559
1316.583489	1164.356643
1318.604361	1165.572727
1320.624766	1169.381818
1322.640978	1173.572727
1324.658587	1179.525874
1326.673868	1186.832168
1328.692408	1183.701399
1330.706759	1191.060839
1332.718784	1193.619580
1334.734066	1190.992308
1336.745163	1187.899301
1338.757657	1190.848252
1340.765968	1191.160839
1342.777534	1196.215385
1344.783062	1198.356643
1346.791845	1198.909091
1348.796450	1202.954545
1350.804309	1206.616783
1352.811706	1204.925874
1354.813072	1211.888112
1356.815834	1211.227972
1358.818137	1213.718881
1360.819980	1215.059441
1362.821363	1214.764336
1364.820433	1217.076923
1366.819044	1215.402797
1368.817197	1210.353147
1370.814891	1208.448252
1372.808423	1210.055944
1374.803351	1213.072727
1376.797821	1208.110490
1378.791835	1208.325175
1380.783542	1206.760140
1382.774794	1211.085315
1384.763740	1209.181119
1386.754081	1208.304196
1388.743967	1209.641259
1390.731549	1201.802098
1392.718678	1199.265035
1394.703505	1199.713986
1396.689727	1195.523077
1398.673649	1193.542657
1400.657118	1182.834965
1402.640134	1179.841259
1404.620853	1178.996503
1406.602966	1178.655944
1408.582783	1178.246154
1410.562148	1174.039161
1412.537375	1168.581818
1414.515840	1167.537063
1416.492012	1167.928671
1418.467735	1171.095105
1420.443008	1165.165734
1422.415990	1161.834965
1424.388524	1159.739161
1426.360610	1158.575524
1428.332249	1160.202797
1430.299759	1158.007692
1432.272343	1156.290210
1434.237122	1147.830070
1436.206972	1142.009790
1438.172699	1144.430070
1440.139818	1140.873427
1442.104654	1139.055944
1444.065370	1133.599301
1446.031154	1128.861538
1447.990983	1123.797902
1449.952206	1118.474825
1451.914821	1114.618881
1453.873321	1106.254545
1455.831378	1098.387413
1457.788994	1088.716783
1459.746167	1082.869930
1461.701065	1082.802098
1463.657356	1073.202098
1465.611372	1073.881818
1467.564947	1069.663636
1469.516250	1064.844056
1471.468946	1062.843357
1473.419369	1064.153147
1475.369354	1064.998601
1477.318900	1063.647552
1479.266177	1065.316783
1481.211186	1071.221678
1483.157588	1077.811189
1485.103552	1079.609091
1487.049079	1074.909091
1488.992340	1080.538462
1490.935166	1073.094406
1492.875728	1062.741958
1494.817681	1057.604895
1496.757372	1055.296503
1498.696629	1052.379720
1500.635450	1045.957343
1502.572012	1041.574825
1504.509965	1041.991608
1506.445659	1037.012587
1508.380920	1034.746853
1510.313925	1034.836364
1512.246497	1028.730769
1514.178637	1025.929371
1516.110345	1019.125175
1518.039799	1016.727972
1519.970644	1017.523776
1521.901057	1017.832168
1523.827398	1018.730070
1525.755130	1018.292308
1527.680611	1018.631469
1529.605663	1020.038462
1531.530286	1021.890210
1533.454480	1022.325874
1535.376426	1017.935664
1537.299763	1020.153147
1539.220853	1017.142657
1541.139700	1013.441958
1543.059935	1016.244056
1544.977928	1016.773427
1546.895494	1018.871329
1548.810818	1015.628671
1550.727532	1019.195105
1552.640191	1017.166434
1554.556054	1019.132867
1556.469677	1015.154545
1558.381062	1014.253147
1560.293837	1011.170629
1562.202562	1013.259441
1564.112676	1013.663636
1566.022367	1014.853147
1567.931635	1008.831469
1569.838669	1007.802797
1571.743470	1005.430070
1573.649660	1009.262937
1575.553618	1004.719580
1577.457155	1011.525874
1579.360272	1009.268531
1581.261159	1015.421678
1583.163435	1013.784615
1585.063483	1017.897203
1586.964918	1013.299301
1588.862320	1006.463636
1590.759303	1002.528671
1592.655868	998.885315
1594.553821	996.875524
1596.445939	990.212587
1598.341250	983.811189
1600.236144	985.515385
1602.128816	980.405594
1604.021071	987.181119
1605.911107	983.341958
1607.800727	985.694406
1609.689932	983.058741
1611.578722	987.283916
1613.465294	993.684615
1615.353254	995.152448
1617.237197	989.582517
1619.122527	985.443357
1621.007444	983.176224
1622.890147	978.175524
1624.774237	975.018182
1626.654315	981.243357
1628.535781	976.818881
1630.415036	979.537063
1632.295677	979.562937
1634.170514	977.961538
1636.050332	973.937762
1637.926146	963.094406
1639.801549	956.977622
1641.678338	960.036364
1643.549331	962.793007
1645.423505	963.861538
1647.293680	961.429371
1649.167037	965.612587
1651.038190	967.837063
1652.907141	973.337063
1654.777477	974.718881
1656.643821	965.431469
1658.511550	956.651049
1660.377080	950.959441
1662.243996	952.709091
1664.106923	957.602098
1665.971235	963.167832
1667.833351	965.174126
1669.695062	960.355245
1671.558159	968.225874
1673.419060	970.708392
1675.277769	970.446853
1677.136074	958.957343
1678.995764	949.474825
1680.849686	950.388112
1682.706782	947.895105
1684.563475	954.712587
1686.416191	959.453846
1688.272079	964.303497
1690.123993	962.221678
1691.975506	957.399301
1693.826618	955.558741
1695.677330	953.044755
1697.527641	943.137762
1699.375767	932.716783
1701.225278	939.613287
1703.069040	933.720979
1704.917751	927.880420
1706.760716	942.186014
1708.606848	940.104895
1710.449017	943.428671
1712.294352	937.002797
1714.133946	935.612587
1715.974924	938.043357
1717.817285	940.109091
1719.655690	934.200699
1721.495478	934.934266
1723.333091	938.528671
1725.170308	924.732867
1727.005352	932.604895
1728.841779	940.318881
1730.676034	933.305594
1732.509894	930.439161
1734.343360	928.664336
1736.172881	928.698601
1738.005560	930.421678
1739.834295	932.139860
1741.666187	938.376224
1743.494137	944.886713
1745.321696	938.333566
1747.148862	937.595105
1748.975637	940.269930
1750.802020	935.079720
1752.624467	927.196503
1754.450069	920.780420
1756.271736	923.588811
1758.094785	917.643357
1759.915672	920.213986
1761.736171	925.145455
1763.558051	927.385315
1765.374231	928.095804
1767.193563	913.776224
1769.008968	909.478322
1770.827523	898.839161
1772.642153	892.483217
1774.456396	889.764336
1776.270253	891.615385
1778.083723	897.567832
1779.895040	896.959441
1781.707737	906.876923
1783.520049	909.814685
1785.328443	913.422378
1787.138217	914.789510
1788.944077	905.172727
1790.753082	901.513986
1792.558174	896.516783
1794.364647	894.200000
1796.170736	901.823077
1797.972914	906.294406
1799.778237	909.645455
1801.579651	914.465734
1803.382445	916.662937
1805.181333	907.298601
1806.981602	903.044056
1808.781489	897.148951
1810.579234	897.065734
1812.376599	897.260839
1814.173584	887.093706
1815.970188	888.128671
1817.764653	891.745455
1819.560497	891.427273
1821.350686	893.066434
1823.145772	893.648252
1824.935206	892.632867
1826.727776	890.139161
1828.518211	894.459441
1830.306512	905.104196
1832.097948	911.427273
1833.883738	907.153147
1835.670908	896.045455
1837.455946	887.888112
1839.244118	879.742657
1841.028404	871.676224
1842.810560	862.532867
1844.594096	862.784615
1846.375503	864.296503
1848.158289	861.178322
1849.937194	869.655944
1851.717479	871.798601
1853.495637	871.517483
1855.275174	871.184615
1857.052586	863.946853
1858.827874	862.101399
1860.604540	863.544056
1862.379084	868.193706
1864.155006	872.123776
1865.925307	884.355245
1867.698736	882.018881
1869.470045	875.969231
1871.240983	878.876224
1873.013299	864.988811
1874.780001	862.674825
1876.549829	857.136364
1878.315793	844.959441
1880.084880	850.029371
1881.850106	852.588112
1883.614964	854.160839
1885.381199	852.791608
1887.143575	854.950350
1888.905584	848.425874
1890.667225	843.921678
1892.428500	847.669930
1894.189407	843.276923
1895.949948	847.329371
1897.708379	849.769930
1899.466444	854.183916
1901.222402	861.094406
1902.979736	864.481818
1904.736705	860.439161
1906.491567	864.025874
1908.244325	859.926573
1909.996718	852.920280
1911.750488	846.466434
1913.502154	841.293706
1915.251718	830.330070
1917.002657	828.516783
1918.753234	826.167133
1920.499971	822.893007
1922.248085	823.488112
1923.994099	821.295804
1925.741488	818.393007
1927.486780	820.464336
1929.229974	818.027972
1930.974543	817.706294
1932.717017	820.326573
1934.459130	821.567832
1936.200883	823.634266
1937.942276	828.987413
1939.681576	828.120280
1941.420517	836.553147
1943.159099	839.842657
1944.895590	840.852448
1946.631723	840.545455
1948.369230	836.832867
1950.102915	837.341259
1951.837975	835.236364
1953.570946	837.286713
1955.303561	835.927972
1957.035820	839.193706
1958.767722	832.769231
1960.497538	830.207692
1962.225269	832.532168
1963.954375	831.396503
1965.683126	835.923776
1967.409793	831.883217
1969.136106	831.344755
1970.863792	836.101399
1972.585942	843.603497
1974.311193	847.445455
1976.032637	850.879720
1977.757182	855.174825
1979.479646	853.287413
1981.198308	854.274825
1982.920068	854.118881
1984.638026	849.950350
1986.357357	846.758741
1988.072889	839.761538
1989.793241	838.249650
1991.509795	837.746154
1993.222552	838.030769
1994.938405	836.884615
1996.652186	837.181119
1998.365617	840.173427
2000.076977	844.625874
2001.789709	843.564336
2003.498651	845.392308
2005.210685	837.720280
2006.917211	835.244056
2008.626828	830.016783
2010.334379	827.480420
2012.041581	825.886713
2013.746718	829.000000
2015.451509	831.852448
2017.157671	836.402098
2018.860051	842.294406
2020.563802	843.351748
2022.265491	842.433566
2023.966835	844.274825
2025.667833	837.775524
2027.366770	834.414685
2029.067079	831.331469
2030.763613	826.495105
2032.461518	824.109091
2034.157364	825.571329
2035.856296	822.241958
2037.549742	825.486014
2039.244559	824.806993
2040.939034	822.279720
2042.629740	820.637063
2044.323530	820.553147
2046.013553	818.139161
2047.704947	818.630769
2049.394288	815.218881
2051.084999	813.667832
2052.771947	810.055944
2054.458556	809.088112
2056.146534	814.323776
2057.830753	816.399301
2059.516343	814.509790
2061.201593	815.606294
2062.884794	811.995804
2064.569366	811.316084
2066.248475	805.269231
2067.932369	805.781818
2069.610802	803.719580
2071.292313	800.710490
2072.970072	796.271329
2074.647495	797.296503
2076.326287	801.834266
2078.003037	799.918182
2079.677745	799.190210
2081.353822	801.699301
2083.027859	797.200699
2084.701560	794.829371
2086.374926	793.697902
2088.046253	800.246853
2089.717246	796.464336
2091.387905	792.405594
2093.058230	793.808392
2094.728221	795.795804
2096.396176	795.691608
2098.063798	796.058042
2099.729385	801.971329
2101.396341	801.299301
2103.061264	799.676923
2104.725855	798.441259
2106.388414	803.355944
2108.052341	799.188811
2109.714237	797.542657
2111.375803	799.079720
2113.037037	803.174126
2114.696243	802.770629
2116.355118	803.475524
2118.013664	807.377622
2119.671880	812.448951
2121.326372	807.672028
2122.983929	806.970629
2124.641157	803.445455
2126.294663	803.801399
2127.949537	802.265035
2129.600692	802.761538
2131.254910	798.832867
2132.905411	800.599301
2134.557278	799.295105
2136.203737	801.737762
2137.854951	798.121678
2139.502451	794.204895
2141.151318	789.990909
2142.798166	787.799301
2144.444689	782.995105
2146.090886	786.797902
2147.733375	786.820979
2149.378922	786.002098
2151.020762	785.379720
2152.665659	793.018182
2154.306850	796.072727
2155.947719	797.801399
2157.588263	791.893706
2159.226795	792.278322
2160.866693	790.972028
2162.502891	785.143357
2164.140455	783.054545
2165.777697	779.945455
2167.412929	774.328671
2169.047840	771.260140
2170.682428	767.848951
2172.316696	769.194406
2173.947270	770.260140
2175.580896	775.360140
2177.210830	774.588112
2178.842129	772.774126
2180.471423	773.039860
2182.100398	766.632168
2183.729053	769.362238
2185.357389	763.683916
2186.983723	766.934965
2188.609738	763.490909
2190.233751	765.636364
2191.859130	766.316783
2193.482508	771.720979
2195.107251	772.883916
2196.728313	769.469231
2198.349058	761.493007
2199.971168	757.555944
2201.591280	750.841958
2203.209395	746.111888
2204.827195	741.039161
2206.444680	745.004895
2208.061849	741.910490
2209.678703	745.982517
2211.295241	748.989510
2212.909787	758.201399
2214.522340	760.673427
2216.136257	767.522378
2217.748183	768.083217
2219.361472	764.595804
2220.972771	763.381119
2222.582080	755.125874
2224.192753	749.053147
2225.801437	749.606294
2227.409808	747.465734
2229.016193	749.000000
2230.623941	750.079720
2232.229702	751.695804
2233.835152	751.205594
2235.438617	753.758042
2237.043445	752.644056
2238.646289	753.945455
2240.247150	754.227273
2241.849374	754.295105
2243.449616	752.500699
2245.051220	757.609790
2246.649171	758.806993
2248.248485	766.353147
2249.845819	763.973427
2251.442845	764.711189
2253.041233	765.646853
2254.635972	763.689510
2256.228734	765.332867
2257.822859	766.794406
2259.418345	761.815385
2261.010186	761.379720
2262.601721	761.720280
2264.194618	763.690210
2265.782205	763.628671
2267.374488	769.335664
2268.961465	767.390210
2270.551469	768.337762
2272.136169	762.328671
2273.725563	760.971329
2275.309655	758.950350
2276.895107	754.865734
2278.478591	752.172028
2280.065100	750.812587
2281.647976	755.149650
2283.230549	758.979021
2284.812818	763.406993
2286.391457	766.366434
2287.973121	762.811189
2289.551156	755.821678
2291.132214	741.481818
2292.709645	737.552448
2294.285113	726.499301
2295.863603	721.509091
2297.438469	726.823776
2299.013034	724.888112
2300.587299	731.447552
2302.161263	738.893007
2303.734926	740.820280
2305.308290	744.729371
2306.878035	742.581818
2308.447481	743.373427
2310.019945	736.139860
2311.587135	737.786713
2313.157343	733.248252
2314.723936	730.503497
2316.291889	738.316084
2317.857886	730.681818
2319.423586	737.711888
2320.988988	739.644056
2322.552437	742.250350
2324.117245	745.323077
2325.678445	749.543357
2327.242659	751.025874
2328.801611	749.727972
2330.363578	750.735664
2331.923593	748.155245
2333.483314	743.065035
2335.041085	743.079720
2336.598561	738.099301
2338.155743	743.919580
2339.710977	743.328671
2341.265918	744.729371
2342.820564	745.787413
2344.374917	746.455245
2345.928977	748.458741
2347.482742	754.865035
2349.034564	757.051049
2350.584442	760.076224
2352.137328	758.712587
2353.684972	752.921678
2355.235623	745.776224
2356.782683	739.762937
2358.331101	738.851049
2359.879228	738.117483
2361.423766	745.001399
2362.969662	746.090210
2364.513620	755.288112
2366.058935	752.439860
2367.600665	751.785315
2369.143752	758.236364
2370.684903	758.753147
2372.225765	751.637762
2373.766338	742.470629
2375.306622	740.253846
2376.846617	740.676923
2378.383034	740.042657
2379.922452	750.345455
2381.458293	745.358741
2382.995490	744.113986
2384.529112	734.204895
2386.065734	740.126573
2387.600426	749.065035
2389.133188	753.524476
2390.665663	747.390210
2392.196210	737.408392
2393.729755	739.359441
2395.258089	737.325874
2396.787780	740.422378
2398.317184	747.930769
2399.846304	738.776923
2401.375139	740.360140
2402.898768	736.380420
2404.427033	740.381119
2405.950096	745.397902
2407.477792	744.872727
2408.998649	740.254545
2410.524139	743.771329
2412.046068	748.521678
2413.569353	754.212587
2415.090716	760.417483
2416.610160	759.488811
2418.130959	758.318182
2419.649840	758.891608
2421.168438	754.718881
2422.685119	756.121678
2424.203154	755.582517
2425.720908	750.062937
2427.235111	749.779021
2428.749033	752.666434
2430.262675	750.969231
2431.777672	753.000000
2433.289120	750.709790
2434.801923	754.990210
2436.312812	756.536364
2437.823423	752.428671
2439.332122	752.556643
2440.843807	755.599301
2442.351949	745.216084
2443.859813	740.479021
2445.367399	735.875524
2446.871444	737.571329
2448.378474	737.832168
2449.883597	738.464336
2451.388441	734.400699
2452.891379	735.906993
2454.394041	730.725175
2455.896426	724.679720
2457.396906	724.622378
2458.898739	720.365734
2460.398667	709.704895
2461.898320	710.046853
2463.397698	713.423776
2464.895173	721.165734
2466.390746	725.127273
2467.889299	725.318182
2469.384324	720.353147
2470.880701	722.017483
2472.373552	728.004196
2473.867756	730.272028
2475.361686	727.703497
2476.852092	727.131469
2478.345476	727.884615
2479.836962	732.277622
2481.326551	736.906993
2482.815868	736.516783
2484.303289	728.462937
2485.793686	721.572028
2487.280565	717.688811
2488.768795	715.471329
2490.253508	713.432867
2491.737952	705.846853
2493.223746	698.247552
2494.707649	695.724476
2496.192902	695.217483
2497.673022	698.776224
2499.156115	695.730769
2500.637317	696.092308
2502.118250	696.253147
2503.597294	701.183217
2505.076069	701.371329
2506.554576	698.515385
2508.032815	696.638462
2509.510785	693.634266
2510.985250	699.523077
2512.462685	704.476923
2513.936616	699.491608
2515.411897	702.523776
2516.886911	698.989510
2518.358425	700.572028
2519.831288	699.587413
2521.302269	697.462238
2522.774600	689.520979
2524.241817	687.066434
2525.712001	692.878322
2527.180304	703.212587
2528.648342	720.623776
2530.116115	730.789510
2531.583623	715.123776
2533.050866	717.434965
2534.514617	712.243357
2535.979718	706.903497
2537.442942	701.876224
2538.907516	697.400000
2540.368600	695.407692
2541.831034	700.315385
2543.293205	706.130769
2544.751890	710.844755
2546.215147	714.317483
2547.673307	715.993007
2549.132816	706.720979
2550.587231	711.183217
2552.046217	701.835664
2553.503331	706.950350
2554.958574	706.625874
2556.413555	705.360839
2557.866668	703.940559
2559.321129	700.433566
2560.773720	698.304196
2562.226052	693.226573
2563.676517	693.311189
2565.129937	700.888811
2566.578275	703.670629
2568.029569	707.148252
2569.478996	706.058042
2570.924951	712.603497
2572.373861	705.074825
2573.819301	708.624476
2575.266088	708.500000
2576.711013	705.425175
2578.155679	697.898601
2579.601693	691.672727
2581.044241	685.576923
2582.488136	686.297203
2583.928566	689.729371
2585.370343	695.109790
2586.810261	693.392308
2588.251526	696.039161
2589.689329	696.709091
2591.130082	710.809790
2592.565773	713.013287
2594.004413	705.041958
2595.441195	703.842657
2596.876122	698.467832
2598.313996	686.623077
2599.746813	683.959441
2601.180977	680.675524
2602.613287	678.006294
2604.046943	675.894406
2605.478746	689.414685
2606.910295	687.723077
2608.341592	694.004196
2609.771036	688.356643
2611.200228	686.841958
2612.627570	687.555944
2614.056257	677.578322
2615.484693	668.339161
2616.909681	659.392308
2618.336016	654.251748
2619.760502	655.759441
2621.186334	662.926573
2622.608722	672.195804
2624.032456	670.596503
2625.454343	673.939161
2626.875981	668.923776
2628.295773	676.802098
2629.716911	684.873427
2631.137799	683.257343
2632.555249	683.073427
2633.975638	678.045455
2635.392590	676.940559
2636.809293	677.118881
2638.225748	672.890210
2639.641955	665.205594
2641.057914	661.168531
2642.472032	653.779720
2643.885902	641.520979
2645.297934	650.212587
2646.711309	657.056643
2648.121255	653.104196
2649.534137	661.113986
2650.943590	660.591608
2652.352797	667.570629
2653.760168	672.295804
2655.170473	674.204895
2656.578943	674.357343
2657.985577	676.842657
2659.391966	671.655245
2660.796521	661.991608
2662.202420	666.798601
2663.606486	667.751049
2665.010307	671.656643
2666.413884	679.688811
2667.815630	679.469930
2669.218719	678.058741
2670.618390	680.100699
2672.019405	678.809091
2673.417004	681.235664
2674.817533	676.789510
2676.214646	668.710490
2677.613103	660.678322
2679.009733	664.437063
2680.406120	669.470629
2681.802265	677.179021
2683.196585	680.432867
2684.592246	681.199301
2685.984499	673.127972
2687.378094	676.005594
2688.769865	675.475524
2690.162979	682.348951
2691.554269	673.313986
2692.943736	667.734266
2694.332963	671.625874
2695.721951	668.797203
2697.112280	671.976923
2698.497626	671.613287
2699.885895	669.936364
2701.272344	672.486713
2702.658554	664.831469
2704.044525	664.433566
2705.427098	659.182517
2706.811013	658.938462
2708.194690	657.189510
2709.578128	658.030070
2710.958172	663.231469
2712.339556	656.044056
2713.719126	659.468531
2715.100036	658.480420
2716.479132	658.172727
2717.856414	662.093706
2719.235037	659.569930
2720.611847	651.667832
2721.988420	645.294406
2723.364758	649.649650
2724.739285	650.746853
2726.115152	654.373427
2727.487632	656.961538
2728.863028	655.081818
2730.233464	651.867832
2731.605241	647.330070
2732.976783	646.489510
2734.346517	649.699301
2735.717592	652.533566
2737.086858	646.443357
2738.455891	652.865035
2739.823118	655.877622
2741.190112	656.527972
2742.556872	666.080420
2743.923401	663.976923
2745.288124	664.147552
2746.652615	658.486713
2748.016875	654.481818
2749.380902	649.104895
2750.744698	647.181119
2752.105120	645.853846
2753.468452	640.035664
2754.826842	641.623077
2756.188142	645.472727
2757.546072	647.188811
2758.906910	650.376224
2760.265949	650.002098
2761.621619	652.243357
2762.980197	646.718182
2764.335408	638.179021
2765.690390	627.691608
2767.043576	630.658042
2768.399668	631.539161
2769.752395	628.111189
2771.104895	627.865035
2772.457166	636.823077
2773.810776	640.082517
2775.161024	645.634266
2776.509478	651.320979
2777.860838	655.923776
2779.208838	653.751748
2780.558176	650.787413
2781.905722	652.260140
2783.253042	654.657343
2784.600135	654.625175
2785.945437	646.530070
2787.290512	640.067832
2788.635362	639.511888
2789.979986	633.891608
2791.321258	634.913986
2792.663868	632.185315
2794.006252	635.618182
2795.348411	638.686014
2796.687221	635.599301
2798.028931	633.109790
2799.367293	637.066434
2800.706991	639.230769
2802.044905	638.500000
2803.381034	636.013287
2804.716939	640.967133
2806.054182	642.563636
2807.389641	649.008392
2808.724877	643.844755
2810.058330	644.895105
2811.393120	643.329371
2812.724570	633.448951
2814.058915	630.239161
2815.388362	627.386713
2816.719146	620.711189
2818.049708	622.442657
2819.378491	625.311189
2820.708610	633.746154
2822.036951	634.804895
2823.365071	640.848951
2824.691413	638.672727
2826.019092	639.106993
2827.343437	638.961538
2828.669119	638.560140
2829.993025	634.520979
2831.316712	630.153147
2832.641734	632.746853
2833.963426	637.581818
2835.284900	640.565734
2836.606155	644.997203
2837.927191	645.095804
2839.246454	647.018881
2840.567053	642.435664
2841.885881	638.874825
2843.204490	635.879720
2844.521328	634.628671
2845.837949	624.364336
2847.154353	624.009790
2848.468987	626.805594
2849.784957	626.797902
2851.097606	626.812587
2852.411590	631.762238
2853.725358	636.723776
2855.038909	637.788112
2856.350694	635.702797
2857.660712	625.355245
2858.972065	623.274126
2860.280103	627.765734
2861.589475	623.853846
2862.898633	626.107692
2864.207575	630.387413
2865.514753	628.474825
2866.820169	626.361538
2868.126919	629.350350
2869.431906	631.902797
2870.736680	635.333566
2872.039692	632.550350
2873.345585	631.709790
2874.646624	637.551049
2875.948997	644.940559
2877.249610	645.388112
2878.551557	641.002098
2879.853290	641.758042
2881.151720	640.708392
2882.451483	635.206993
2883.749489	630.622378
2885.047283	630.488811
2886.343321	638.858741
2887.640692	635.220280
2888.936307	642.375524
2890.231711	641.856643
2891.526904	642.898601
2892.818800	638.374126
2894.113572	632.565734
2895.405047	633.634266
2896.697855	634.921678
2897.990453	633.490909
2899.279757	637.253846
2900.570393	637.683916
2901.859278	638.888811
2903.149495	629.588112
2904.436421	632.790909
2905.724679	629.079720
2907.011188	634.984615
2908.297489	630.807692
2909.583581	631.402098
2910.867925	633.431469
2912.155140	633.951748
2913.437529	640.118881
2914.721250	643.895804
2916.003225	635.284615
2917.284992	631.027273
2918.565015	627.490210
2919.847907	626.206294
2921.129054	620.973427
2922.406919	622.284615
2923.687653	614.159441
2924.965106	619.969231
2926.242353	621.090210
2927.517858	624.512587
2928.796231	626.661538
2930.069790	630.051748
2931.346216	628.467133
2932.620901	629.732867
2933.893845	634.361538
2935.168121	634.071329
2936.440657	628.850350
2937.712988	630.454545
2938.982047	626.304196
2940.253971	628.459441
2941.524157	617.274825
2942.794139	618.455245
2944.063918	608.862937
2945.331961	603.763636
2946.598267	595.146853
2947.864372	590.403497
2949.131806	592.006294
2950.397506	596.913986
2951.663003	601.327972
2952.928298	609.936364
2954.190328	607.914685
2955.453688	611.191608
2956.716847	612.625175
2957.978274	623.629371
2959.241030	624.841259
2960.502054	623.491608
2961.761348	614.304196
2963.020442	609.929371
2964.279335	604.227972
2965.538028	602.902098
2966.796521	603.326573
2968.053285	599.200000
2969.309849	599.739161
2970.564686	607.374126
2971.820851	614.095804
2973.073762	622.328671
2974.328002	625.481818
2975.582043	624.489510
2976.834358	617.964336
2978.086474	618.756643
2979.336866	616.462937
2980.590113	615.832867
2981.838583	616.968531
2983.089908	615.492308
2984.337983	617.246853
2985.585862	621.316783
2986.833543	620.093007
2988.081027	622.672727
2989.326790	622.554545
2990.572357	622.153147
2991.819251	616.923776
2993.062901	620.103497
2994.307879	616.413986
2995.549613	613.406294
2996.794199	608.169930
2998.037066	603.839860
2999.276692	598.719580
3000.519168	607.158042
3001.758404	604.208392
3002.998968	608.367832
3004.237816	607.515385
3005.476468	604.900699
3006.713406	603.278322
3007.951670	611.484615
3009.188219	609.775524
3010.424575	613.560140
3011.660737	611.942657
3012.895185	616.962937
3014.129441	620.225874
3015.363503	628.116084
3016.595853	620.415385
3017.826491	624.231469
3019.059975	616.646853
3020.291747	614.311888
3021.521809	616.372727
3022.751679	614.094406
3023.979839	606.196503
3025.209325	609.373427
3026.437102	607.980420
3027.664688	609.737063
3028.893601	607.680420
3030.117771	604.521678
3031.344784	604.376923
3032.568573	612.455245
3033.793689	608.965035
3035.017098	617.820280
3036.240317	620.627273
3037.461831	618.562238
3038.686186	611.954545
3039.905806	614.491608
3041.126752	611.187413
3042.347509	608.748951
3043.566562	602.466434
3044.786940	594.155944
3046.004102	590.523776
3047.222590	590.469231
3048.439375	588.114685
3049.655973	593.351748
3050.872382	591.106993
3052.085579	595.075524
3053.301613	592.932168
3054.514435	598.151049
3055.730094	601.169930
3056.941030	602.858042
3058.153291	601.929371
3059.365366	602.746154
3060.577253	592.562238
3061.787444	592.740559
3062.997448	596.664685
3064.207266	601.877622
3065.415388	605.894056
3066.623325	610.336364
3067.829566	610.273077
3069.037132	610.708392
3070.243003	608.632517
3071.448690	605.243357
3072.654191	601.362587
3073.857999	598.715385
3075.063131	587.666783
3076.266570	587.606294
3077.468318	592.709441
3078.669881	593.113986
3079.871261	593.051748
3081.072457	593.451748
3082.271963	595.474825
3083.471286	598.546154
3084.671932	600.174126
3085.870888	611.719580
3087.066650	613.277622
3088.265241	613.305594
3089.460638	612.115385
3090.657358	612.805594
3091.850886	615.129371
3093.047242	612.218182
3094.241912	608.646853
3095.433391	606.209790
3096.629201	606.992308
3097.820318	609.155944
3099.012757	605.625874
3100.202009	607.647552
3101.394086	598.251049
3102.584480	594.960839
3103.771688	592.776923
3104.960219	594.077622
3106.150071	592.704196
3107.336740	591.164336
3108.523228	589.366434
3109.709538	589.699301
3110.897169	592.067832
3112.081618	593.104196
3113.264388	594.121678
3114.449980	595.009091
3115.633893	600.587413
3116.816127	607.425175
3117.998182	603.899301
3119.180059	607.229371
3120.361758	603.543357
3121.541780	600.337063
3122.720125	595.681818
3123.901290	593.841259
3125.079280	597.076224
3126.257094	596.293706
3127.434730	598.223776
3128.610691	599.061538
3129.786475	604.888811
3130.963581	602.547552
3132.139012	591.518182
3133.312770	591.718182
3134.484855	589.266434
3135.658262	586.124476
3136.831492	587.166434
3138.003051	592.295105
3139.175930	592.406993
3140.345642	592.343357
3141.516675	591.922378
3142.686038	598.288811
3143.853730	600.734965
3145.024238	596.204895
3146.190088	593.725175
3147.360246	600.467832
3148.525748	601.740559
3149.691075	600.718182
3150.856229	604.569930
3152.021210	604.320280
3153.187510	598.715385
3154.349158	595.959441
3155.512125	586.515385
3156.674920	586.384615
3157.837542	580.232867
3158.998499	574.334965
3160.159283	571.542657
3161.319895	570.738462
3162.478843	568.388112
3163.637620	570.630769
3164.796225	571.872727
3165.954657	573.324476
3167.112919	578.066434
3168.269518	579.839161
3169.424456	584.116084
3170.580713	590.368531
3171.735309	589.804196
3172.889735	589.585315
3174.042501	590.611189
3175.195096	592.597902
3176.347522	589.367832
3177.499778	590.737063
3178.651863	585.082517
3179.800803	583.730070
3180.952549	582.574126
3182.102637	579.142657
3183.251069	582.056643
3184.399331	582.460839
3185.547425	581.176224
3186.695350	589.029371
3187.841619	596.759441
3188.987720	603.053846
3190.132167	601.309091
3191.276446	612.223776
3192.420557	609.378322
3193.565985	613.637063
3194.708275	609.460140
3195.850398	606.779720
3196.992353	607.752448
3198.134141	603.567832
3199.275762	593.978322
3200.414248	594.711888
3201.554051	592.811888
3202.695172	594.502797
3203.833158	594.723776
3204.969495	599.541958
3206.105666	597.332168
3207.243154	602.729371
3208.378994	603.060839
3209.516151	600.856643
3210.648695	605.439161
3211.785521	603.100699
3212.917735	598.722378
3214.051266	599.818182
3215.184633	595.019580
3216.314872	596.546154
3217.447909	592.067133
3218.577820	582.230769
3219.709047	578.447552
3220.837150	576.497203
3221.968049	569.162937
3223.097304	563.505594
3224.224916	566.620979
3225.349405	571.151748
3226.478170	578.893007
3227.603813	581.024476
3228.729294	579.695804
3229.853133	582.259441
3230.979766	578.425175
3232.101802	573.567133
3233.225154	576.408392
3234.348344	575.912587
3235.471372	569.751748
3236.592760	574.523077
3237.713986	578.648951
3238.833575	589.403497
3239.953002	588.419580
3241.070791	589.080420
3242.191372	591.865734
3243.308840	586.762937
3244.426147	578.273427
3245.543294	577.240559
3246.658805	580.439860
3247.775630	584.834965
3248.889346	581.652448
3250.005851	586.065035
3251.120722	582.532867
3252.232484	585.867133
3253.344086	579.345455
3254.457004	582.459441
3255.569762	585.655245
3256.679414	584.259441
3257.790381	583.818881
3258.901189	589.047552
3260.010365	588.960839
3261.117911	592.203497
3262.226770	585.220280
3263.335472	586.859441
3264.441071	583.602797
3265.547984	585.005594
3266.653268	584.073427
3267.759866	586.655944
3268.863364	589.634965
3269.968177	594.326573
3271.072832	586.402797
3272.174388	587.163636
3273.275788	586.446853
3274.378502	593.424476
3275.481060	590.013986
3276.580521	596.036364
3277.682766	602.940559
3278.781915	602.791608
3279.879440	605.319580
3280.976809	607.279720
3282.076960	603.963636
3283.174019	594.542657
3284.270922	590.273427
3285.367670	591.137762
3286.459860	590.887413
3287.556298	596.862937
3288.651114	592.238462
3289.745776	587.320280
3290.838816	589.423776
3291.931701	588.161538
3293.022967	588.018182
3294.115544	588.255245
3295.206502	587.415385
3296.295840	588.011888
3297.385025	594.538462
3298.475523	593.434965
3299.562936	598.008392
3300.650196	603.095105
3301.738769	596.551049
3302.827190	588.288811
3303.911063	585.062238
3304.999178	583.332867
3306.084211	577.311888
3307.167629	580.620979
3308.252359	587.722378
3309.335473	591.310490
3310.419900	592.922378
3311.501248	597.346853
3312.583908	604.793007
3313.664954	612.772028
3314.745849	612.047552
3315.825130	613.665035
3316.904261	609.193007
3317.984704	609.121678
3319.062072	604.958741
3320.140752	601.439161
3321.217820	601.479021
3322.294739	597.073427
3323.370046	597.218881
3324.445204	598.639860
3325.521673	600.082517
3326.595072	605.700699
3327.668322	604.662238
3328.742882	606.153147
3329.815834	606.202098
3330.887177	600.639161
3331.959831	592.697203
3333.029419	584.028671
3334.100317	588.382517
3335.169608	592.436364
3336.240210	594.896503
3337.309205	599.591608
3338.376594	600.213986
3339.442378	606.570629
3340.512388	606.565035
3341.579335	603.898601
3342.643220	605.776224
3343.709873	597.788112
3344.774921	593.237063
3345.838366	591.306993
3346.901665	592.838462
3347.964817	596.300000
3349.027823	593.389510
3350.090683	594.682517
3351.151941	592.788811
3352.210142	591.286713
3353.272563	590.486014
3354.331929	590.713287
3355.391149	590.114685
3356.451679	590.672028
3357.507699	591.113986
3358.566483	591.483916
3359.620760	591.901399
3360.677801	597.710490
3361.733243	598.086713
3362.789995	598.757343
3363.845148	597.983217
3364.898704	597.738462
3365.950664	597.724476
3367.005385	598.307692
3368.057057	594.560839
3369.108586	597.068531
3370.161423	596.419580
3371.211213	592.504196
3372.262312	590.405594
3373.310365	595.044755
3374.361177	595.518182
3375.408945	597.367832
3376.456570	600.525175
3377.504052	604.452448
3378.549942	603.268531
3379.597140	606.267832
3380.641296	607.920979
3381.688210	610.334965
3382.733532	611.756643
3383.775813	605.030769
3384.817954	601.879720
3385.861402	600.946154
3386.904709	595.916084
3387.946427	593.402098
3388.988003	590.990909
3390.029438	590.610490
3391.069285	586.027972
3392.107543	582.372727
3393.147109	583.135664
3394.186535	585.881119
3395.224373	591.311888
3396.260624	590.120979
3397.296736	594.373427
3398.334155	596.059441
3399.368541	597.727972
3400.404234	596.841259
3401.439788	595.345455
3402.472311	597.158741
3403.507587	585.727273
3404.539832	581.138462
3405.571939	584.088811
3406.602462	579.437762
3407.634292	583.620280
3408.665984	581.481119
3409.694648	587.648951
3410.723175	593.948252
3411.753008	597.998601
3412.782704	597.387413
3413.809374	600.641259
3414.837351	601.038462
3415.862303	593.894406
3416.890005	599.950350
3417.914684	603.210490
3418.940669	604.697902
3419.965074	612.717483
3420.989343	613.587413
3422.012033	613.275524
3423.034587	614.837762
3424.058447	608.428671
3425.079287	604.302797
3426.099991	596.343856
3427.122002	590.561563
3428.140994	588.810989
3429.159850	592.947203
3430.180013	604.825275
3431.197159	626.300275
