-118.059454	4.929396
-115.389854	2.538462
-112.723189	2.438212
-110.057276	4.162038
-107.394295	7.243332
-104.729885	11.215485
-102.068405	15.611888
-99.405496	21.036364
-96.747693	23.495105
-94.088461	27.162937
-91.429977	24.363636
-88.774417	23.769930
-86.117429	18.983217
-83.465539	16.621678
-80.812218	12.451049
-78.161818	11.310490
-75.509988	10.876923
-72.863249	13.041958
-70.215081	15.111189
-67.567655	20.541958
-64.923143	23.714685
-62.277203	27.113287
-59.636344	24.209790
-56.994056	26.425175
-54.354677	24.149650
-51.713868	22.472727
-49.073800	19.082517
-46.438804	20.324476
-43.802380	20.566434
-41.168858	22.322378
-38.533908	24.353846
-35.904023	27.729371
-33.270546	28.320280
-30.642131	28.601399
-28.014450	26.060839
-25.385340	18.365035
-22.761287	-38.825175
-20.133645	-201.123776
-17.511056	-555.919580
-14.889199	-393.317483
-12.268072	849.697203
-9.647675	2616.044755
-7.030167	4027.170629
-4.411230	4986.202797
-1.795178	5477.525175
0.820145	5508.118182
3.434741	5076.332867
6.046454	4191.610490
8.659596	2884.181818
11.267704	1295.828671
13.879394	-209.780420
16.486053	-783.600000
19.094140	-427.138462
21.701503	-14.246154
24.303841	28.934965
26.909757	31.751748
29.510651	30.372028
32.112973	31.378322
34.710278	28.977622
37.311158	30.171329
39.907023	27.725175
42.504317	28.371329
45.100891	28.889510
47.692456	30.622378
50.285449	30.234965
52.875581	36.076923
55.467141	35.106993
58.055841	36.833566
60.645968	37.693706
63.231096	38.305594
65.817652	39.382517
68.403494	41.397203
70.986482	39.090210
73.570896	38.453846
76.148182	38.930769
78.729034	37.034266
81.307037	32.719580
83.884330	36.927273
86.463049	33.813986
89.036786	36.844056
91.611951	37.663636
94.184272	40.204196
96.755885	44.233566
99.324658	49.699301
101.894858	56.413287
104.462220	64.661538
107.031007	74.120979
109.596958	84.148951
112.160074	97.162937
114.726746	120.976923
117.284197	155.152448
119.847333	215.576923
122.405509	322.277622
124.967240	512.687413
127.524014	830.416783
130.082215	1306.178322
132.635462	1959.253846
135.188012	2778.076224
137.744112	3724.721678
140.295264	4710.935664
142.845719	5676.358741
145.395476	6538.753147
147.942414	7225.467832
150.488657	7721.161538
153.036325	8022.948951
155.583297	8159.848951
158.125334	8189.035664
160.666677	8142.848252
163.207327	8077.455245
165.749403	8018.824476
168.288667	7977.526573
170.825123	7932.653846
173.360887	7898.642657
175.898077	7861.041259
178.434576	7813.644755
180.968269	7786.472727
183.499158	7749.500000
186.029360	7710.414685
188.560986	7683.050350
191.089811	7661.372028
193.615837	7640.164336
196.141177	7635.797203
198.667942	7631.251748
201.191911	7616.819580
203.715195	7601.802098
206.237794	7590.988112
208.757600	7571.432168
211.276723	7570.420979
213.795163	7545.015385
216.315027	7532.953147
218.827890	7542.734965
221.344284	7556.313986
223.859996	7557.720280
226.370818	7584.586713
228.883065	7601.208392
231.392530	7618.067832
233.901316	7638.410490
236.409423	7649.444755
238.918955	7663.469930
241.423606	7689.071329
243.927581	7696.765035
246.432980	7719.902098
248.933504	7743.064336
251.437552	7748.396503
253.934628	7750.648951
256.435228	7767.837762
258.933056	7780.500000
261.430211	7788.636364
263.926693	7791.879720
266.418312	7797.721678
268.913451	7806.793706
271.405823	7801.991608
273.897525	7799.186713
276.386464	7795.296503
278.876827	7787.589510
281.364427	7772.115385
283.849268	7760.290210
286.337624	7754.696503
288.819040	7754.795804
291.303970	7757.400699
293.784055	7759.410490
296.267652	7766.939860
298.746406	7775.460140
301.226584	7777.030070
303.704009	7778.006993
306.180771	7767.401399
308.656870	7763.432168
311.130220	7778.039860
313.602908	7793.348252
316.074935	7808.032867
318.546301	7822.525874
321.014922	7835.418182
323.482885	7838.438462
325.952269	7840.515385
328.416831	7839.245455
330.884897	7822.681119
333.348143	7789.925175
335.810731	7758.315385
338.272663	7736.579720
340.733938	7731.041958
343.192479	7706.032867
345.652442	7666.073427
348.109672	7625.487413
350.566248	7591.568531
353.022170	7548.327972
355.475362	7497.690210
357.929977	7443.763636
360.379790	7386.644056
362.833099	7322.039860
365.281610	7254.648951
367.729469	7191.220979
370.178751	7128.332867
372.623239	7052.865035
375.069149	6980.898601
377.514409	6912.641958
379.956951	6855.039161
382.398845	6783.806294
384.840092	6724.051748
387.278623	6663.910490
389.718576	6605.151748
392.155815	6546.479021
394.590342	6492.216783
397.028357	6450.054545
399.461595	6404.855245
401.896254	6357.820280
404.326141	6319.316783
406.759513	6281.541259
409.188115	6255.526573
411.616075	6226.449650
414.045457	6201.985315
416.470073	6183.481119
418.896111	6161.239860
421.321508	6138.705594
423.746265	6123.018182
426.166264	6102.244056
428.587684	6083.653147
431.006407	6071.149650
433.426551	6067.619580
435.844000	6056.172028
438.262869	6048.939161
440.679045	6047.482517
443.090473	6041.031469
445.505379	6037.841259
447.917594	6024.817483
450.329175	6010.858042
452.740122	5993.196503
455.148383	5969.920979
457.556011	5958.304895
459.963007	5951.971329
462.369372	5941.329371
464.773054	5925.439161
467.176106	5924.464336
469.578528	5910.442657
471.980320	5901.705594
474.379435	5889.258741
476.779969	5874.418881
479.179874	5853.090909
481.575056	5838.082517
483.973705	5814.457343
486.367634	5791.373427
488.760937	5773.116084
491.153614	5748.464336
493.545666	5732.205594
495.939136	5707.588811
498.327894	5675.981818
500.713986	5654.567832
503.101498	5625.916084
505.488387	5608.034266
507.872612	5585.904895
510.258255	5580.699301
512.641237	5562.728671
515.021558	5558.785315
517.403298	5555.092308
519.782379	5552.744056
522.162879	5551.739860
524.540721	5544.390210
526.915908	5535.173427
529.290477	5524.375524
531.666464	5507.207692
534.039799	5483.602098
536.414551	5440.533566
538.784618	5394.691608
541.154069	5333.685315
543.524938	5280.319580
545.891127	5213.634965
548.258734	5155.927972
550.623695	5097.702098
552.988043	5040.748951
555.351778	4982.780420
557.716931	4933.675524
560.077412	4874.998601
562.439311	4814.295804
564.798569	4753.463636
567.155190	4689.422378
569.515255	4623.548252
571.868629	4564.437063
574.225448	4496.975524
576.579632	4437.446853
578.933208	4375.436364
581.286175	4307.878322
583.636510	4250.617483
585.988263	4195.022378
588.333339	4144.352448
590.683879	4098.729371
593.027745	4058.136364
595.377073	4019.644056
597.721752	3988.399301
600.063807	3958.448951
602.407279	3929.298601
604.748128	3899.897902
607.088375	3877.224476
609.426001	3857.967133
611.767062	3849.306993
614.103485	3846.120280
616.441325	3849.747552
618.776548	3854.962937
621.109155	3857.673427
623.443178	3861.662238
625.774587	3870.920979
628.105398	3866.848951
630.435612	3865.160140
632.765227	3857.088112
635.090220	3846.709091
637.420653	3833.202098
639.746466	3823.640559
642.069671	3813.223077
644.394293	3805.025874
646.716309	3799.439161
649.037731	3790.958042
651.356551	3792.728671
653.676786	3800.660140
655.996428	3814.811189
658.313469	3829.203497
660.629918	3848.564336
662.943769	3862.860839
665.259036	3887.573427
667.571706	3914.548252
669.885791	3940.758741
672.195276	3975.783916
674.506177	4011.628671
676.814485	4046.149650
679.122205	4084.942657
681.431339	4122.766434
683.735881	4168.493706
686.039837	4200.942657
688.343207	4230.616084
690.647991	4264.535664
692.948189	4295.574825
695.249801	4323.019580
697.550829	4352.002098
699.847274	4381.961538
702.145135	4413.865734
704.442412	4450.506294
706.739106	4483.286014
709.031224	4515.204895
711.326753	4551.365035
713.617708	4577.283217
715.910078	4606.988811
718.199873	4637.656643
720.489087	4668.430070
722.777722	4704.974126
725.063784	4739.451748
727.351261	4771.193706
729.636166	4813.822378
731.920494	4851.783916
734.202253	4883.235664
736.485426	4916.766434
738.768022	4954.846154
741.046062	4986.703497
743.325517	5027.955944
745.604395	5063.444056
747.882699	5119.376224
750.156453	5169.176923
752.431620	5216.209091
754.706214	5261.148951
756.978249	5310.305594
759.251697	5346.972727
761.522587	5393.213287
763.790921	5443.897902
766.060668	5490.997203
768.327861	5529.130769
770.594483	5569.560140
772.860535	5608.687413
775.124036	5646.993007
777.388950	5676.381818
779.653294	5718.620979
781.913109	5756.423077
784.174336	5803.318182
786.434996	5833.331469
788.693110	5872.981818
790.948679	5909.093007
793.207639	5935.591608
795.460100	5961.879021
797.717927	5985.621678
799.971236	6015.509091
802.222005	6031.439860
804.474186	6059.120979
806.723828	6088.628671
808.974883	6110.030769
811.221426	6135.989510
813.469381	6143.404895
815.714802	6165.051748
817.961634	6197.493706
820.207905	6209.707692
822.449671	6237.199301
824.694821	6261.485315
826.933498	6292.726573
829.175557	6312.523077
831.413118	6338.985315
833.652091	6354.464336
835.888537	6377.402797
838.126394	6408.710490
840.361726	6436.352448
842.594535	6491.139161
844.828755	6547.469231
847.060452	6602.042657
849.291595	6685.446154
851.522183	6766.943357
853.752217	6848.012587
855.981697	6943.006993
858.206695	7040.590909
860.435068	7143.694406
862.658961	7247.299301
864.884266	7358.339161
867.105095	7467.795105
869.329296	7609.393007
871.549024	7745.856643
873.770162	7895.339161
875.990750	8039.318182
878.208829	8179.608392
880.428317	8312.320979
882.643339	8434.360839
884.857814	8544.219580
887.071740	8639.079720
889.285120	8700.376224
891.497952	8764.128671
893.710238	8804.872028
895.920021	8834.223776
898.129259	8842.537762
900.337952	8844.572727
902.544146	8820.267832
904.751749	8771.097203
906.956854	8693.827972
909.161416	8591.363636
911.363483	8491.282517
913.566959	8359.143357
915.767941	8213.069930
917.968381	8054.575524
920.170230	7881.648951
922.365688	7710.179720
924.564505	7541.120979
926.758883	7379.282517
928.956619	7196.018182
931.149919	7016.432168
933.344628	6851.240559
935.536851	6700.669930
937.728535	6568.475524
939.919682	6446.360140
942.108346	6347.079021
944.296474	6260.623077
946.482121	6211.066434
948.671120	6182.666434
950.855696	6154.764336
953.039737	6133.607692
955.227128	6119.031469
957.406215	6115.776224
959.588653	6118.354545
961.770557	6114.937063
963.949986	6115.458741
966.126943	6118.395804
968.305308	6114.067832
970.485080	6092.020979
972.658503	6073.379021
974.835272	6040.846853
977.007634	5995.402098
979.181404	5944.858741
981.350770	5888.938462
983.523480	5821.259441
985.693725	5750.323077
987.863441	5674.394406
990.032628	5593.641259
992.197418	5507.586014
994.365549	5413.630769
996.529286	5311.715385
998.694429	5225.745455
1000.857113	5143.123776
1003.019272	5062.146853
1005.178974	4983.896503
1007.338151	4892.734266
1009.498735	4814.679720
1011.656865	4729.979021
1013.814470	4651.517483
1015.971552	4574.046853
1018.128110	4495.372727
1020.280289	4426.780420
1022.433875	4370.167133
1024.586939	4321.893007
1026.737554	4275.713986
1028.889576	4228.039860
1031.037224	4178.298601
1033.188204	4124.302098
1035.334813	4075.458042
1037.480903	4027.952448
1039.626475	3984.908392
1041.773452	3946.562238
1043.914140	3910.667832
1046.058158	3877.723077
1048.199735	3848.376224
1050.340796	3825.490210
1052.483261	3787.846853
1054.619447	3758.105594
1056.758958	3713.957343
1058.894115	3675.802797
1061.032596	3637.069231
1063.166723	3611.100000
1065.300337	3582.945455
1067.435356	3559.528671
1069.566025	3531.635664
1071.698099	3512.723077
1073.827744	3489.051748
1075.956877	3458.727273
1078.085498	3425.218881
1080.213608	3401.941958
1082.339292	3362.588112
1084.464466	3314.890210
1086.591044	3267.009790
1088.713284	3214.523776
1090.836929	3162.482517
1092.956239	3100.304196
1095.080779	3047.908392
1097.199073	3010.234965
1099.318772	2955.629371
1101.436052	2901.290210
1103.552826	2866.006294
1105.669093	2830.519580
1107.782944	2785.940559
1109.898200	2730.260140
1112.009132	2681.014685
1114.123377	2634.030070
1116.233301	2581.347552
1118.344629	2534.300699
1120.455452	2493.602098
1122.561959	2456.936364
1124.671776	2415.379021
1126.777278	2370.982517
1128.884183	2337.127273
1130.984873	2298.483916
1133.090775	2266.271329
1135.192368	2233.215385
1137.295364	2196.909091
1139.397859	2156.388112
1141.494147	2109.968531
1143.595643	2073.451748
1145.692835	2030.678322
1147.789530	1996.917483
1149.885726	1964.265734
1151.981425	1924.206294
1154.076625	1894.385315
1156.169429	1861.168531
1158.263636	1836.301399
1160.351651	1813.248951
1162.444864	1781.858741
1164.531889	1744.472028
1166.622213	1724.202098
1168.708250	1701.186014
1170.797584	1677.607692
1172.880737	1652.363636
1174.965292	1634.170629
1177.051249	1601.847552
1179.132924	1577.441958
1181.216001	1552.812587
1183.296692	1526.730769
1185.376891	1500.162937
1187.456599	1474.274126
1189.535816	1453.299301
1191.612651	1447.748252
1193.687105	1436.920979
1195.764850	1428.593706
1197.838326	1419.741958
1199.913202	1415.755245
1201.983811	1403.530769
1204.055821	1400.455245
1206.125456	1392.389510
1208.196491	1376.327273
1210.267038	1364.213986
1212.333324	1359.559441
1214.401011	1351.748252
1216.466326	1347.386713
1218.533041	1344.140559
1220.595500	1345.954545
1222.661244	1339.841259
1224.722734	1334.409091
1226.785625	1335.176224
1228.846148	1334.830769
1230.906187	1328.940559
1232.965744	1322.060839
1235.022935	1319.713986
1237.079645	1315.818182
1239.133991	1306.943357
1241.191619	1297.127273
1243.246884	1290.782517
1245.297908	1286.418182
1247.350332	1274.620979
1249.402276	1273.274825
1251.451862	1281.927972
1253.500969	1281.481119
1255.549598	1281.207692
1257.597748	1287.062937
1259.645419	1288.703497
1261.688860	1285.169231
1263.735577	1274.596503
1265.779940	1261.658741
1267.823827	1255.356643
1269.865362	1248.392308
1271.904548	1239.547552
1273.947007	1241.461538
1275.985243	1246.100699
1278.024878	1247.310490
1280.064038	1246.576923
1282.098979	1250.054545
1284.135319	1249.041958
1286.169315	1243.341259
1288.204708	1241.371329
1290.235889	1238.704895
1292.268467	1237.486713
1294.300574	1236.975524
1296.330340	1234.113986
1298.361504	1245.873427
1300.388460	1248.395804
1302.416814	1247.709091
1304.440963	1242.896503
1306.468378	1247.283916
1308.491590	1247.004895
1310.516200	1249.669231
1312.538476	1254.295105
1314.562149	1255.046853
1316.583489	1256.520979
1318.604361	1261.651049
1320.624766	1261.119580
1322.640978	1273.601399
1324.658587	1276.095804
1326.673868	1273.525175
1328.692408	1268.374825
1330.706759	1271.763636
1332.718784	1266.513986
1334.734066	1266.867832
1336.745163	1262.718881
1338.757657	1261.032867
1340.765968	1253.645455
1342.777534	1254.739860
1344.783062	1258.134965
1346.791845	1265.935664
1348.796450	1273.958741
1350.804309	1271.684615
1352.811706	1275.041259
1354.813072	1283.386014
1356.815834	1288.020979
1358.818137	1292.704196
1360.819980	1295.855944
1362.821363	1297.984615
1364.820433	1292.692308
1366.819044	1294.643357
1368.817197	1296.074126
1370.814891	1296.842657
1372.808423	1296.979021
1374.803351	1294.062937
1376.797821	1291.956643
1378.791835	1287.651748
1380.783542	1286.734266
1382.774794	1284.425874
1384.763740	1282.193007
1386.754081	1281.034266
1388.743967	1274.832168
1390.731549	1273.246154
1392.718678	1277.313986
1394.703505	1277.153147
1396.689727	1271.237063
1398.673649	1272.500699
1400.657118	1264.541958
1402.640134	1263.505594
1404.620853	1269.439161
1406.602966	1267.583916
1408.582783	1269.472028
1410.562148	1267.143357
1412.537375	1258.427972
1414.515840	1258.962238
1416.492012	1255.009790
1418.467735	1247.428671
1420.443008	1240.046853
1422.415990	1232.908392
1424.388524	1224.288112
1426.360610	1224.492308
1428.332249	1228.370629
1430.299759	1224.969231
1432.272343	1228.796503
1434.237122	1226.437063
1436.206972	1227.602797
1438.172699	1232.226573
1440.139818	1232.769930
1442.104654	1231.737063
1444.065370	1224.300699
1446.031154	1221.020280
1447.990983	1216.593007
1449.952206	1210.228671
1451.914821	1205.735664
1453.873321	1204.909091
1455.831378	1199.866434
1457.788994	1197.016783
1459.746167	1193.494406
1461.701065	1189.450350
1463.657356	1184.989510
1465.611372	1179.120280
1467.564947	1179.893007
1469.516250	1182.127273
1471.468946	1175.997902
1473.419369	1169.300000
1475.369354	1162.768531
1477.318900	1161.904895
1479.266177	1154.998601
1481.211186	1156.932867
1483.157588	1154.358042
1485.103552	1154.084615
1487.049079	1148.590210
1488.992340	1150.971329
1490.935166	1152.144056
1492.875728	1145.387413
1494.817681	1138.337762
1496.757372	1133.802098
1498.696629	1132.128671
1500.635450	1130.034266
1502.572012	1124.879021
1504.509965	1129.553846
1506.445659	1125.877622
1508.380920	1124.700699
1510.313925	1123.193706
1512.246497	1132.366434
1514.178637	1134.137762
1516.110345	1133.174126
1518.039799	1140.452448
1519.970644	1140.902098
1521.901057	1144.500000
1523.827398	1140.395804
1525.755130	1140.222378
1527.680611	1139.888112
1529.605663	1130.793007
1531.530286	1125.320280
1533.454480	1122.455245
1535.376426	1122.653846
1537.299763	1118.355245
1539.220853	1112.920280
1541.139700	1112.892308
1543.059935	1107.690210
1544.977928	1106.331469
1546.895494	1105.877622
1548.810818	1109.648951
1550.727532	1104.416783
1552.640191	1101.576923
1554.556054	1100.302098
1556.469677	1099.161538
1558.381062	1101.695804
1560.293837	1099.368531
1562.202562	1097.949650
1564.112676	1100.949650
1566.022367	1099.958042
1567.931635	1090.321678
1569.838669	1085.897902
1571.743470	1086.036364
1573.649660	1078.925175
1575.553618	1078.706993
1577.457155	1079.132867
1579.360272	1080.654545
1581.261159	1086.390210
1583.163435	1082.839860
1585.063483	1083.295105
1586.964918	1082.416783
1588.862320	1082.019580
1590.759303	1075.416084
1592.655868	1074.196503
1594.553821	1074.307692
1596.445939	1076.866434
1598.341250	1078.793706
1600.236144	1081.500000
1602.128816	1081.627273
1604.021071	1084.934266
1605.911107	1078.694406
1607.800727	1076.650350
1609.689932	1073.268531
1611.578722	1070.122378
1613.465294	1065.865734
1615.353254	1064.240559
1617.237197	1059.406294
1619.122527	1061.300000
1621.007444	1052.771329
1622.890147	1049.777622
1624.774237	1050.641259
1626.654315	1056.814685
1628.535781	1053.735664
1630.415036	1051.144056
1632.295677	1048.274825
1634.170514	1048.875524
1636.050332	1052.106294
1637.926146	1055.445455
1639.801549	1049.644755
1641.678338	1044.015385
1643.549331	1043.097902
1645.423505	1037.622378
1647.293680	1039.857343
1649.167037	1036.174825
1651.038190	1029.646154
1652.907141	1025.449650
1654.777477	1019.152448
1656.643821	1031.416084
1658.511550	1033.686713
1660.377080	1038.323077
1662.243996	1037.045455
1664.106923	1038.697902
1665.971235	1047.349650
1667.833351	1038.453846
1669.695062	1040.700699
1671.558159	1040.482517
1673.419060	1041.558042
1675.277769	1040.614685
1677.136074	1035.725874
1678.995764	1049.722378
1680.849686	1043.060140
1682.706782	1042.920979
1684.563475	1038.098601
1686.416191	1033.723776
1688.272079	1026.460140
1690.123993	1006.585315
1691.975506	1006.121678
1693.826618	1008.527273
1695.677330	1006.474126
1697.527641	1009.309091
1699.375767	1011.238462
1701.225278	1014.913986
1703.069040	1012.965035
1704.917751	1023.495804
1706.760716	1030.620979
1708.606848	1029.150350
1710.449017	1020.844755
1712.294352	1015.467832
1714.133946	1015.785315
1715.974924	1020.001399
1717.817285	1012.837762
1719.655690	1013.648951
1721.495478	1011.670629
1723.333091	1007.681119
1725.170308	1007.020979
1727.005352	1018.559441
1728.841779	1016.971329
1730.676034	1007.595105
1732.509894	1003.181119
1734.343360	1004.383916
1736.172881	995.453846
1738.005560	994.111189
1739.834295	987.953147
1741.666187	995.397203
1743.494137	995.615385
1745.321696	994.449650
1747.148862	994.795105
1748.975637	999.948252
1750.802020	987.059441
1752.624467	982.967832
1754.450069	977.944056
1756.271736	972.483217
1758.094785	966.704196
1759.915672	972.997203
1761.736171	977.904196
1763.558051	986.964336
1765.374231	989.141259
1767.193563	991.078322
1769.008968	991.193706
1770.827523	991.841958
1772.642153	985.123776
1774.456396	982.571329
1776.270253	971.967832
1778.083723	965.393706
1779.895040	964.862937
1781.707737	968.751049
1783.520049	972.701399
1785.328443	969.809091
1787.138217	968.540559
1788.944077	965.293007
1790.753082	970.366434
1792.558174	968.490909
1794.364647	979.236364
1796.170736	985.568531
1797.972914	988.090210
1799.778237	988.172727
1801.579651	992.591608
1803.382445	985.225874
1805.181333	988.598601
1806.981602	978.626573
1808.781489	973.152448
1810.579234	961.961538
1812.376599	957.104196
1814.173584	947.183916
1815.970188	950.144056
1817.764653	952.688811
1819.560497	960.476224
1821.350686	962.723776
1823.145772	966.349650
1824.935206	964.197203
1826.727776	975.174126
1828.518211	979.842657
1830.306512	978.783916
1832.097948	976.279720
1833.883738	977.293007
1835.670908	977.096503
1837.455946	968.744755
1839.244118	972.579021
1841.028404	965.632867
1842.810560	956.512587
1844.594096	946.327972
1846.375503	943.948951
1848.158289	940.094406
1849.937194	934.953846
1851.717479	929.677622
1853.495637	932.239161
1855.275174	939.446853
1857.052586	940.076224
1858.827874	938.521678
1860.604540	944.309091
1862.379084	941.779720
1864.155006	946.000000
1865.925307	949.186014
1867.698736	958.497902
1869.470045	958.782517
1871.240983	954.453147
1873.013299	952.258741
1874.780001	952.082517
1876.549829	955.649650
1878.315793	952.917483
1880.084880	951.125175
1881.850106	949.221678
1883.614964	949.929371
1885.381199	949.014685
1887.143575	949.072727
1888.905584	950.767832
1890.667225	945.509091
1892.428500	938.444755
1894.189407	931.746154
1895.949948	925.694406
1897.708379	922.458741
1899.466444	920.311888
1901.222402	922.797203
1902.979736	923.239860
1904.736705	926.620979
1906.491567	930.688112
1908.244325	936.213287
1909.996718	940.926573
1911.750488	936.612587
1913.502154	932.193007
1915.251718	923.898601
1917.002657	922.178322
1918.753234	916.825874
1920.499971	910.976923
1922.248085	915.904196
1923.994099	914.487413
1925.741488	907.298601
1927.486780	909.742657
1929.229974	914.265035
1930.974543	915.291608
1932.717017	912.199301
1934.459130	914.170629
1936.200883	915.584266
1937.942276	921.779021
1939.681576	923.163986
1941.420517	918.011189
1943.159099	926.883566
1944.895590	926.053846
1946.631723	921.547902
1948.369230	924.160839
1950.102915	928.710140
1951.837975	926.941259
1953.570946	929.115734
1955.303561	931.461538
1957.035820	927.022727
1958.767722	927.027273
1960.497538	924.955245
1962.225269	917.732168
1963.954375	914.236364
1965.683126	916.664336
1967.409793	916.854545
1969.136106	915.951748
1970.863792	918.818881
1972.585942	923.131469
1974.311193	927.297203
1976.032637	934.514685
1977.757182	928.837063
1979.479646	933.420280
1981.198308	928.981818
1982.920068	925.748951
1984.638026	921.808392
1986.357357	931.751748
1988.072889	925.111189
1989.793241	924.213287
1991.509795	918.910490
1993.222552	916.651049
1994.938405	915.740559
1996.652186	922.377622
1998.365617	919.846154
2000.076977	924.509790
2001.789709	923.313986
2003.498651	927.477622
2005.210685	930.144755
2006.917211	934.316084
2008.626828	929.778322
2010.334379	931.231469
2012.041581	917.752448
2013.746718	915.454545
2015.451509	914.884615
2017.157671	914.624476
2018.860051	913.790210
2020.563802	916.530769
2022.265491	917.200699
2023.966835	918.781818
2025.667833	920.990210
2027.366770	926.096503
2029.067079	928.698601
2030.763613	929.537762
2032.461518	919.109091
2034.157364	917.769930
2035.856296	915.220280
2037.549742	914.413287
2039.244559	916.158741
2040.939034	920.387413
2042.629740	914.769231
2044.323530	916.974825
2046.013553	920.559441
2047.704947	919.302797
2049.394288	916.265734
2051.084999	915.297902
2052.771947	905.282517
2054.458556	903.015385
2056.146534	902.125874
2057.830753	896.411888
2059.516343	897.784615
2061.201593	894.541958
2062.884794	889.375524
2064.569366	890.991608
2066.248475	898.950350
2067.932369	902.910490
2069.610802	904.176224
2071.292313	905.045455
2072.970072	905.314685
2074.647495	907.135664
2076.326287	903.927273
2078.003037	899.910490
2079.677745	899.462238
2081.353822	894.241958
2083.027859	894.165035
2084.701560	894.467133
2086.374926	898.328671
2088.046253	897.971329
2089.717246	891.319580
2091.387905	894.060839
2093.058230	898.855944
2094.728221	897.927273
2096.396176	898.538462
2098.063798	899.212587
2099.729385	899.930070
2101.396341	896.456643
2103.061264	898.433566
2104.725855	894.531469
2106.388414	889.745455
2108.052341	887.741958
2109.714237	884.861538
2111.375803	890.523776
2113.037037	890.641259
2114.696243	889.112587
2116.355118	889.000699
2118.013664	890.274825
2119.671880	888.521678
2121.326372	886.260140
2122.983929	889.584615
2124.641157	885.897902
2126.294663	884.905594
2127.949537	882.201399
2129.600692	880.788112
2131.254910	884.632168
2132.905411	882.761538
2134.557278	881.246853
2136.203737	880.123077
2137.854951	877.367832
2139.502451	878.198601
2141.151318	880.990909
2142.798166	882.378322
2144.444689	885.949650
2146.090886	882.855944
2147.733375	877.408392
2149.378922	873.864336
2151.020762	877.376224
2152.665659	874.848951
2154.306850	874.042657
2155.947719	868.839860
2157.588263	867.310490
2159.226795	871.853846
2160.866693	877.244056
2162.502891	873.741958
2164.140455	874.674825
2165.777697	866.213287
2167.412929	862.334266
2169.047840	863.326573
2170.682428	861.940559
2172.316696	860.041958
2173.947270	864.979021
2175.580896	864.448252
2177.210830	870.209790
2178.842129	868.610490
2180.471423	869.224476
2182.100398	858.554545
2183.729053	856.878322
2185.357389	852.507692
2186.983723	854.891608
2188.609738	853.591608
2190.233751	848.420979
2191.859130	844.213287
2193.482508	845.613287
2195.107251	841.032168
2196.728313	840.957343
2198.349058	830.567133
2199.971168	830.339161
2201.591280	828.509091
2203.209395	834.634965
2204.827195	841.471329
2206.444680	843.982517
2208.061849	843.918881
2209.678703	842.002797
2211.295241	839.027972
2212.909787	843.032867
2214.522340	841.576923
2216.136257	844.522378
2217.748183	838.204895
2219.361472	842.609790
2220.972771	842.929371
2222.582080	847.888811
2224.192753	850.440559
2225.801437	847.841259
2227.409808	844.406993
2229.016193	844.678322
2230.623941	844.584615
2232.229702	850.597902
2233.835152	847.534266
2235.438617	847.939860
2237.043445	850.729371
2238.646289	845.825175
2240.247150	842.397902
2241.849374	849.086713
2243.449616	851.194406
2245.051220	855.789510
2246.649171	845.109790
2248.248485	850.241958
2249.845819	851.051049
2251.442845	858.169231
2253.041233	855.660140
2254.635972	857.833566
2256.228734	856.386014
2257.822859	842.768531
2259.418345	839.289510
2261.010186	839.501399
2262.601721	839.176923
2264.194618	837.644056
2265.782205	829.437063
2267.374488	839.974825
2268.961465	839.243357
2270.551469	847.582517
2272.136169	848.482517
2273.725563	853.032867
2275.309655	845.330769
2276.895107	842.679720
2278.478591	842.583217
2280.065100	842.578322
2281.647976	840.137762
2283.230549	830.323427
2284.812818	824.001399
2286.391457	827.627622
2287.973121	824.420979
2289.551156	831.753497
2291.132214	834.903497
2292.709645	829.284965
2294.285113	825.711888
2295.863603	825.459790
2297.438469	824.697902
2299.013034	818.346503
2300.587299	809.450350
2302.161263	805.293357
2303.734926	809.300000
2305.308290	815.102797
2306.878035	816.289510
2308.447481	825.471329
2310.019945	826.485315
2311.587135	821.818881
2313.157343	836.130769
2314.723936	836.368531
2316.291889	837.109790
2317.857886	836.949650
2319.423586	830.417483
2320.988988	837.451748
2322.552437	843.665035
2324.117245	844.997902
2325.678445	838.138462
2327.242659	843.376923
2328.801611	836.040559
2330.363578	837.093007
2331.923593	841.334266
2333.483314	834.775524
2335.041085	833.615385
2336.598561	829.841259
2338.155743	814.989510
2339.710977	815.944056
2341.265918	816.237762
2342.820564	815.423776
2344.374917	805.898601
2345.928977	810.553846
2347.482742	811.300000
2349.034564	812.574825
2350.584442	813.393007
2352.137328	822.848951
2353.684972	833.864336
2355.235623	840.583217
2356.782683	837.918182
2358.331101	847.841259
2359.879228	851.248951
2361.423766	844.150350
2362.969662	830.720979
2364.513620	828.549650
2366.058935	821.886014
2367.600665	811.563636
2369.143752	810.750350
2370.684903	813.030769
2372.225765	818.295105
2373.766338	823.448252
2375.306622	826.811888
2376.846617	835.321678
2378.383034	833.515385
2379.922452	830.220280
2381.458293	821.195105
2382.995490	814.051748
2384.529112	812.092308
2386.065734	816.879720
2387.600426	813.604196
2389.133188	816.999301
2390.665663	819.788112
2392.196210	822.739860
2393.729755	823.780420
2395.258089	824.069231
2396.787780	826.359441
2398.317184	830.965734
2399.846304	818.408392
2401.375139	809.422378
2402.898768	815.286014
2404.427033	819.152448
2405.950096	821.076923
2407.477792	826.004895
2408.998649	820.432867
2410.524139	823.774126
2412.046068	823.413986
2413.569353	826.432867
2415.090716	817.186713
2416.610160	818.780420
2418.130959	816.344755
2419.649840	818.772028
2421.168438	822.290909
2422.685119	822.654545
2424.203154	830.157343
2425.720908	830.705594
2427.235111	829.923776
2428.749033	833.132168
2430.262675	834.857343
2431.777672	835.567832
2433.289120	827.276224
2434.801923	833.883217
2436.312812	837.454545
2437.823423	826.648252
2439.332122	822.176224
2440.843807	811.718182
2442.351949	811.971329
2443.859813	809.109091
2445.367399	801.210490
2446.871444	798.762937
2448.378474	793.793007
2449.883597	788.747552
2451.388441	785.394406
2452.891379	775.783217
2454.394041	775.946853
2455.896426	774.615385
2457.396906	775.396503
2458.898739	777.790210
2460.398667	786.273427
2461.898320	796.666434
2463.397698	802.729371
2464.895173	808.342657
2466.390746	807.448951
2467.889299	813.039161
2469.384324	808.180420
2470.880701	804.960140
2472.373552	806.802098
2473.867756	803.574825
2475.361686	795.467133
2476.852092	789.139161
2478.345476	778.443357
2479.836962	778.106993
2481.326551	773.013986
2482.815868	774.799301
2484.303289	776.013287
2485.793686	787.522378
2487.280565	784.648252
2488.768795	794.946154
2490.253508	800.027273
2491.737952	802.076224
2493.223746	796.838462
2494.707649	783.406294
2496.192902	773.218881
2497.673022	772.297902
2499.156115	768.141958
2500.637317	773.532867
2502.118250	770.539860
2503.597294	779.447552
2505.076069	782.237063
2506.554576	798.404895
2508.032815	804.708392
2509.510785	808.227273
2510.985250	800.988811
2512.462685	799.130070
2513.936616	793.460839
2515.411897	789.587413
2516.886911	783.732867
2518.358425	782.039161
2519.831288	774.802797
2521.302269	777.806294
2522.774600	778.904895
2524.241817	787.642657
2525.712001	787.177622
2527.180304	786.876224
2528.648342	786.490909
2530.116115	790.924476
2531.583623	787.405594
2533.050866	785.216783
2534.514617	785.004196
2535.979718	786.538462
2537.442942	784.523776
2538.907516	782.890909
2540.368600	779.472028
2541.831034	783.902797
2543.293205	780.539161
2544.751890	778.962238
2546.215147	779.591608
2547.673307	777.494406
2549.132816	777.848951
2550.587231	775.606993
2552.046217	777.363636
2553.503331	777.959441
2554.958574	770.353846
2556.413555	769.352448
2557.866668	772.353147
2559.321129	777.739860
2560.773720	773.491608
2562.226052	772.421678
2563.676517	772.599301
2565.129937	774.516783
2566.578275	777.139860
2568.029569	777.218881
2569.478996	776.100000
2570.924951	772.953147
2572.373861	763.800699
2573.819301	773.448252
2575.266088	768.900000
2576.711013	770.632168
2578.155679	762.806294
2579.601693	762.610490
2581.044241	763.413986
2582.488136	763.190909
2583.928566	765.476224
2585.370343	773.049650
2586.810261	772.514685
2588.251526	773.831469
2589.689329	775.983916
2591.130082	787.469231
2592.565773	777.259441
2594.004413	776.197902
2595.441195	766.105594
2596.876122	762.853846
2598.313996	750.232867
2599.746813	750.656643
2601.180977	749.360839
2602.613287	750.272727
2604.046943	745.524476
2605.478746	749.024476
2606.910295	756.318881
2608.341592	760.776224
2609.771036	756.413986
2611.200228	756.148951
2612.627570	759.346853
2614.056257	763.083217
2615.484693	758.685315
2616.909681	762.167832
2618.336016	761.655245
2619.760502	762.553147
2621.186334	762.064336
2622.608722	763.861538
2624.032456	759.738462
2625.454343	759.768531
2626.875981	755.071329
2628.295773	752.486014
2629.716911	751.959441
2631.137799	748.451049
2632.555249	744.253846
2633.975638	740.998601
2635.392590	748.323776
2636.809293	747.523077
2638.225748	741.788811
2639.641955	739.284615
2641.057914	737.642657
2642.472032	740.047552
2643.885902	738.711888
2645.297934	736.394406
2646.711309	741.416084
2648.121255	742.736364
2649.534137	741.555245
2650.943590	738.909091
2652.352797	743.731469
2653.760168	735.714685
2655.170473	730.295804
2656.578943	732.412587
2657.985577	738.281119
2659.391966	745.896503
2660.796521	753.473427
2662.202420	760.334266
2663.606486	768.016783
2665.010307	764.886014
2666.413884	759.071329
2667.815630	761.600000
2669.218719	760.482517
2670.618390	752.308392
2672.019405	748.913986
2673.417004	743.923776
2674.817533	745.249650
2676.214646	753.037762
2677.613103	751.146154
2679.009733	751.425175
2680.406120	745.897902
2681.802265	737.731469
2683.196585	735.720979
2684.592246	739.238462
2685.984499	734.764336
2687.378094	737.106993
2688.769865	736.432168
2690.162979	725.769231
2691.554269	732.041259
2692.943736	739.056643
2694.332963	731.560839
2695.721951	727.695804
2697.112280	727.767832
2698.497626	730.193706
2699.885895	731.200699
2701.272344	732.833566
2702.658554	731.504196
2704.044525	736.867133
2705.427098	735.921678
2706.811013	735.952448
2708.194690	740.304895
2709.578128	742.523077
2710.958172	736.678322
2712.339556	731.240559
2713.719126	734.308392
2715.100036	731.916084
2716.479132	728.839860
2717.856414	726.646853
2719.235037	724.672028
2720.611847	725.690909
2721.988420	729.563636
2723.364758	734.858741
2724.739285	737.816783
2726.115152	744.388112
2727.487632	742.574126
2728.863028	742.927273
2730.233464	737.493706
2731.605241	734.290210
2732.976783	727.935664
2734.346517	722.346853
2735.717592	716.795804
2737.086858	720.723077
2738.455891	720.416783
2739.823118	720.730769
2741.190112	720.660140
2742.556872	725.369930
2743.923401	728.348951
2745.288124	729.286014
2746.652615	722.098601
2748.016875	722.667832
2749.380902	716.865035
2750.744698	725.219580
2752.105120	725.076224
2753.468452	724.911888
2754.826842	724.159441
2756.188142	726.907692
2757.546072	732.465035
2758.906910	737.505594
2760.265949	730.902797
2761.621619	717.723776
2762.980197	713.562238
2764.335408	712.320979
2765.690390	702.445455
2767.043576	699.856643
2768.399668	694.703497
2769.752395	690.731469
2771.104895	696.949650
2772.457166	696.953846
2773.810776	708.888112
2775.161024	710.658741
2776.509478	709.151049
2777.860838	706.606294
2779.208838	713.717483
2780.558176	713.683916
2781.905722	701.269930
2783.253042	697.695105
2784.600135	697.819580
2785.945437	696.647552
2787.290512	699.830070
2788.635362	693.723077
2789.979986	692.835664
2791.321258	686.241259
2792.663868	684.494406
2794.006252	687.925175
2795.348411	685.879720
2796.687221	682.593007
2798.028931	683.982517
2799.367293	685.400000
2800.706991	695.382517
2802.044905	698.600699
2803.381034	706.128671
2804.716939	704.667832
2806.054182	701.330070
2807.389641	701.748252
2808.724877	702.262937
2810.058330	701.274825
2811.393120	697.431469
2812.724570	698.933566
2814.058915	697.802797
2815.388362	691.637063
2816.719146	689.120979
2818.049708	677.585315
2819.378491	677.055245
2820.708610	677.024476
2822.036951	672.500000
2823.365071	668.953147
2824.691413	675.368531
2826.019092	679.418182
2827.343437	685.601399
2828.669119	691.796503
2829.993025	688.708392
2831.316712	694.038462
2832.641734	693.405594
2833.963426	695.027273
2835.284900	693.002098
2836.606155	697.511189
2837.927191	693.055245
2839.246454	692.002797
2840.567053	694.382517
2841.885881	690.311888
2843.204490	692.239860
2844.521328	691.095804
2845.837949	688.001399
2847.154353	691.078322
2848.468987	687.742657
2849.784957	686.976923
2851.097606	684.327273
2852.411590	687.915385
2853.725358	693.531469
2855.038909	698.025175
2856.350694	694.993706
2857.660712	694.084615
2858.972065	700.526573
2860.280103	702.692308
2861.589475	702.762937
2862.898633	700.195105
2864.207575	701.193007
2865.514753	699.765035
2866.820169	698.991608
2868.126919	698.646154
2869.431906	706.344056
2870.736680	703.071329
2872.039692	696.688811
2873.345585	698.532168
2874.646624	701.927273
2875.948997	706.209790
2877.249610	701.070629
2878.551557	708.963636
2879.853290	715.772028
2881.151720	715.257343
2882.451483	710.967133
2883.749489	702.337762
2885.047283	695.928671
2886.343321	692.019580
2887.640692	686.785315
2888.936307	691.220979
2890.231711	685.602797
2891.526904	688.669231
2892.818800	687.755245
2894.113572	698.297902
2895.405047	692.848252
2896.697855	687.978322
2897.990453	688.338462
2899.279757	687.712587
2900.570393	687.744755
2901.859278	685.465734
2903.149495	681.904895
2904.436421	685.358042
2905.724679	682.716084
2907.011188	682.887413
2908.297489	684.735664
2909.583581	683.388811
2910.867925	679.922378
2912.155140	683.453147
2913.437529	689.330070
2914.721250	694.358042
2916.003225	694.123077
2917.284992	690.560140
2918.565015	682.618182
2919.847907	688.548951
2921.129054	688.970629
2922.406919	694.175524
2923.687653	701.602797
2924.965106	699.695105
2926.242353	700.709091
2927.517858	693.904196
2928.796231	687.921678
2930.069790	682.704196
2931.346216	672.237063
2932.620901	663.977622
2933.893845	654.384615
2935.168121	669.183217
2936.440657	681.734266
2937.712988	695.493007
2938.982047	704.535664
2940.253971	701.498601
2941.524157	699.723077
2942.794139	689.776224
2944.063918	682.537063
2945.331961	674.103497
2946.598267	667.209790
2947.864372	663.400000
2949.131806	663.002098
2950.397506	670.858741
2951.663003	679.465035
2952.928298	683.898601
2954.190328	686.133566
2955.453688	678.085315
2956.716847	680.048951
2957.978274	670.222378
2959.241030	667.496503
2960.502054	664.747552
2961.761348	661.028671
2963.020442	655.953846
2964.279335	654.657343
2965.538028	653.727273
2966.796521	662.608392
2968.053285	667.191608
2969.309849	664.434266
2970.564686	669.039860
2971.820851	669.665035
2973.073762	668.326573
2974.328002	668.040559
2975.582043	669.417483
2976.834358	670.206294
2978.086474	672.623077
2979.336866	676.751748
2980.590113	685.418881
2981.838583	692.890210
2983.089908	695.283916
2984.337983	689.673427
2985.585862	688.443357
2986.833543	677.394406
2988.081027	676.240559
2989.326790	671.209091
2990.572357	667.837063
2991.819251	669.280420
2993.062901	681.093706
2994.307879	684.302098
2995.549613	690.007692
2996.794199	690.035664
2998.037066	690.765035
2999.276692	680.943357
3000.519168	673.080420
3001.758404	666.203497
3002.998968	661.701399
3004.237816	657.299301
3005.476468	652.780420
3006.713406	655.057343
3007.951670	662.569930
3009.188219	659.889510
3010.424575	664.076923
3011.660737	668.591608
3012.895185	669.832168
3014.129441	665.335664
3015.363503	669.952448
3016.595853	667.448252
3017.826491	663.476923
3019.059975	664.420280
3020.291747	663.883916
3021.521809	665.202098
3022.751679	671.371329
3023.979839	668.774126
3025.209325	670.990909
3026.437102	671.025175
3027.664688	663.880420
3028.893601	663.109790
3030.117771	664.009091
3031.344784	664.322378
3032.568573	662.678322
3033.793689	659.818881
3035.017098	664.314685
3036.240317	670.833566
3037.461831	673.849650
3038.686186	667.326573
3039.905806	668.442657
3041.126752	661.911888
3042.347509	661.151748
3043.566562	663.381119
3044.786940	659.947552
3046.004102	662.225874
3047.222590	661.506294
3048.439375	657.049650
3049.655973	657.982517
3050.872382	657.428671
3052.085579	660.010490
3053.301613	654.025874
3054.514435	649.067832
3055.730094	642.029371
3056.941030	643.039161
3058.153291	642.597203
3059.365366	646.135664
3060.577253	648.583217
3061.787444	656.153846
3062.997448	655.686364
3064.207266	654.606294
3065.415388	658.494056
3066.623325	659.030769
3067.829566	653.608741
3069.037132	649.245455
3070.243003	643.735315
3071.448690	640.306294
3072.654191	638.687762
3073.857999	642.816783
3075.063131	644.659790
3076.266570	647.779720
3077.468318	649.320629
3078.669881	650.484615
3079.871261	654.846154
3081.072457	654.974126
3082.271963	656.761538
3083.471286	662.630769
3084.671932	655.582517
3085.870888	651.494406
3087.066650	653.979021
3088.265241	659.846853
3089.460638	661.776224
3090.657358	661.232168
3091.850886	656.160140
3093.047242	650.069231
3094.241912	648.517483
3095.433391	647.525175
3096.629201	651.013986
3097.820318	651.348252
3099.012757	641.793706
3100.202009	643.638462
3101.394086	647.223776
3102.584480	646.618182
3103.771688	643.179720
3104.960219	641.906294
3106.150071	634.859441
3107.336740	630.304196
3108.523228	631.595804
3109.709538	636.315385
3110.897169	636.069930
3112.081618	629.218881
3113.264388	629.120280
3114.449980	634.568531
3115.633893	632.230070
3116.816127	633.178322
3117.998182	631.258741
3119.180059	636.534266
3120.361758	635.321678
3121.541780	636.642657
3122.720125	637.579720
3123.901290	642.523776
3125.079280	638.009790
3126.257094	641.620979
3127.434730	645.804196
3128.610691	644.230769
3129.786475	646.777622
3130.963581	646.813287
3132.139012	644.646853
3133.312770	647.452448
3134.484855	644.553846
3135.658262	640.420280
3136.831492	636.778322
3138.003051	636.886713
3139.175930	636.193706
3140.345642	638.339860
3141.516675	637.423776
3142.686038	637.916084
3143.853730	645.891608
3145.024238	640.455944
3146.190088	642.618881
3147.360246	651.141259
3148.525748	650.035664
3149.691075	647.075524
3150.856229	646.698601
3152.021210	644.088112
3153.187510	641.439860
3154.349158	638.555944
3155.512125	640.258741
3156.674920	641.746853
3157.837542	636.181119
3158.998499	636.572028
3160.159283	638.743357
3161.319895	639.976923
3162.478843	632.555245
3163.637620	635.010490
3164.796225	627.482517
3165.954657	618.976224
3167.112919	615.188811
3168.269518	616.253147
3169.424456	615.944755
3170.580713	618.891608
3171.735309	614.546154
3172.889735	616.029371
3174.042501	610.776923
3175.195096	609.648951
3176.347522	612.327972
3177.499778	613.488112
3178.651863	603.060839
3179.800803	601.663636
3180.952549	604.867133
3182.102637	607.384615
3183.251069	611.093706
3184.399331	621.927972
3185.547425	622.856643
3186.695350	625.837063
3187.841619	627.114685
3188.987720	631.774126
3190.132167	630.513986
3191.276446	626.246853
3192.420557	624.207692
3193.565985	623.462238
3194.708275	622.937762
3195.850398	626.640559
3196.992353	629.729371
3198.134141	633.082517
3199.275762	634.151049
3200.414248	637.278322
3201.554051	633.713986
3202.695172	637.121678
3203.833158	635.339161
3204.969495	639.865035
3206.105666	639.339860
3207.243154	637.917483
3208.378994	640.346154
3209.516151	640.436364
3210.648695	634.385315
3211.785521	636.426573
3212.917735	638.785315
3214.051266	638.537762
3215.184633	639.146853
3216.314872	639.921678
3217.447909	636.356643
3218.577820	632.834266
3219.709047	627.667133
3220.837150	627.264336
3221.968049	629.184615
3223.097304	624.944056
3224.224916	625.454545
3225.349405	625.258741
3226.478170	619.382517
3227.603813	619.129371
3228.729294	622.743357
3229.853133	611.448252
3230.979766	606.184615
3232.101802	608.567832
3233.225154	612.184615
3234.348344	610.979720
3235.471372	614.441259
3236.592760	617.980420
3237.713986	613.595105
3238.833575	608.287413
3239.953002	605.934266
3241.070791	608.769231
3242.191372	612.985315
3243.308840	610.191608
3244.426147	617.359441
3245.543294	625.923776
3246.658805	625.532168
3247.775630	623.768531
3248.889346	630.153846
3250.005851	630.185315
3251.120722	623.579720
3252.232484	624.485315
3253.344086	625.371329
3254.457004	626.093007
3255.569762	628.158741
3256.679414	633.953846
3257.790381	632.909790
3258.901189	630.299301
3260.010365	623.639860
3261.117911	618.599301
3262.226770	618.562238
3263.335472	619.941958
3264.441071	623.661538
3265.547984	628.095105
3266.653268	634.146853
3267.759866	632.639860
3268.863364	633.890909
3269.968177	632.511189
3271.072832	624.010490
3272.174388	616.737063
3273.275788	612.495804
3274.378502	606.579720
3275.481060	611.613986
3276.580521	617.746154
3277.682766	623.904895
3278.781915	630.686014
3279.879440	634.783916
3280.976809	634.909091
3282.076960	635.797203
3283.174019	631.725874
3284.270922	633.733566
3285.367670	634.106993
3286.459860	636.288112
3287.556298	633.409091
3288.651114	635.839860
3289.745776	638.865035
3290.838816	639.237063
3291.931701	638.002797
3293.022967	636.902098
3294.115544	632.576224
3295.206502	628.758042
3296.295840	625.118182
3297.385025	630.528671
3298.475523	627.989510
3299.562936	631.260140
3300.650196	629.574126
3301.738769	632.913986
3302.827190	635.748252
3303.911063	635.559441
3304.999178	637.842657
3306.084211	639.354545
3307.167629	640.784615
3308.252359	638.305594
3309.335473	641.662937
3310.419900	641.774825
3311.501248	638.617483
3312.583908	641.892308
3313.664954	635.916084
3314.745849	635.739860
3315.825130	634.783217
3316.904261	640.097203
3317.984704	644.015385
3319.062072	648.401399
3320.140752	651.703497
3321.217820	648.827972
3322.294739	653.358042
3323.370046	645.652448
3324.445204	642.015385
3325.521673	639.864336
3326.595072	632.775524
3327.668322	628.362937
3328.742882	631.674825
3329.815834	633.246853
3330.887177	631.141958
3331.959831	628.672727
3333.029419	632.609790
3334.100317	633.380420
3335.169608	636.593706
3336.240210	633.474126
3337.309205	636.988112
3338.376594	638.203497
3339.442378	641.297203
3340.512388	643.541958
3341.579335	641.698601
3342.643220	633.076923
3343.709873	626.846154
3344.774921	621.927273
3345.838366	622.674825
3346.901665	618.951748
3347.964817	620.698601
3349.027823	621.047552
3350.090683	625.525175
3351.151941	626.946154
3352.210142	634.611189
3353.272563	637.177622
3354.331929	633.997902
3355.391149	629.662238
3356.451679	629.082517
3357.507699	629.293007
3358.566483	623.033566
3359.620760	620.341259
3360.677801	617.146853
3361.733243	615.186014
3362.789995	618.749650
3363.845148	621.187413
3364.898704	626.635664
3365.950664	625.232867
3367.005385	629.917483
3368.057057	632.706993
3369.108586	633.980420
3370.161423	635.525175
3371.211213	629.349650
3372.262312	626.505594
3373.310365	629.596503
3374.361177	626.583217
3375.408945	630.441259
3376.456570	629.237063
3377.504052	629.902797
3378.549942	625.491608
3379.597140	634.081818
3380.641296	636.151049
3381.688210	632.780420
3382.733532	632.748252
3383.775813	631.288112
3384.817954	629.749650
3385.861402	632.547552
3386.904709	621.744056
3387.946427	621.111888
3388.988003	620.536364
3390.029438	621.747552
3391.069285	622.851748
3392.107543	630.813986
3393.147109	628.957343
3394.186535	629.672727
3395.224373	626.954545
3396.260624	627.358741
3397.296736	624.131469
3398.334155	627.732168
3399.368541	624.588811
3400.404234	629.552448
3401.439788	633.697902
3402.472311	641.143357
3403.507587	649.397902
3404.539832	654.244755
3405.571939	650.897203
3406.602462	651.590909
3407.634292	646.696503
3408.665984	646.219580
3409.694648	643.962238
3410.723175	647.003497
3411.753008	643.780420
3412.782704	642.760839
3413.809374	642.097902
3414.837351	649.537063
3415.862303	645.030769
3416.890005	640.311189
3417.914684	634.200699
3418.940669	634.501399
3419.965074	630.283916
3420.989343	636.362937
3422.012033	636.690210
3423.034587	638.729371
3424.058447	639.111189
3425.079287	642.286713
3426.099991	645.675425
3427.122002	646.829670
3428.140994	644.513087
3429.159850	637.489311
3430.180013	624.521978
3431.197159	604.374725
