-118.702670	9.074176
-116.033069	9.443956
-113.366404	9.556543
-110.700491	9.466134
-108.037511	9.226923
-105.373100	8.893107
-102.711620	8.518881
-100.048711	7.420979
-97.390908	9.988811
-94.731676	8.398601
-92.073192	6.467133
-89.417633	4.422378
-86.760644	4.345455
-84.108754	4.850350
-81.455434	10.104895
-78.805033	9.995804
-76.153204	16.173427
-73.506465	17.180420
-70.858296	21.090909
-68.210870	22.920280
-65.566359	21.443357
-62.920418	18.306294
-60.279559	16.009790
-57.637271	12.517483
-54.997892	11.727273
-52.357084	10.081119
-49.717015	10.261538
-47.082020	7.027972
-44.445595	9.566434
-41.812073	10.241958
-39.177123	10.506294
-36.547239	8.471329
-33.913761	8.381818
-31.285346	8.678322
-28.657665	12.216783
-26.028555	11.005594
-23.404503	10.716084
-20.776860	8.709091
-18.154272	2.902098
-15.532414	5.283916
-12.911287	33.230769
-10.290891	70.468531
-7.673382	98.241958
-5.054445	116.800000
-2.438394	128.349650
0.176930	128.544056
2.791525	118.020979
5.403239	96.341259
8.016381	67.476923
10.624489	31.724476
13.236178	-3.615385
15.842837	-14.583217
18.450925	-5.949650
21.058287	0.165035
23.660625	2.180420
26.266542	4.551049
28.867436	7.360839
31.469758	9.120280
34.067062	9.051748
36.667943	10.910490
39.263808	12.770629
41.861101	11.556643
44.457675	13.211189
47.049240	17.422378
49.642234	17.560839
52.232366	14.569231
54.823925	16.816783
57.412626	15.072727
60.002753	13.359441
62.587881	8.412587
65.174437	7.144056
67.760278	5.486713
70.343266	5.275524
72.927681	7.124476
75.504967	11.211189
78.085818	13.188811
80.663822	16.969231
83.241114	14.720280
85.819834	16.008392
88.393571	15.819580
90.968735	15.469930
93.541056	12.874126
96.112670	14.630769
98.681443	15.930070
101.251643	17.457343
103.819004	19.461538
106.387792	17.020979
108.953743	16.013986
111.516859	17.406993
114.083531	15.211189
116.640981	19.829371
119.204117	25.907692
121.762294	30.626573
124.324025	43.798601
126.880799	70.556643
129.438999	114.932867
131.992247	173.622378
134.544797	249.576224
137.100897	331.502098
139.652049	422.746853
142.202504	514.538462
144.752261	598.541259
147.299199	667.783217
149.845442	715.924476
152.393110	744.018182
154.940082	756.942657
157.482118	763.468531
160.023462	763.640559
162.564112	764.504895
165.106187	762.169231
167.645452	758.170629
170.181907	761.148252
172.717672	762.625175
175.254862	765.341259
177.791361	767.752448
180.325054	763.139860
182.855943	761.657343
185.386144	761.709091
187.917771	758.373427
190.446596	752.248951
192.972622	752.316084
195.497962	750.583217
198.024727	751.615385
200.548696	757.415385
203.071979	757.544056
205.594578	768.008392
208.114384	773.330070
210.633507	775.367832
213.151947	777.769231
215.671812	778.490909
218.184674	771.454545
220.701068	768.151049
223.216781	772.036364
225.727603	768.711888
228.239850	768.653147
230.749314	771.404196
233.258100	772.446154
235.766208	778.300699
238.275740	778.155245
240.780391	775.023776
243.284366	770.415385
245.789765	768.106294
248.290289	768.851748
250.794336	771.190210
253.291413	774.674126
255.792012	774.555245
258.289840	779.977622
260.786995	784.531469
263.283478	786.257343
265.775097	784.404196
268.270236	780.923077
270.762608	774.552448
273.254310	770.180420
275.743249	762.833566
278.233611	762.696503
280.721212	762.629371
283.206053	760.201399
285.694409	761.606993
288.175825	765.050350
290.660755	770.904895
293.140839	774.928671
295.624436	774.833566
298.103191	771.427972
300.583368	769.876923
303.060794	764.240559
305.537556	762.155245
308.013654	772.227972
310.487004	777.545455
312.959693	777.695105
315.431720	784.381818
317.903085	791.432168
320.371707	795.686713
322.839669	798.152448
325.309054	790.794406
327.773616	786.555245
330.241682	782.281119
332.704927	778.081119
335.167516	777.731469
337.629448	779.341259
340.090723	777.818182
342.549263	779.085315
345.009226	780.173427
347.466457	781.664336
349.923033	775.303497
352.378955	770.823776
354.832147	763.794406
357.286762	762.843357
359.736575	758.739860
362.189884	761.767832
364.638394	757.765035
367.086254	757.138462
369.535536	759.903497
371.980023	760.523077
374.425933	758.306294
376.871194	762.225175
379.313736	759.198601
381.755630	760.984615
384.196876	763.114685
386.635408	769.226573
389.075360	778.839161
391.512599	780.588811
393.947127	778.012587
396.385141	778.804196
398.818380	776.839161
401.253039	770.373427
403.682926	765.271329
406.116298	761.026573
408.544900	757.009790
410.972860	751.426573
413.402241	752.753846
415.826858	758.349650
418.252895	763.306294
420.678293	761.854545
423.103050	766.903497
425.523048	770.580420
427.944468	769.748252
430.363192	767.114685
432.783335	767.009790
435.200784	764.911888
437.619654	767.772028
440.035829	767.086713
442.447258	774.155245
444.862163	779.937063
447.274378	783.648951
449.685960	788.514685
452.096907	789.820979
454.505167	786.935664
456.912796	781.570629
459.319792	779.707692
461.726157	780.855944
464.129839	778.623776
466.532891	784.318881
468.935313	785.679720
471.337105	786.955245
473.736219	784.693706
476.136753	778.297902
478.536658	776.254545
480.931841	772.661538
483.330489	770.472727
485.724418	767.076923
488.117721	770.843357
490.510399	773.162238
492.902451	770.951049
495.295921	772.727273
497.684679	772.952448
500.070771	774.868531
502.458283	773.429371
504.845172	768.665734
507.229396	770.983217
509.615040	776.288112
511.998022	778.937063
514.378342	778.861538
516.760083	783.071329
519.139164	782.204196
521.519663	777.723077
523.897506	779.706294
526.272692	785.019580
528.647261	790.611189
531.023249	787.082517
533.396584	785.806993
535.771336	786.002797
538.141402	786.479720
540.510854	779.025175
542.881723	774.727273
545.247911	773.335664
547.615518	772.923077
549.980479	767.816783
552.344828	775.622378
554.708563	782.351049
557.073716	784.953846
559.434197	787.002797
561.796095	789.741259
564.155354	791.039161
566.511974	793.935664
568.872040	790.552448
571.225414	786.851748
573.582233	784.955245
575.936417	783.696503
578.289992	778.744056
580.642960	776.478322
582.993295	772.580420
585.345048	771.762238
587.690124	772.106294
590.040663	766.716084
592.384530	769.244755
594.733858	770.241958
597.078537	769.847552
599.420592	771.174825
601.764064	774.833566
604.104913	775.314685
606.445159	777.071329
608.782785	774.377622
611.123846	782.461538
613.460270	792.219580
615.798110	795.334266
618.133333	791.504895
620.465939	794.697902
622.799963	792.709091
625.131372	798.895105
627.462183	800.406993
629.792396	797.060140
632.122012	789.594406
634.447004	788.051748
636.777438	787.542657
639.103251	790.829371
641.426456	788.732867
643.751078	789.369231
646.073094	785.513287
648.394516	784.970629
650.713335	780.846154
653.033571	783.714685
655.353212	776.416783
657.670254	771.344056
659.986703	768.941259
662.300554	770.351049
664.615821	773.630769
666.928491	775.413986
669.242576	778.793007
671.552061	788.983217
673.862962	789.695105
676.171270	788.748252
678.478989	788.149650
680.788124	789.409790
683.092666	786.406993
685.396622	785.011189
687.699991	789.306294
690.004776	792.041958
692.304973	792.481119
694.606586	794.759441
696.907613	794.204196
699.204059	795.439161
701.501920	791.092308
703.799197	785.626573
706.095891	784.608392
708.388009	780.395804
710.683538	776.987413
712.974493	772.092308
715.266863	779.502098
717.556657	779.464336
719.845872	777.783217
722.134507	782.226573
724.420569	782.640559
726.708045	789.632168
728.992951	793.819580
731.277279	793.268531
733.559038	797.195804
735.842211	800.840559
738.124807	798.401399
740.402847	793.281119
742.682301	793.090909
744.961180	786.959441
747.239484	786.471329
749.513237	794.671329
751.788405	794.577622
754.062999	797.093706
756.335034	797.883916
758.608482	796.082517
760.879372	800.167832
763.147706	797.541259
765.417453	792.618182
767.684645	788.226573
769.951268	790.816783
772.217320	792.899301
774.480821	794.657343
776.745734	796.888112
779.010079	793.762238
781.269893	796.634965
783.531121	800.482517
785.791781	807.279720
788.049895	807.847552
790.305464	806.455944
792.564423	809.779021
794.816884	813.116084
797.074712	814.839161
799.328021	805.243357
801.578790	796.766434
803.830971	787.253147
806.080613	783.753846
808.331667	783.819580
810.578210	785.763636
812.826166	792.738462
815.071586	788.248951
817.318419	791.464336
819.564689	790.088112
821.806456	799.689510
824.051605	800.395804
826.290283	795.409790
828.532342	793.524476
830.769903	792.846154
833.008876	791.005594
835.245322	792.388811
837.483179	795.004196
839.718511	793.728671
841.951320	790.120280
844.185539	786.553846
846.417237	776.583217
848.648380	781.367832
850.878968	778.580420
853.109002	777.447552
855.338481	781.700699
857.563480	785.381818
859.791852	785.034965
862.015746	791.335664
864.241051	790.699301
866.461880	789.030769
868.686081	789.172028
870.905809	786.994406
873.126947	781.223776
875.347535	781.197203
877.565614	777.612587
879.785102	781.123077
882.000124	784.044755
884.214598	783.791608
886.428525	780.486713
888.641904	776.791608
890.854737	773.402797
893.067022	778.862937
895.276806	783.818182
897.486044	794.289510
899.694737	799.527273
901.900930	802.191608
904.108533	804.820979
906.313639	808.206993
908.518201	807.868531
910.720268	802.218182
912.923744	798.180420
915.124726	791.672727
917.325166	791.303497
919.527015	794.013986
921.722473	796.476923
923.921289	799.606993
926.115668	802.356643
928.313404	804.379021
930.506704	807.151049
932.701413	810.865734
934.893635	812.332867
937.085320	813.271329
939.276467	815.100699
941.465131	813.751049
943.653259	815.212587
945.838905	813.509091
948.027905	813.434965
950.212480	807.862937
952.396521	805.783217
954.583913	808.720280
956.763000	808.612587
958.945438	807.630769
961.127342	805.955245
963.306771	811.313287
965.483728	813.674126
967.662093	819.893706
969.841865	827.462937
972.015288	826.976224
974.192057	832.752448
976.364419	835.556643
978.538189	838.809790
980.707555	843.366434
982.880265	842.408392
985.050510	834.605594
987.220225	828.784615
989.389412	836.742657
991.554202	835.682517
993.722334	839.869930
995.886070	841.808392
998.051214	845.054545
1000.213898	850.843357
1002.376057	854.106294
1004.535759	853.030769
1006.694936	847.068531
1008.855520	840.383217
1011.013649	831.085315
1013.171255	826.092308
1015.328337	825.774825
1017.484895	823.412587
1019.637074	824.234965
1021.790660	822.577622
1023.943724	823.090909
1026.094339	820.620979
1028.246360	820.386014
1030.394009	820.075524
1032.544989	817.481119
1034.691598	820.200000
1036.837688	827.572028
1038.983260	829.626573
1041.130237	829.279720
1043.270925	837.800000
1045.414942	838.251748
1047.556520	833.760839
1049.697580	829.745455
1051.840046	828.987413
1053.976231	824.727273
1056.115743	825.651748
1058.250899	828.724476
1060.389380	829.738462
1062.523508	828.206993
1064.657122	825.483916
1066.792140	823.025175
1068.922810	825.148252
1071.054884	823.760839
1073.184528	816.619580
1075.313661	818.439161
1077.442283	821.805594
1079.570393	824.581818
1081.696077	830.109091
1083.821251	837.271329
1085.947829	838.672727
1088.070069	838.093706
1090.193714	839.804196
1092.313024	837.941259
1094.437563	836.356643
1096.555858	837.983217
1098.675556	836.692308
1100.792837	842.951049
1102.909610	845.781818
1105.025877	849.797203
1107.139729	848.145455
1109.254984	845.060140
1111.365917	845.625175
1113.480162	848.823776
1115.590086	850.892308
1117.701413	847.730070
1119.812237	847.990210
1121.918744	850.111888
1124.028560	849.710490
1126.134062	850.472727
1128.240968	847.648951
1130.341658	853.777622
1132.447560	854.606993
1134.549153	855.820979
1136.652148	860.251748
1138.754644	866.813986
1140.850932	867.069930
1142.952427	868.342657
1145.049620	868.288112
1147.146314	866.791608
1149.242511	866.057343
1151.338209	865.027972
1153.433410	860.854545
1155.526214	862.728671
1157.620420	863.904895
1159.708435	868.780420
1161.801648	863.710490
1163.888674	863.938462
1165.978998	861.827972
1168.065034	861.654545
1170.154368	856.779021
1172.237521	858.072727
1174.322077	860.237762
1176.408034	861.257343
1178.489709	863.816783
1180.572785	867.406993
1182.653476	876.422378
1184.733676	881.173427
1186.813384	880.181818
1188.892601	885.068531
1190.969435	885.030769
1193.043889	884.050350
1195.121635	879.072727
1197.195110	880.232168
1199.269987	875.641958
1201.340596	875.889510
1203.412606	876.013986
1205.482240	876.772028
1207.553275	882.882517
1209.623822	888.051748
1211.690109	899.591608
1213.757796	905.802797
1215.823110	907.787413
1217.889825	913.020979
1219.952284	913.476923
1222.018029	912.306294
1224.079519	901.474126
1226.142410	902.465734
1228.202932	899.731469
1230.262972	902.037762
1232.322528	906.544056
1234.379720	913.537063
1236.436429	919.139860
1238.490776	919.411189
1240.548403	927.798601
1242.603668	934.495105
1244.654693	933.646154
1246.707117	931.970629
1248.759061	929.265734
1250.808647	937.606993
1252.857754	938.160839
1254.906382	940.145455
1256.954532	944.323077
1259.002204	944.513287
1261.045645	949.661538
1263.092362	957.805594
1265.136725	965.233566
1267.180611	974.131469
1269.222147	968.946853
1271.261333	976.458741
1273.303792	982.089510
1275.342028	994.637762
1277.381663	1001.671329
1279.420822	1005.507692
1281.455764	1015.181818
1283.492104	1023.676923
1285.526100	1040.492308
1287.561493	1052.727273
1289.592673	1065.903497
1291.625252	1086.836364
1293.657359	1094.576224
1295.687125	1114.709091
1297.718288	1137.682517
1299.745244	1168.237762
1301.773599	1203.620979
1303.797748	1241.506294
1305.825163	1296.739860
1307.848375	1356.110490
1309.872985	1414.808392
1311.895260	1403.718881
1313.918933	1182.949650
1315.940273	180.605594
1317.961146	-586.254545
1319.981551	2590.039161
1321.997763	9099.612587
1324.015372	20202.577622
1326.030653	31215.671329
1328.049193	39353.481119
1330.063543	44026.548252
1332.075568	45037.166434
1334.090851	42372.825175
1336.101948	36156.460140
1338.114441	26857.566434
1340.122752	15576.622378
1342.134319	5538.365035
1344.139847	157.962238
1346.148630	-1775.408392
1348.153235	87.495105
1350.161094	1104.307692
1352.168491	1228.446154
1354.169857	1230.061538
1356.172619	1202.328671
1358.174922	1167.114685
1360.176765	1126.483916
1362.178148	1100.379021
1364.177217	1077.001399
1366.175828	1064.425175
1368.173981	1041.262937
1370.171676	1024.440559
1372.165208	1015.018182
1374.160135	1014.499301
1376.154606	1009.296503
1378.148620	998.602797
1380.140327	987.923077
1382.131578	980.072727
1384.120524	974.440559
1386.110865	968.556643
1388.100752	965.041958
1390.088334	959.676923
1392.075463	954.181818
1394.060290	958.176224
1396.046512	962.809790
1398.030433	968.895105
1400.013902	969.527273
1401.996919	971.304895
1403.977638	970.163636
1405.959751	973.422378
1407.939567	980.948252
1409.918933	986.110490
1411.894160	986.107692
1413.872625	992.676923
1415.848797	998.583217
1417.824519	1003.134266
1419.799792	1010.994406
1421.772775	1012.019580
1423.745309	1011.813986
1425.717395	1014.534266
1427.689034	1016.809790
1429.656544	1015.317483
1431.629128	1013.362238
1433.593906	1009.467133
1435.563757	1007.993007
1437.529483	1011.362238
1439.496603	1009.016783
1441.461439	1015.556643
1443.422155	1024.888112
1445.387939	1027.212587
1447.347768	1029.082517
1449.308991	1033.281119
1451.271605	1034.788811
1453.230105	1031.226573
1455.188163	1019.302098
1457.145779	1012.510490
1459.102952	1008.706294
1461.057850	1004.695105
1463.014141	999.404196
1464.968157	996.374825
1466.921732	992.972028
1468.873035	993.619580
1470.825730	995.040559
1472.776154	996.304895
1474.726139	997.489510
1476.675685	994.994406
1478.622962	991.558042
1480.567971	996.227972
1482.514373	988.759441
1484.460337	988.043357
1486.405864	981.862937
1488.349125	975.279720
1490.291950	977.362238
1492.232512	983.809790
1494.174466	987.457343
1496.114157	988.330070
1498.053413	993.944056
1499.992235	995.188811
1501.928797	999.419580
1503.866750	998.927273
1505.802444	991.244755
1507.737705	992.318881
1509.670709	987.248951
1511.603281	988.373427
1513.535421	993.363636
1515.467129	998.654545
1517.396584	1002.749650
1519.327429	1000.109091
1521.257842	1006.843357
1523.184183	1010.158042
1525.111914	1012.149650
1527.037396	1008.369231
1528.962448	1009.339860
1530.887070	1014.983217
1532.811264	1018.800000
1534.733211	1024.868531
1536.656548	1028.752448
1538.577638	1025.355245
1540.496484	1023.942657
1542.416720	1020.949650
1544.334712	1020.109091
1546.252278	1014.170629
1548.167603	1007.763636
1550.084317	1000.139860
1551.996975	1005.190210
1553.912838	1007.784615
1555.826462	1010.061538
1557.737847	1009.555245
1559.650622	1009.544056
1561.559347	1005.457343
1563.469461	1012.318881
1565.379152	1017.110490
1567.288420	1008.332867
1569.195453	1006.917483
1571.100254	1002.324476
1573.006444	1000.681119
1574.910403	1002.107692
1576.813940	997.516084
1578.717057	995.172028
1580.617944	985.504895
1582.520220	984.107692
1584.420267	981.633566
1586.321703	986.875524
1588.219104	990.349650
1590.116088	988.213986
1592.012653	1000.034965
1593.910605	1002.612587
1595.802723	1007.325874
1597.698035	1009.349650
1599.592928	1013.479720
1601.485601	1012.658741
1603.377856	1007.551049
1605.267892	1006.088112
1607.157512	999.816783
1609.046717	997.095105
1610.935506	993.758042
1612.822079	992.781818
1614.710039	997.572028
1616.593982	993.555245
1618.479312	995.019580
1620.364229	994.025175
1622.246932	999.384615
1624.131022	998.570629
1626.011100	999.167832
1627.892566	1000.426573
1629.771820	995.879720
1631.652462	995.851748
1633.527299	990.732867
1635.407117	994.874126
1637.282930	999.468531
1639.158334	995.648951
1641.035123	998.966434
1642.906115	996.615385
1644.780290	1002.255944
1646.650465	1008.537063
1648.523821	1014.482517
1650.394974	1013.606993
1652.263925	1011.318881
1654.134262	1019.797203
1656.000606	1015.549650
1657.868335	1019.387413
1659.733865	1017.117483
1661.600781	1011.237762
1663.463707	1009.142657
1665.328020	1007.664336
1667.190136	1007.991608
1669.051847	1009.202797
1670.914943	1009.067133
1672.775845	1002.184615
1674.634554	1004.013986
1676.492859	1008.791608
1678.352548	1006.102098
1680.206471	1003.577622
1682.063567	1003.993007
1683.920259	1003.044755
1685.772976	1000.787413
1687.628864	1004.710490
1689.480778	1007.672727
1691.332291	1007.198601
1693.183403	1009.988811
1695.034114	1008.348252
1696.884425	1006.587413
1698.732552	1015.292308
1700.582063	1017.304895
1702.425824	1017.703497
1704.274536	1018.159441
1706.117501	1015.426573
1707.963632	1018.114685
1709.805802	1025.247552
1711.651137	1029.099301
1713.490730	1025.142657
1715.331709	1021.850350
1717.174070	1014.450350
1719.012474	1008.800000
1720.852262	1012.630769
1722.689875	1009.225175
1724.527093	1007.360839
1726.362137	1004.998601
1728.198564	1005.393007
1730.032818	1013.186014
1731.866679	1022.742657
1733.700145	1032.323077
1735.529665	1036.509091
1737.362345	1032.151049
1739.191079	1033.293706
1741.022972	1036.622378
1742.850922	1037.567832
1744.678480	1032.633566
1746.505647	1026.220979
1748.332422	1026.051748
1750.158805	1027.990210
1751.981252	1030.795804
1753.806854	1037.401399
1755.628520	1040.033566
1757.451569	1041.763636
1759.272457	1036.634965
1761.092955	1036.337063
1762.914835	1039.151049
1764.731015	1037.683916
1766.550347	1031.342657
1768.365752	1034.767832
1770.184308	1039.443357
1771.998938	1043.555245
1773.813181	1048.906294
1775.627038	1059.744056
1777.440508	1062.511888
1779.251824	1064.426573
1781.064522	1064.285315
1782.876834	1065.820979
1784.685227	1068.963636
1786.495002	1071.751049
1788.300861	1073.685315
1790.109867	1076.292308
1791.914959	1074.215385
1793.721432	1072.662937
1795.527520	1076.016783
1797.329699	1080.960839
1799.135021	1079.732867
1800.936435	1080.069930
1802.739230	1076.116084
1804.538118	1076.144056
1806.338387	1073.896503
1808.138274	1081.039161
1809.936019	1085.067133
1811.733384	1084.904895
1813.530368	1088.450350
1815.326972	1091.991608
1817.121437	1094.289510
1818.917282	1103.871329
1820.707471	1105.057343
1822.502557	1103.402797
1824.291990	1098.767832
1826.084561	1102.183217
1827.874996	1104.713287
1829.663296	1108.423776
1831.454732	1107.467133
1833.240523	1103.258741
1835.027692	1105.703497
1836.812731	1102.372028
1838.600902	1104.064336
1840.385188	1107.942657
1842.167345	1106.860140
1843.950881	1107.109091
1845.732288	1111.240559
1847.515073	1118.180420
1849.293979	1129.956643
1851.074263	1133.177622
1852.852422	1130.316084
1854.631958	1130.763636
1856.409370	1135.167832
1858.184659	1133.598601
1859.961325	1137.632168
1861.735869	1131.822378
1863.511790	1133.090909
1865.282092	1135.423776
1867.055521	1139.820979
1868.826830	1144.300699
1870.597768	1150.812587
1872.370084	1151.206993
1874.136786	1150.400000
1875.906613	1153.239161
1877.672577	1155.593007
1879.441665	1154.813986
1881.206891	1152.864336
1882.971749	1154.346853
1884.737983	1157.243357
1886.500359	1161.181818
1888.262368	1161.858741
1890.024010	1167.630769
1891.785284	1174.853147
1893.546192	1174.981818
1895.306732	1176.883916
1897.065164	1177.404196
1898.823229	1169.927273
1900.579187	1169.620979
1902.336521	1167.893706
1904.093490	1168.953846
1905.848352	1163.658741
1907.601109	1162.469930
1909.353503	1167.986014
1911.107273	1176.072727
1912.858939	1180.187413
1914.608502	1179.597203
1916.359442	1185.142657
1918.110018	1191.489510
1919.856756	1185.019580
1921.604869	1197.225175
1923.350883	1199.158042
1925.098273	1196.386014
1926.843564	1195.186014
1928.586758	1197.110490
1930.331328	1201.717483
1932.073801	1203.085315
1933.815914	1205.422378
1935.557668	1208.920979
1937.299061	1217.176224
1939.038361	1228.539161
1940.777302	1234.462937
1942.515884	1249.944755
1944.252375	1248.288112
1945.988507	1245.287413
1947.726015	1247.511888
1949.459700	1250.769930
1951.194760	1249.959441
1952.927731	1247.623077
1954.660346	1246.920280
1956.392604	1249.498601
1958.124506	1250.545455
1959.854323	1251.496503
1961.582054	1258.240559
1963.311160	1263.138462
1965.039910	1257.981818
1966.766577	1258.893706
1968.492890	1264.186014
1970.220577	1264.885315
1971.942727	1267.437762
1973.667978	1274.668531
1975.389422	1285.325874
1977.113966	1290.148252
1978.836431	1289.193007
1980.555092	1291.565035
1982.276852	1296.110490
1983.994811	1292.107692
1985.714142	1289.179021
1987.429674	1286.788811
1989.150026	1288.655944
1990.866580	1285.570629
1992.579337	1292.531469
1994.295190	1302.623776
1996.008971	1309.446154
1997.722402	1311.623776
1999.433762	1314.040559
2001.146494	1322.130070
2002.855435	1334.604196
2004.567470	1337.767832
2006.273995	1340.629371
2007.983613	1339.360839
2009.691163	1336.005594
2011.398366	1333.082517
2013.103503	1337.057343
2014.808293	1338.966434
2016.514456	1332.937063
2018.216835	1332.360839
2019.920587	1337.381818
2021.622276	1344.051748
2023.323619	1355.436364
2025.024618	1360.248951
2026.723555	1362.647552
2028.423864	1372.104895
2030.120397	1374.412587
2031.818302	1385.146853
2033.514149	1388.237762
2035.213081	1391.619580
2036.906527	1396.948252
2038.601344	1401.563636
2040.295818	1404.679720
2041.986525	1403.988811
2043.680314	1404.103497
2045.370338	1409.015385
2047.061731	1407.777622
2048.751072	1411.346853
2050.441784	1405.200000
2052.128732	1406.377622
2053.815340	1396.888112
2055.503319	1396.734266
2057.187538	1397.868531
2058.873127	1399.046154
2060.558377	1400.707692
2062.241579	1400.004196
2063.926151	1400.152448
2065.605259	1406.664336
2067.289154	1407.731469
2068.967587	1415.409790
2070.649098	1414.749650
2072.326857	1421.174825
2074.004280	1416.099301
2075.683072	1417.416783
2077.359821	1420.158042
2079.034529	1424.174825
2080.710607	1425.296503
2082.384643	1425.548252
2084.058345	1425.524476
2085.731711	1431.474126
2087.403038	1433.044755
2089.074031	1439.627972
2090.744690	1438.432168
2092.415015	1443.994406
2094.085006	1444.448951
2095.752960	1452.316084
2097.420582	1453.015385
2099.086170	1460.587413
2100.753126	1469.541259
2102.418049	1476.089510
2104.082640	1481.454545
2105.745199	1492.475524
2107.409126	1491.686713
2109.071022	1488.490909
2110.732587	1485.809790
2112.393822	1485.297902
2114.053027	1485.306294
2115.711903	1483.352448
2117.370448	1479.193007
2119.028664	1486.795804
2120.683157	1491.183217
2122.340714	1498.825175
2123.997941	1508.376224
2125.651448	1515.618182
2127.306322	1526.220979
2128.957477	1533.723077
2130.611695	1544.889510
2132.262195	1551.384615
2133.914063	1555.030769
2135.560522	1556.053147
2137.211735	1554.331469
2138.859236	1555.911888
2140.508103	1560.434965
2142.154951	1563.551049
2143.801474	1567.360839
2145.447671	1570.380420
2147.090159	1578.012587
2148.735706	1570.613986
2150.377546	1568.497902
2152.022443	1567.281119
2153.663635	1567.261538
2155.304503	1565.158042
2156.945048	1563.913287
2158.583580	1567.781818
2160.223478	1575.433566
2161.859676	1584.520280
2163.497240	1595.106294
2165.134482	1605.239161
2166.769714	1604.271329
2168.404624	1601.215385
2170.039213	1609.348252
2171.673481	1618.286713
2173.304055	1626.993007
2174.937681	1632.191608
2176.567614	1635.233566
2178.198914	1629.604196
2179.828208	1623.120280
2181.457183	1619.549650
2183.085838	1615.962238
2184.714174	1613.366434
2186.340507	1606.482517
2187.966522	1602.979021
2189.590536	1599.963636
2191.215915	1606.834965
2192.839293	1616.541259
2194.464036	1626.283916
2196.085098	1635.353846
2197.705843	1636.328671
2199.327952	1644.005594
2200.948064	1649.012587
2202.566180	1659.366434
2204.183980	1665.990210
2205.801464	1669.489510
2207.418634	1668.016783
2209.035487	1662.959441
2210.652026	1670.886713
2212.266571	1675.219580
2213.879125	1680.710490
2215.493042	1686.239161
2217.104968	1686.927273
2218.718257	1700.046154
2220.329555	1708.474126
2221.938865	1717.172028
2223.549537	1719.367832
2225.158221	1721.594406
2226.766593	1724.907692
2228.372978	1723.348252
2229.980725	1730.853147
2231.586487	1735.468531
2233.191937	1740.549650
2234.795402	1746.260140
2236.400230	1750.896503
2238.003074	1755.816783
2239.603935	1762.125874
2241.206159	1764.299301
2242.806401	1776.906294
2244.408005	1781.619580
2246.005956	1795.051748
2247.605270	1800.420979
2249.202604	1810.820979
2250.799630	1820.903497
2252.398017	1822.844755
2253.992757	1830.657343
2255.585519	1828.790210
2257.179644	1817.177622
2258.775130	1819.709091
2260.366971	1825.986014
2261.958506	1830.780420
2263.551402	1828.667133
2265.138990	1839.055944
2266.731273	1838.998601
2268.318249	1839.611189
2269.908254	1845.131469
2271.492954	1848.618182
2273.082348	1858.230769
2274.666439	1856.104895
2276.251892	1853.057343
2277.835376	1871.130070
2279.421885	1879.341259
2281.004761	1877.844755
2282.587334	1881.432867
2284.169603	1885.711888
2285.748242	1879.467832
2287.329906	1877.846154
2288.907941	1879.564336
2290.488999	1873.991608
2292.066430	1867.828671
2293.641898	1870.806993
2295.220388	1876.537762
2296.795254	1895.013986
2298.369819	1898.649650
2299.944083	1903.502098
2301.518047	1915.151748
2303.091711	1919.711888
2304.665075	1921.179021
2306.234820	1930.602797
2307.804266	1927.448951
2309.376730	1922.541259
2310.943920	1921.447552
2312.514127	1930.327273
2314.080721	1935.215385
2315.648673	1941.644755
2317.214671	1946.213986
2318.780371	1953.930070
2320.345773	1964.980420
2321.909222	1974.697902
2323.474030	1988.513287
2325.035229	2006.763636
2326.599443	2015.728671
2328.158396	2018.699301
2329.720362	2024.793007
2331.280378	2035.335664
2332.840098	2039.611189
2334.397870	2042.983217
2335.955346	2049.324476
2337.512528	2055.184615
2339.067762	2061.874126
2340.622702	2063.744056
2342.177349	2061.914685
2343.731702	2067.159441
2345.285761	2075.662937
2346.839527	2072.518881
2348.391348	2075.111888
2349.941226	2078.976224
2351.494113	2081.904895
2353.041756	2084.744056
2354.592407	2090.131469
2356.139468	2096.337063
2357.687886	2095.756643
2359.236013	2095.462937
2360.780551	2100.408392
2362.326447	2115.300699
2363.870404	2138.525874
2365.415719	2146.970629
2366.957449	2153.523077
2368.500537	2162.412587
2370.041688	2176.812587
2371.582550	2183.748252
2373.123123	2192.567832
2374.663407	2193.405594
2376.203402	2194.314685
2377.739818	2206.128671
2379.279236	2218.208392
2380.815077	2226.172028
2382.352275	2242.018182
2383.885897	2249.720280
2385.422519	2251.636364
2386.957211	2260.413986
2388.489972	2271.436364
2390.022448	2277.717483
2391.552995	2286.530070
2393.086540	2290.600000
2394.614874	2289.988811
2396.144564	2294.493706
2397.673969	2301.184615
2399.203089	2305.839161
2400.731923	2317.127273
2402.255553	2322.402797
2403.783818	2329.040559
2405.306880	2342.422378
2406.834577	2352.864336
2408.355434	2367.162238
2409.880923	2381.723077
2411.402853	2397.931469
2412.926137	2398.029371
2414.447501	2406.006993
2415.966945	2410.713287
2417.487744	2423.370629
2419.006624	2425.406993
2420.525223	2427.074126
2422.041903	2439.759441
2423.559939	2448.633566
2425.077693	2453.121678
2426.591895	2463.813986
2428.105818	2472.124476
2429.619460	2486.420979
2431.134456	2482.734266
2432.645905	2492.220979
2434.158707	2493.695105
2435.669597	2505.160839
2437.180208	2508.254545
2438.688907	2519.019580
2440.200592	2528.462937
2441.708734	2532.830769
2443.216598	2542.460140
2444.724183	2549.737063
2446.228229	2553.145455
2447.735259	2563.913287
2449.240381	2572.218182
2450.745226	2590.296503
2452.248164	2600.867133
2453.750825	2609.492308
2455.253211	2619.514685
2456.753690	2630.198601
2458.255524	2630.434965
2459.755452	2637.669930
2461.255105	2643.405594
2462.754483	2639.443357
2464.251958	2644.669930
2465.747531	2648.411189
2467.246084	2658.137063
2468.741109	2661.261538
2470.237486	2670.079720
2471.730337	2673.286713
2473.224541	2676.002797
2474.718471	2681.229371
2476.208877	2678.076923
2477.702261	2683.759441
2479.193747	2681.546853
2480.683336	2682.282517
2482.172653	2694.200000
2483.660074	2700.688112
2485.150471	2709.581818
2486.637350	2725.793007
2488.125580	2739.130070
2489.610293	2742.398601
2491.094736	2737.377622
2492.580531	2741.258741
2494.064434	2740.970629
2495.549687	2747.160839
2497.029807	2738.816783
2498.512899	2744.609790
2499.994102	2746.060140
2501.475035	2746.816783
2502.954078	2746.858741
2504.432854	2746.627972
2505.911361	2737.802797
2507.389599	2729.939860
2508.867570	2720.525874
2510.342035	2716.734266
2511.819470	2710.920280
2513.293400	2712.075524
2514.768682	2700.937063
2516.243696	2706.197203
2517.715209	2697.062937
2519.188073	2705.829371
2520.659054	2709.083916
2522.131385	2703.523077
2523.598602	2705.261538
2525.068786	2705.139860
2526.537089	2703.857343
2528.005126	2698.271329
2529.472899	2702.538462
2530.940407	2701.092308
2532.407651	2698.685315
2533.871402	2705.120280
2535.336503	2706.499301
2536.799727	2726.387413
2538.264300	2730.117483
2539.725385	2731.051748
2541.187819	2737.862937
2542.649990	2745.925874
2544.108674	2746.573427
2545.571931	2758.200000
2547.030091	2770.987413
2548.489601	2776.788811
2549.944016	2788.566434
2551.403002	2794.857343
2552.860116	2798.622378
2554.315358	2804.089510
2555.770340	2797.204196
2557.223452	2795.998601
2558.677913	2804.120280
2560.130505	2801.696503
2561.582837	2803.159441
2563.033301	2815.485315
2564.486722	2821.618182
2565.935060	2835.595804
2567.386353	2843.123077
2568.835780	2853.376224
2570.281736	2867.158042
2571.730646	2877.015385
2573.176085	2882.229371
2574.622873	2887.032168
2576.067797	2898.647552
2577.512464	2900.366434
2578.958478	2909.560839
2580.401025	2912.384615
2581.844920	2910.600000
2583.285350	2918.234965
2584.727128	2921.983217
2586.167046	2938.718881
2587.608311	2951.304895
2589.046114	2958.205594
2590.486867	2969.565035
2591.922558	2979.755245
2593.361197	2990.281119
2594.797980	3003.167832
2596.232907	3022.848951
2597.670781	3033.604196
2599.103598	3034.626573
2600.537762	3043.314685
2601.970071	3046.520280
2603.403728	3045.820979
2604.835530	3037.573427
2606.267080	3033.643357
2607.698376	3036.388811
2609.127821	3037.391608
2610.557013	3035.184615
2611.984354	3051.352448
2613.413042	3063.499301
2614.841477	3067.338462
2616.266466	3074.069930
2617.692800	3085.876923
2619.117287	3097.144056
2620.543118	3101.619580
2621.965507	3110.794406
2623.389240	3110.488112
2624.811128	3105.209790
2626.232765	3103.271329
2627.652558	3096.765035
2629.073696	3107.083916
2630.494584	3098.629371
2631.912033	3110.030769
2633.332422	3117.300699
2634.749374	3124.793007
2636.166078	3135.991608
2637.582533	3139.440559
2638.998740	3152.283916
2640.414699	3150.893706
2641.828817	3143.654545
2643.242687	3149.023776
2644.654718	3153.046154
2646.068094	3164.018182
2647.478040	3165.406993
2648.890922	3187.030769
2650.300375	3192.864336
2651.709582	3196.398601
2653.116953	3201.204196
2654.527258	3205.423776
2655.935727	3211.737063
2657.342362	3207.731469
2658.748750	3211.565035
2660.153306	3220.306294
2661.559205	3234.690909
2662.963270	3246.095105
2664.367092	3248.881119
2665.770669	3266.106294
2667.172415	3266.216783
2668.575504	3268.026573
2669.975175	3259.953846
2671.376190	3253.558042
2672.773789	3241.314685
2674.174317	3231.574825
2675.571431	3230.632168
2676.969888	3216.026573
2678.366517	3214.155245
2679.762905	3204.355245
2681.159050	3200.257343
2682.553369	3209.188811
2683.949031	3212.051748
2685.341284	3222.012587
2686.734879	3225.563636
2688.126650	3227.180420
2689.519764	3229.857343
2690.911053	3234.911888
2692.300521	3244.267133
2693.689748	3240.945455
2695.078735	3240.220979
2696.469065	3247.850350
2697.854411	3262.542657
2699.242680	3281.907692
2700.629129	3289.611189
2702.015339	3299.040559
2703.401310	3299.281119
2704.783883	3290.590210
2706.167798	3291.330070
2707.551474	3285.093706
2708.934913	3281.902098
2710.314956	3277.078322
2711.696341	3276.836364
2713.075910	3294.036364
2714.456821	3306.226573
2715.835917	3326.078322
2717.213199	3337.646154
2718.591822	3357.647552
2719.968631	3363.980420
2721.345205	3371.744056
2722.721543	3378.640559
2724.096069	3369.013986
2725.471936	3365.441958
2726.844416	3371.299301
2728.219813	3369.758042
2729.590249	3391.576224
2730.962025	3396.632168
2732.333568	3414.418182
2733.703302	3436.885315
2735.074376	3453.226573
2736.443643	3465.054545
2737.812676	3482.155245
2739.179903	3497.134266
2740.546896	3497.791608
2741.913657	3502.552448
2743.280185	3513.517483
2744.644909	3516.685315
2746.009400	3538.960839
2747.373659	3548.923077
2748.737687	3565.220979
2750.101482	3585.472727
2751.461905	3592.337063
2752.825237	3597.861538
2754.183627	3607.714685
2755.544927	3606.860140
2756.902857	3602.486713
2758.263695	3599.523077
2759.622733	3602.415385
2760.978403	3592.707692
2762.336982	3595.534266
2763.692193	3597.125874
2765.047175	3605.074126
2766.400360	3619.116084
2767.756452	3614.798601
2769.109180	3613.528671
2770.461679	3622.218182
2771.813951	3621.679720
2773.167560	3624.840559
2774.517808	3632.335664
2775.866263	3642.043357
2777.217622	3641.043357
2778.565622	3646.206993
2779.914961	3660.485315
2781.262507	3676.925874
2782.609827	3684.048951
2783.956919	3678.427972
2785.302221	3698.848951
2786.647297	3708.948252
2787.992147	3715.440559
2789.336771	3722.200000
2790.678043	3737.682517
2792.020652	3736.328671
2793.363037	3741.179021
2794.705196	3748.776224
2796.044006	3768.380420
2797.385716	3771.243357
2798.724077	3775.667133
2800.063776	3782.292308
2801.401689	3805.948252
2802.737818	3808.932867
2804.073724	3822.572028
2805.410967	3829.537063
2806.746425	3853.406993
2808.081661	3851.299301
2809.415115	3873.615385
2810.749905	3897.316084
2812.081354	3918.802797
2813.415699	3922.260140
2814.745146	3938.531469
2816.075930	3950.030769
2817.406492	3962.379021
2818.735275	3971.397203
2820.065395	3981.110490
2821.393736	3983.485315
2822.721855	3985.883916
2824.048198	3970.446154
2825.375876	3979.244755
2826.700222	3983.584615
2828.025904	3976.623776
2829.349810	3971.801399
2830.673496	3985.620979
2831.998518	3988.388811
2833.320211	4002.110490
2834.641685	4005.279720
2835.962939	4014.942657
2837.283975	4012.482517
2838.603239	4007.313287
2839.923838	4005.521678
2841.242665	4014.215385
2842.561274	4012.464336
2843.878113	4010.072727
2845.194734	4013.134266
2846.511138	4027.149650
2847.825772	4023.563636
2849.141741	4029.939860
2850.454391	4026.095105
2851.768375	4035.570629
2853.082143	4046.027972
2854.395694	4055.388811
2855.707479	4070.658741
2857.017497	4091.376224
2858.328850	4108.029371
2859.636888	4127.528671
2860.946260	4137.069930
2862.255417	4149.398601
2863.564359	4146.093706
2864.871538	4151.744056
2866.176953	4159.506294
2867.483703	4168.309091
2868.788691	4178.362238
2870.093464	4183.269930
2871.396477	4189.711888
2872.702370	4196.460140
2874.003409	4205.527273
2875.305781	4203.095105
2876.606395	4201.304895
2877.908341	4207.176224
2879.210075	4215.069930
2880.508505	4225.756643
2881.808268	4236.366434
2883.106274	4243.846154
2884.404068	4243.318881
2885.700105	4251.151049
2886.997476	4243.674126
2888.293092	4248.681119
2889.588496	4248.206993
2890.883689	4246.766434
2892.175585	4259.134266
2893.470356	4263.542657
2894.761832	4266.450350
2896.054640	4259.411189
2897.347238	4258.160839
2898.636541	4261.714685
2899.927178	4262.939860
2901.216063	4275.151049
2902.506280	4273.640559
2903.793206	4282.195804
2905.081464	4293.811189
2906.367973	4311.913287
2907.654273	4329.472727
2908.940365	4331.874126
2910.224709	4330.928671
2911.511925	4322.139860
2912.794314	4323.703497
2914.078035	4319.381818
2915.360009	4323.102098
2916.641777	4331.937063
2917.921799	4323.890909
2919.204691	4332.570629
2920.485838	4339.156643
2921.763703	4342.145455
2923.044437	4349.069930
2924.321890	4342.348252
2925.599138	4343.243357
2926.874643	4344.062937
2928.153016	4347.247552
2929.426575	4351.478322
2930.703001	4363.300699
2931.977685	4368.138462
2933.250630	4366.857343
2934.524906	4376.716084
2935.797441	4372.095105
2937.069773	4379.172028
2938.338832	4393.159441
2939.610756	4389.546853
2940.880942	4404.717483
2942.150924	4410.706294
2943.420703	4418.096503
2944.688746	4421.516084
2945.955052	4415.388811
2947.221156	4404.082517
2948.488591	4402.264336
2949.754290	4394.090909
2951.019788	4395.776224
2952.285083	4398.504895
2953.547113	4404.760839
2954.810473	4408.924476
2956.073632	4424.503497
2957.335058	4430.941259
2958.597815	4446.869930
2959.858839	4453.627972
2961.118133	4463.100699
2962.377226	4469.500699
2963.636120	4486.816783
2964.894812	4484.746853
2966.153305	4500.497902
2967.410069	4498.219580
2968.666634	4497.846154
2969.921470	4506.597203
2971.177636	4513.843357
2972.430547	4517.412587
2973.684786	4534.093706
2974.938827	4535.450350
2976.191142	4539.488112
2977.443259	4542.345455
2978.693651	4549.230769
2979.946898	4547.813986
2981.195368	4555.848951
2982.446693	4554.847552
2983.694768	4559.991608
2984.942646	4570.615385
2986.190328	4586.179021
2987.437812	4602.281119
2988.683575	4626.118881
2989.929141	4626.609790
2991.176036	4638.854545
2992.419686	4650.766434
2993.664663	4655.697902
2994.906398	4668.013986
2996.150984	4675.139860
2997.393851	4687.219580
2998.633477	4697.776224
2999.875953	4703.027972
3001.115189	4712.281119
3002.355753	4725.432168
3003.594600	4732.625175
3004.833253	4726.443357
3006.070190	4735.110490
3007.308455	4739.328671
3008.545004	4749.177622
3009.781360	4764.507692
3011.017522	4762.744056
3012.251970	4772.362238
3013.486225	4779.858741
3014.720287	4792.995804
3015.952637	4801.476923
3017.183275	4808.213986
3018.416759	4824.180420
3019.648532	4835.815385
3020.878593	4843.103497
3022.108463	4855.412587
3023.336623	4860.078322
3024.566110	4866.572028
3025.793887	4847.011189
3027.021473	4838.219580
3028.250385	4837.932867
3029.474555	4838.916084
3030.701568	4831.419580
3031.925358	4834.415385
3033.150473	4848.359441
3034.373883	4848.841958
3035.597102	4844.257343
3036.818616	4847.496503
3038.042971	4860.927273
3039.262591	4874.050350
3040.483537	4862.219580
3041.704293	4867.173427
3042.923347	4881.082517
3044.143725	4882.675524
3045.360887	4883.541259
3046.579374	4901.114685
3047.796160	4904.289510
3049.012757	4901.658741
3050.229167	4903.492308
3051.442363	4902.801399
3052.658397	4917.820979
3053.871219	4917.927273
3055.086878	4914.590210
3056.297814	4922.423776
3057.510076	4921.951049
3058.722150	4929.177622
3059.934038	4927.794406
3061.144229	4932.797203
3062.354233	4927.276224
3063.564051	4925.233566
3064.772173	4929.611888
3065.980110	4929.058741
3067.186351	4945.961538
3068.393917	4947.265734
3069.599788	4961.512587
3070.805474	4974.661538
3072.010976	4978.037063
3073.214784	4991.804196
3074.419916	4988.150350
3075.623355	4991.937063
3076.825102	4991.462238
3078.026666	4993.472727
3079.228046	4992.297902
3080.429242	4987.076923
3081.628748	4987.057343
3082.828071	4979.840559
3084.028717	4988.506294
3085.227673	4989.511888
3086.423434	4986.695105
3087.622025	4999.980420
3088.817422	5013.036364
3090.014143	5027.899301
3091.207671	5025.881119
3092.404027	5036.433566
3093.598696	5039.758042
3094.790175	5040.086713
3095.985986	5035.556643
3097.177102	5041.521678
3098.369542	5054.268531
3099.558793	5067.032168
3100.750871	5077.973427
3101.941265	5090.481119
3103.128473	5095.149650
3104.317003	5099.313287
3105.506856	5093.889510
3106.693524	5089.720280
3107.880013	5081.868531
3109.066323	5072.861538
3110.253954	5054.345455
3111.438403	5047.779021
3112.621173	5055.099301
3113.806765	5060.191608
3114.990678	5061.422378
3116.172911	5069.356643
3117.354967	5074.198601
3118.536844	5094.181818
3119.718543	5112.567832
3120.898565	5112.844755
3122.076910	5118.581818
3123.258075	5114.626573
3124.436065	5103.142657
3125.613878	5103.395804
3126.791514	5110.959441
3127.967475	5110.633566
3129.143260	5105.069930
3130.320365	5108.227972
3131.495797	5111.241958
3132.669555	5139.774825
3133.841640	5155.829371
3135.015046	5158.027972
3136.188277	5163.695105
3137.359836	5169.179021
3138.532715	5186.753846
3139.702427	5197.523077
3140.873460	5199.513287
3142.042822	5192.711888
3143.210515	5188.097902
3144.381023	5188.411189
3145.546872	5194.949650
3146.717031	5201.285315
3147.882532	5195.427972
3149.047860	5184.647552
3150.213014	5186.769231
3151.377995	5192.009790
3152.544295	5183.439161
3153.705942	5168.949650
3154.868910	5149.373427
3156.031705	5125.272727
3157.194326	5106.923077
3158.355283	5083.027972
3159.516068	5063.541259
3160.676680	5059.909091
3161.835628	5056.455944
3162.994405	5046.344056
3164.153009	5056.909091
3165.311442	5061.586014
3166.469703	5066.724476
3167.626303	5083.142657
3168.781241	5083.728671
3169.937498	5082.977622
3171.092094	5093.648951
3172.246520	5096.718881
3173.399285	5105.605594
3174.551881	5126.625175
3175.704307	5130.366434
3176.856562	5139.436364
3178.008648	5149.156643
3179.157587	5160.039161
3180.309333	5179.166434
3181.459422	5189.107692
3182.607853	5194.458741
3183.756116	5212.159441
3184.904210	5228.672727
3186.052135	5249.384615
3187.198404	5256.970629
3188.344505	5278.633566
3189.488952	5289.977622
3190.633230	5314.054545
3191.777341	5323.316084
3192.922770	5338.117483
3194.065060	5344.555245
3195.207182	5352.495105
3196.349138	5349.984615
3197.490926	5337.995804
3198.632547	5330.662937
3199.771033	5330.306294
3200.910836	5319.148252
3202.051956	5325.297902
3203.189943	5325.156643
3204.326279	5332.613986
3205.462451	5332.911888
3206.599939	5335.225175
3207.735779	5350.258741
3208.872936	5357.027972
3210.005480	5354.844755
3211.142305	5347.050350
3212.274520	5340.068531
3213.408051	5326.152448
3214.541417	5316.958042
3215.671657	5305.342657
3216.804694	5286.890909
3217.934605	5271.139860
3219.065832	5250.339860
3220.193934	5244.718881
3221.324834	5256.447552
3222.454089	5260.085315
3223.581701	5287.195804
3224.706190	5309.727273
3225.834955	5333.802797
3226.960598	5357.262937
3228.086078	5373.595804
3229.209917	5381.358042
3230.336551	5397.704895
3231.458587	5396.044755
3232.581939	5398.113287
3233.705128	5395.600000
3234.828156	5392.146853
3235.949544	5399.151049
3237.070771	5418.328671
3238.190359	5419.613986
3239.309786	5442.006993
3240.427576	5456.886713
3241.548157	5482.283916
3242.665625	5503.265734
3243.782932	5543.068531
3244.900079	5574.497902
3246.015589	5604.083916
3247.132415	5620.966434
3248.246130	5639.583217
3249.362636	5659.197203
3250.477506	5670.776224
3251.589268	5660.465734
3252.700871	5662.490909
3253.813789	5656.734266
3254.926547	5652.029371
3256.036199	5634.682517
3257.147166	5637.167832
3258.257974	5641.619580
3259.367150	5631.367832
3260.474695	5635.134266
3261.583555	5653.423776
3262.692256	5662.855944
3263.797855	5682.183217
3264.904769	5700.377622
3266.010053	5713.163636
3267.116651	5712.530070
3268.220149	5717.386014
3269.324961	5717.600000
3270.429616	5726.204196
3271.531173	5733.921678
3272.632573	5737.472727
3273.735287	5743.240559
3274.837845	5767.044755
3275.937306	5768.570629
3277.039551	5783.633566
3278.138700	5793.254545
3279.236224	5784.714685
3280.333594	5773.804196
3281.433745	5773.335664
3282.530804	5762.184615
3283.627707	5753.800000
3284.724455	5745.240559
3285.816644	5741.567832
3286.913083	5725.327273
3288.007899	5730.538462
3289.102560	5720.823776
3290.195600	5727.623776
3291.288486	5726.611189
3292.379751	5741.057343
3293.472329	5766.723077
3294.563287	5772.251748
3295.652625	5767.172028
3296.741810	5770.005594
3297.832307	5756.232168
3298.919721	5754.813986
3300.006981	5733.586014
3301.095554	5732.883916
3302.183974	5719.316084
3303.267848	5715.510490
3304.355963	5725.285315
3305.440996	5749.053147
3306.524414	5774.637762
3307.609144	5778.447552
3308.692258	5791.229371
3309.776684	5809.725874
3310.858033	5810.334266
3311.940693	5826.636364
3313.021738	5830.535664
3314.102633	5833.632168
3315.181915	5832.667133
3316.261046	5836.646154
3317.341489	5841.013986
3318.418857	5848.998601
3319.497537	5866.655944
3320.574605	5861.401399
3321.651523	5874.337063
3322.726831	5878.664336
3323.801989	5871.344056
3324.878458	5875.489510
3325.951857	5867.857343
3327.025106	5863.167832
3328.099667	5858.123077
3329.172619	5846.910490
3330.243962	5836.675524
3331.316616	5856.360839
3332.386203	5868.163636
3333.457101	5867.372028
3334.526393	5865.454545
3335.596994	5862.854545
3336.665989	5850.268531
3337.733379	5841.970629
3338.799163	5816.149650
3339.869173	5805.916084
3340.936120	5790.373427
3342.000005	5781.837762
3343.066657	5782.483916
3344.131706	5792.472727
3345.195151	5796.274126
3346.258450	5793.861538
3347.321602	5795.700699
3348.384608	5804.653147
3349.447468	5806.425175
3350.508725	5805.299301
3351.566926	5807.507692
3352.629348	5817.622378
3353.688714	5831.455944
3354.747934	5842.082517
3355.808463	5851.117483
3356.864484	5863.204196
3357.923268	5869.148252
3358.977545	5882.661538
3360.034586	5896.948252
3361.090028	5895.160839
3362.146780	5900.882517
3363.201933	5892.773427
3364.255489	5899.875524
3365.307448	5903.493706
3366.362170	5913.444755
3367.413842	5917.300699
3368.465370	5914.574825
3369.518208	5918.774825
3370.567998	5920.292308
3371.619097	5920.682517
3372.667149	5933.104895
3373.717962	5927.566434
3374.765729	5928.193007
3375.813354	5920.381818
3376.860837	5926.602797
3377.906727	5935.348252
3378.953925	5937.837762
3379.998080	5945.609790
3381.044995	5940.496503
3382.090317	5946.980420
3383.132598	5949.692308
3384.174738	5944.109091
3385.218187	5952.278322
3386.261494	5943.958042
3387.303211	5946.117483
3388.344788	5946.886713
3389.386223	5945.679720
3390.426070	5956.170629
3391.464328	5952.662937
3392.503894	5958.682517
3393.543320	5961.390210
3394.581158	5962.302098
3395.617409	5943.752448
3396.653520	5932.422378
3397.690939	5922.907692
3398.725325	5918.033566
3399.761019	5913.728671
3400.796573	5909.696503
3401.829095	5915.829371
3402.864371	5926.474126
3403.896617	5936.411189
3404.928723	5944.822378
3405.959247	5958.268531
3406.991077	5966.948252
3408.022769	5962.896503
3409.051433	5970.588811
3410.079960	5968.888112
3411.109793	5964.383217
3412.139489	5962.455944
3413.166159	5966.420979
3414.194135	5970.569231
3415.219087	5976.643357
3416.246790	5988.348252
3417.271468	5994.742657
3418.297453	6011.488112
3419.321859	6022.552448
3420.346128	6014.766434
3421.368818	6015.644755
3422.391372	5994.723077
3423.415232	5983.173427
3424.436072	5962.269930
3425.456776	5938.080320
3426.478786	5918.272478
3427.497778	5906.596404
3428.516635	5906.802098
3429.536798	5922.639560
3430.553944	5957.858791
