-118.702670	-7.600000
-116.033069	-10.400000
-113.366404	-2.600000
-110.700491	11.800000
-108.037511	20.200000
-105.373100	22.600000
-102.711620	19.200000
-100.048711	21.600000
-97.390908	8.200000
-94.731676	21.600000
-92.073192	12.000000
-89.417633	23.400000
-86.760644	13.800000
-84.108754	0.800000
-81.455434	13.200000
-78.805033	1.600000
-76.153204	34.000000
-73.506465	25.400000
-70.858296	13.800000
-68.210870	9.800000
-65.566359	10.000000
-62.920418	14.800000
-60.279559	10.400000
-57.637271	-1.600000
-54.997892	5.000000
-52.357084	25.400000
-49.717015	18.400000
-47.082020	-1.600000
-44.445595	4.400000
-41.812073	11.400000
-39.177123	-0.600000
-36.547239	16.000000
-33.913761	1.800000
-31.285346	8.000000
-28.657665	37.200000
-26.028555	20.400000
-23.404503	9.600000
-20.776860	13.800000
-18.154272	20.200000
-15.532414	19.000000
-12.911287	6.000000
-10.290891	29.400000
-7.673382	45.600000
-5.054445	98.600000
-2.438394	219.600000
0.176930	254.000000
2.791525	124.000000
5.403239	26.600000
8.016381	-4.200000
10.624489	23.800000
13.236178	29.200000
15.842837	-6.200000
18.450925	11.200000
21.058287	27.600000
23.660625	9.000000
26.266542	11.800000
28.867436	30.200000
31.469758	33.800000
34.067062	9.800000
36.667943	11.000000
39.263808	22.800000
41.861101	24.200000
44.457675	20.800000
47.049240	19.600000
49.642234	35.200000
52.232366	18.200000
54.823925	8.800000
57.412626	13.600000
60.002753	27.600000
62.587881	21.000000
65.174437	21.600000
67.760278	13.800000
70.343266	18.800000
72.927681	16.000000
75.504967	29.200000
78.085818	22.400000
80.663822	11.000000
83.241114	9.800000
85.819834	22.000000
88.393571	23.600000
90.968735	42.200000
93.541056	7.200000
96.112670	-0.400000
98.681443	36.400000
101.251643	30.400000
103.819004	17.600000
106.387792	23.600000
108.953743	37.000000
111.516859	23.800000
114.083531	16.400000
116.640981	24.000000
119.204117	29.800000
121.762294	74.200000
124.324025	71.800000
126.880799	76.400000
129.438999	104.400000
131.992247	143.600000
134.544797	216.400000
137.100897	322.400000
139.652049	477.000000
142.202504	588.200000
144.752261	625.000000
147.299199	710.600000
149.845442	732.800000
152.393110	755.400000
154.940082	788.600000
157.482118	784.200000
160.023462	767.600000
162.564112	769.000000
165.106187	789.000000
167.645452	766.400000
170.181907	757.200000
172.717672	796.800000
175.254862	765.600000
177.791361	774.400000
180.325054	773.400000
182.855943	787.600000
185.386144	756.200000
187.917771	807.200000
190.446596	788.000000
192.972622	759.000000
195.497962	753.000000
198.024727	773.600000
200.548696	750.600000
203.071979	775.800000
205.594578	796.600000
208.114384	793.400000
210.633507	788.400000
213.151947	752.000000
215.671812	761.800000
218.184674	788.600000
220.701068	810.800000
223.216781	762.600000
225.727603	773.800000
228.239850	801.600000
230.749314	812.400000
233.258100	803.800000
235.766208	774.200000
238.275740	757.000000
240.780391	799.800000
243.284366	782.400000
245.789765	798.400000
248.290289	789.400000
250.794336	782.200000
253.291413	802.200000
255.792012	778.800000
258.289840	773.400000
260.786995	786.600000
263.283478	798.200000
265.775097	795.400000
268.270236	802.400000
270.762608	793.200000
273.254310	794.000000
275.743249	793.200000
278.233611	789.400000
280.721212	799.200000
283.206053	781.400000
285.694409	819.400000
288.175825	764.600000
290.660755	807.400000
293.140839	813.600000
295.624436	778.000000
298.103191	790.400000
300.583368	789.800000
303.060794	812.600000
305.537556	773.800000
308.013654	773.600000
310.487004	771.800000
312.959693	789.000000
315.431720	772.800000
317.903085	822.800000
320.371707	812.800000
322.839669	822.000000
325.309054	799.400000
327.773616	782.400000
330.241682	788.000000
332.704927	854.400000
335.167516	816.800000
337.629448	766.800000
340.090723	805.200000
342.549263	787.600000
345.009226	811.200000
347.466457	826.000000
349.923033	786.200000
352.378955	800.800000
354.832147	751.800000
357.286762	776.800000
359.736575	749.800000
362.189884	770.000000
364.638394	798.400000
367.086254	770.200000
369.535536	769.200000
371.980023	798.000000
374.425933	788.200000
376.871194	762.200000
379.313736	787.400000
381.755630	790.200000
384.196876	754.800000
386.635408	783.200000
389.075360	794.800000
391.512599	789.800000
393.947127	766.800000
396.385141	834.600000
398.818380	795.200000
401.253039	791.400000
403.682926	772.200000
406.116298	786.200000
408.544900	771.000000
410.972860	771.600000
413.402241	808.200000
415.826858	797.600000
418.252895	784.800000
420.678293	785.800000
423.103050	788.000000
425.523048	795.400000
427.944468	795.200000
430.363192	731.200000
432.783335	759.800000
435.200784	783.000000
437.619654	807.800000
440.035829	820.000000
442.447258	785.800000
444.862163	821.200000
447.274378	782.000000
449.685960	800.400000
452.096907	816.200000
454.505167	807.600000
456.912796	829.200000
459.319792	776.400000
461.726157	821.600000
464.129839	780.000000
466.532891	796.400000
468.935313	807.200000
471.337105	773.200000
473.736219	799.000000
476.136753	834.400000
478.536658	797.200000
480.931841	790.200000
483.330489	768.200000
485.724418	777.600000
488.117721	774.400000
490.510399	779.400000
492.902451	801.600000
495.295921	817.200000
497.684679	813.600000
500.070771	746.000000
502.458283	779.600000
504.845172	792.600000
507.229396	781.400000
509.615040	786.800000
511.998022	768.400000
514.378342	783.200000
516.760083	785.000000
519.139164	777.600000
521.519663	802.200000
523.897506	778.000000
526.272692	806.000000
528.647261	782.800000
531.023249	827.000000
533.396584	818.400000
535.771336	812.000000
538.141402	816.800000
540.510854	786.400000
542.881723	786.000000
545.247911	787.800000
547.615518	787.200000
549.980479	800.800000
552.344828	809.200000
554.708563	778.600000
557.073716	821.400000
559.434197	820.000000
561.796095	824.000000
564.155354	815.600000
566.511974	796.600000
568.872040	784.400000
571.225414	785.200000
573.582233	810.000000
575.936417	827.000000
578.289992	815.000000
580.642960	801.000000
582.993295	798.800000
585.345048	798.400000
587.690124	802.600000
590.040663	799.000000
592.384530	761.000000
594.733858	851.200000
597.078537	818.400000
599.420592	792.400000
601.764064	800.600000
604.104913	775.400000
606.445159	764.800000
608.782785	800.200000
611.123846	780.600000
613.460270	749.000000
615.798110	792.000000
618.133333	811.400000
620.465939	805.000000
622.799963	808.000000
625.131372	812.800000
627.462183	825.400000
629.792396	801.200000
632.122012	811.800000
634.447004	820.000000
636.777438	799.000000
639.103251	788.200000
641.426456	799.000000
643.751078	758.800000
646.073094	789.800000
648.394516	832.800000
650.713335	799.400000
653.033571	808.400000
655.353212	794.200000
657.670254	818.200000
659.986703	778.400000
662.300554	809.800000
664.615821	834.600000
666.928491	775.600000
669.242576	797.600000
671.552061	793.800000
673.862962	788.400000
676.171270	799.200000
678.478989	803.200000
680.788124	824.600000
683.092666	785.400000
685.396622	795.200000
687.699991	849.000000
690.004776	832.600000
692.304973	831.000000
694.606586	792.800000
696.907613	814.000000
699.204059	809.600000
701.501920	816.200000
703.799197	812.800000
706.095891	797.400000
708.388009	794.200000
710.683538	781.600000
712.974493	805.400000
715.266863	750.000000
717.556657	806.200000
719.845872	801.400000
722.134507	801.800000
724.420569	794.000000
726.708045	795.800000
728.992951	782.200000
731.277279	802.000000
733.559038	827.800000
735.842211	810.600000
738.124807	856.000000
740.402847	823.800000
742.682301	826.200000
744.961180	781.600000
747.239484	813.800000
749.513237	800.000000
751.788405	816.600000
754.062999	836.200000
756.335034	817.400000
758.608482	805.000000
760.879372	864.000000
763.147706	825.000000
765.417453	830.200000
767.684645	829.600000
769.951268	846.000000
772.217320	820.000000
774.480821	809.400000
776.745734	809.800000
779.010079	864.400000
781.269893	819.400000
783.531121	803.600000
785.791781	800.600000
788.049895	801.600000
790.305464	824.200000
792.564423	807.200000
794.816884	843.400000
797.074712	823.600000
799.328021	812.400000
801.578790	817.400000
803.830971	791.400000
806.080613	793.400000
808.331667	771.800000
810.578210	832.200000
812.826166	798.600000
815.071586	815.600000
817.318419	808.200000
819.564689	806.600000
821.806456	798.000000
824.051605	790.600000
826.290283	787.200000
828.532342	796.800000
830.769903	821.000000
833.008876	831.000000
835.245322	782.800000
837.483179	816.600000
839.718511	800.000000
841.951320	833.800000
844.185539	762.800000
846.417237	813.400000
848.648380	787.400000
850.878968	806.000000
853.109002	817.600000
855.338481	795.400000
857.563480	817.800000
859.791852	827.200000
862.015746	793.000000
864.241051	829.000000
866.461880	807.800000
868.686081	818.400000
870.905809	811.000000
873.126947	803.600000
875.347535	803.200000
877.565614	791.600000
879.785102	794.600000
882.000124	812.600000
884.214598	827.000000
886.428525	822.000000
888.641904	791.200000
890.854737	813.000000
893.067022	788.400000
895.276806	811.000000
897.486044	758.600000
899.694737	804.400000
901.900930	810.400000
904.108533	821.600000
906.313639	795.200000
908.518201	813.600000
910.720268	808.600000
912.923744	794.800000
915.124726	822.000000
917.325166	781.800000
919.527015	808.600000
921.722473	819.000000
923.921289	794.200000
926.115668	805.800000
928.313404	801.600000
930.506704	834.200000
932.701413	836.000000
934.893635	816.200000
937.085320	810.000000
939.276467	818.800000
941.465131	800.600000
943.653259	816.200000
945.838905	819.400000
948.027905	837.200000
950.212480	814.400000
952.396521	837.800000
954.583913	822.200000
956.763000	835.600000
958.945438	817.600000
961.127342	788.800000
963.306771	828.200000
965.483728	849.600000
967.662093	834.000000
969.841865	835.800000
972.015288	850.600000
974.192057	830.000000
976.364419	847.200000
978.538189	866.400000
980.707555	858.800000
982.880265	819.000000
985.050510	858.400000
987.220225	868.800000
989.389412	846.600000
991.554202	874.600000
993.722334	854.400000
995.886070	827.400000
998.051214	867.600000
1000.213898	859.600000
1002.376057	821.200000
1004.535759	902.800000
1006.694936	856.800000
1008.855520	852.200000
1011.013649	864.400000
1013.171255	875.200000
1015.328337	838.600000
1017.484895	807.600000
1019.637074	835.600000
1021.790660	878.800000
1023.943724	824.000000
1026.094339	832.600000
1028.246360	817.000000
1030.394009	829.400000
1032.544989	837.400000
1034.691598	832.400000
1036.837688	854.200000
1038.983260	857.800000
1041.130237	838.600000
1043.270925	851.600000
1045.414942	834.800000
1047.556520	847.600000
1049.697580	807.200000
1051.840046	832.400000
1053.976231	863.000000
1056.115743	840.600000
1058.250899	839.800000
1060.389380	827.600000
1062.523508	881.800000
1064.657122	831.600000
1066.792140	895.400000
1068.922810	855.000000
1071.054884	809.800000
1073.184528	865.800000
1075.313661	827.600000
1077.442283	843.400000
1079.570393	864.600000
1081.696077	845.000000
1083.821251	865.400000
1085.947829	886.000000
1088.070069	834.800000
1090.193714	849.400000
1092.313024	867.200000
1094.437563	826.600000
1096.555858	864.600000
1098.675556	844.800000
1100.792837	853.200000
1102.909610	856.600000
1105.025877	862.400000
1107.139729	883.000000
1109.254984	851.800000
1111.365917	867.400000
1113.480162	846.000000
1115.590086	880.800000
1117.701413	902.000000
1119.812237	852.000000
1121.918744	864.000000
1124.028560	872.800000
1126.134062	883.800000
1128.240968	850.200000
1130.341658	887.800000
1132.447560	876.200000
1134.549153	834.000000
1136.652148	883.200000
1138.754644	907.400000
1140.850932	904.600000
1142.952427	891.400000
1145.049620	893.200000
1147.146314	853.200000
1149.242511	871.600000
1151.338209	859.400000
1153.433410	867.400000
1155.526214	855.400000
1157.620420	920.600000
1159.708435	883.200000
1161.801648	897.400000
1163.888674	874.400000
1165.978998	866.000000
1168.065034	905.400000
1170.154368	913.200000
1172.237521	871.600000
1174.322077	885.800000
1176.408034	884.000000
1178.489709	886.000000
1180.572785	861.600000
1182.653476	890.600000
1184.733676	913.400000
1186.813384	878.600000
1188.892601	906.800000
1190.969435	895.400000
1193.043889	882.000000
1195.121635	873.000000
1197.195110	894.400000
1199.269987	877.400000
1201.340596	882.000000
1203.412606	894.000000
1205.482240	887.200000
1207.553275	916.000000
1209.623822	898.000000
1211.690109	925.200000
1213.757796	935.800000
1215.823110	934.800000
1217.889825	920.200000
1219.952284	936.400000
1222.018029	936.200000
1224.079519	940.400000
1226.142410	946.400000
1228.202932	939.800000
1230.262972	922.800000
1232.322528	930.600000
1234.379720	922.000000
1236.436429	947.600000
1238.490776	910.000000
1240.548403	926.600000
1242.603668	939.600000
1244.654693	958.600000
1246.707117	957.600000
1248.759061	928.800000
1250.808647	986.400000
1252.857754	972.800000
1254.906382	964.200000
1256.954532	967.200000
1259.002204	929.600000
1261.045645	993.600000
1263.092362	976.400000
1265.136725	978.600000
1267.180611	991.200000
1269.222147	1020.600000
1271.261333	1001.000000
1273.303792	1033.200000
1275.342028	1012.200000
1277.381663	1049.800000
1279.420822	972.000000
1281.455764	1055.600000
1283.492104	1006.000000
1285.526100	1040.600000
1287.561493	1053.800000
1289.592673	1092.200000
1291.625252	1116.000000
1293.657359	1120.400000
1295.687125	1136.800000
1297.718288	1157.600000
1299.745244	1195.600000
1301.773599	1264.000000
1303.797748	1259.800000
1305.825163	1331.400000
1307.848375	1394.600000
1309.872985	1517.000000
1311.895260	1604.600000
1313.918933	1871.800000
1315.940273	2165.400000
1317.961146	2620.000000
1319.981551	3349.000000
1321.997763	4791.600000
1324.015372	7877.800000
1326.030653	15639.800000
1328.049193	37592.400000
1330.063543	64600.200000
1332.075568	64600.200000
1334.090851	61495.800000
1336.101948	27164.000000
1338.114441	9315.800000
1340.122752	4932.000000
1342.134319	3126.400000
1344.139847	2355.800000
1346.148630	1868.000000
1348.153235	1620.000000
1350.161094	1485.400000
1352.168491	1357.600000
1354.169857	1286.800000
1356.172619	1246.200000
1358.174922	1199.200000
1360.176765	1155.000000
1362.178148	1121.000000
1364.177217	1067.400000
1366.175828	1082.600000
1368.173981	1053.200000
1370.171676	1018.400000
1372.165208	1029.800000
1374.160135	1044.400000
1376.154606	1013.200000
1378.148620	1015.000000
1380.140327	1021.600000
1382.131578	990.600000
1384.120524	1010.800000
1386.110865	973.600000
1388.100752	988.200000
1390.088334	980.400000
1392.075463	1026.200000
1394.060290	994.000000
1396.046512	1007.800000
1398.030433	978.000000
1400.013902	1001.000000
1401.996919	995.200000
1403.977638	982.400000
1405.959751	984.800000
1407.939567	958.800000
1409.918933	976.400000
1411.894160	1008.400000
1413.872625	988.200000
1415.848797	991.800000
1417.824519	1033.600000
1419.799792	1002.600000
1421.772775	1003.600000
1423.745309	1011.000000
1425.717395	980.200000
1427.689034	1034.000000
1429.656544	1024.400000
1431.629128	1006.200000
1433.593906	1042.400000
1435.563757	971.600000
1437.529483	1043.400000
1439.496603	1049.600000
1441.461439	1044.600000
1443.422155	1006.800000
1445.387939	1025.400000
1447.347768	1069.000000
1449.308991	1003.000000
1451.271605	1032.200000
1453.230105	1033.600000
1455.188163	1036.600000
1457.145779	1061.800000
1459.102952	1010.800000
1461.057850	1025.200000
1463.014141	1047.800000
1464.968157	1019.000000
1466.921732	1022.400000
1468.873035	1020.800000
1470.825730	1039.800000
1472.776154	976.200000
1474.726139	989.000000
1476.675685	1006.800000
1478.622962	1018.600000
1480.567971	1008.000000
1482.514373	1009.400000
1484.460337	1023.000000
1486.405864	1003.200000
1488.349125	987.800000
1490.291950	1013.800000
1492.232512	983.000000
1494.174466	997.400000
1496.114157	1018.200000
1498.053413	1022.600000
1499.992235	1038.400000
1501.928797	972.600000
1503.866750	998.200000
1505.802444	1033.400000
1507.737705	982.600000
1509.670709	999.800000
1511.603281	1018.600000
1513.535421	1034.600000
1515.467129	1013.000000
1517.396584	1034.400000
1519.327429	1034.600000
1521.257842	981.000000
1523.184183	1009.400000
1525.111914	1046.800000
1527.037396	1060.400000
1528.962448	1023.000000
1530.887070	1027.600000
1532.811264	1082.600000
1534.733211	1035.000000
1536.656548	999.400000
1538.577638	1028.400000
1540.496484	1039.400000
1542.416720	1045.400000
1544.334712	1033.400000
1546.252278	1050.400000
1548.167603	1008.400000
1550.084317	1036.000000
1551.996975	1014.200000
1553.912838	1027.600000
1555.826462	1037.000000
1557.737847	1039.200000
1559.650622	997.200000
1561.559347	1028.800000
1563.469461	993.000000
1565.379152	998.200000
1567.288420	986.400000
1569.195453	1033.800000
1571.100254	959.000000
1573.006444	1046.000000
1574.910403	1010.800000
1576.813940	1021.600000
1578.717057	1009.600000
1580.617944	1028.200000
1582.520220	1012.200000
1584.420267	991.600000
1586.321703	1010.400000
1588.219104	984.200000
1590.116088	1010.000000
1592.012653	1019.000000
1593.910605	1007.200000
1595.802723	1022.000000
1597.698035	1014.400000
1599.592928	1039.800000
1601.485601	1039.000000
1603.377856	958.200000
1605.267892	964.000000
1607.157512	999.000000
1609.046717	1023.400000
1610.935506	1019.600000
1612.822079	1064.600000
1614.710039	1022.800000
1616.593982	1022.800000
1618.479312	1014.200000
1620.364229	1013.400000
1622.246932	1012.200000
1624.131022	988.800000
1626.011100	1004.000000
1627.892566	1072.000000
1629.771820	1026.000000
1631.652462	988.200000
1633.527299	1024.600000
1635.407117	1009.200000
1637.282930	995.200000
1639.158334	1018.400000
1641.035123	987.400000
1642.906115	1042.000000
1644.780290	1066.600000
1646.650465	1008.800000
1648.523821	1037.600000
1650.394974	1005.400000
1652.263925	1036.000000
1654.134262	1042.600000
1656.000606	1028.200000
1657.868335	1029.400000
1659.733865	1011.200000
1661.600781	1065.600000
1663.463707	1033.800000
1665.328020	999.600000
1667.190136	1050.200000
1669.051847	1016.800000
1670.914943	1026.800000
1672.775845	1000.400000
1674.634554	1002.200000
1676.492859	1021.400000
1678.352548	1018.600000
1680.206471	1045.200000
1682.063567	1043.800000
1683.920259	1013.400000
1685.772976	1038.600000
1687.628864	1016.400000
1689.480778	1040.400000
1691.332291	1032.200000
1693.183403	1008.400000
1695.034114	1005.200000
1696.884425	1051.200000
1698.732552	1030.400000
1700.582063	1015.800000
1702.425824	1014.000000
1704.274536	1027.600000
1706.117501	1017.800000
1707.963632	1013.800000
1709.805802	1032.800000
1711.651137	1042.400000
1713.490730	1050.000000
1715.331709	1024.600000
1717.174070	1058.000000
1719.012474	1025.000000
1720.852262	1044.000000
1722.689875	1033.600000
1724.527093	1025.800000
1726.362137	1034.200000
1728.198564	1006.800000
1730.032818	1027.000000
1731.866679	1067.400000
1733.700145	1038.400000
1735.529665	1049.400000
1737.362345	1029.000000
1739.191079	1045.400000
1741.022972	1099.000000
1742.850922	1050.200000
1744.678480	1023.200000
1746.505647	1025.000000
1748.332422	1072.600000
1750.158805	1071.400000
1751.981252	1076.200000
1753.806854	1042.400000
1755.628520	1083.400000
1757.451569	1055.400000
1759.272457	1071.000000
1761.092955	1078.400000
1762.914835	1076.400000
1764.731015	1047.400000
1766.550347	1047.400000
1768.365752	1023.800000
1770.184308	1039.200000
1771.998938	1063.800000
1773.813181	1042.000000
1775.627038	1071.400000
1777.440508	1078.800000
1779.251824	1072.800000
1781.064522	1065.200000
1782.876834	1081.800000
1784.685227	1088.200000
1786.495002	1077.800000
1788.300861	1087.200000
1790.109867	1071.200000
1791.914959	1064.000000
1793.721432	1100.400000
1795.527520	1085.200000
1797.329699	1079.000000
1799.135021	1063.000000
1800.936435	1086.400000
1802.739230	1125.400000
1804.538118	1121.400000
1806.338387	1077.000000
1808.138274	1082.400000
1809.936019	1109.000000
1811.733384	1080.200000
1813.530368	1107.400000
1815.326972	1091.600000
1817.121437	1120.600000
1818.917282	1109.400000
1820.707471	1144.200000
1822.502557	1133.200000
1824.291990	1099.000000
1826.084561	1062.800000
1827.874996	1119.800000
1829.663296	1091.600000
1831.454732	1103.000000
1833.240523	1117.400000
1835.027692	1120.800000
1836.812731	1156.000000
1838.600902	1130.600000
1840.385188	1127.400000
1842.167345	1098.400000
1843.950881	1147.400000
1845.732288	1152.200000
1847.515073	1133.200000
1849.293979	1140.800000
1851.074263	1134.200000
1852.852422	1102.200000
1854.631958	1097.600000
1856.409370	1141.600000
1858.184659	1157.000000
1859.961325	1159.000000
1861.735869	1115.200000
1863.511790	1158.400000
1865.282092	1129.600000
1867.055521	1163.400000
1868.826830	1154.800000
1870.597768	1161.400000
1872.370084	1178.200000
1874.136786	1177.200000
1875.906613	1164.800000
1877.672577	1172.800000
1879.441665	1180.400000
1881.206891	1205.200000
1882.971749	1158.600000
1884.737983	1175.200000
1886.500359	1168.200000
1888.262368	1161.800000
1890.024010	1214.200000
1891.785284	1204.200000
1893.546192	1150.600000
1895.306732	1163.400000
1897.065164	1178.200000
1898.823229	1201.400000
1900.579187	1189.800000
1902.336521	1167.000000
1904.093490	1184.000000
1905.848352	1193.400000
1907.601109	1170.600000
1909.353503	1210.200000
1911.107273	1220.200000
1912.858939	1181.600000
1914.608502	1205.200000
1916.359442	1200.200000
1918.110018	1194.200000
1919.856756	1224.000000
1921.604869	1201.600000
1923.350883	1213.600000
1925.098273	1203.600000
1926.843564	1202.800000
1928.586758	1187.600000
1930.331328	1249.200000
1932.073801	1219.400000
1933.815914	1232.400000
1935.557668	1218.200000
1937.299061	1230.400000
1939.038361	1178.200000
1940.777302	1224.000000
1942.515884	1244.800000
1944.252375	1249.200000
1945.988507	1257.300000
1947.726015	1265.400000
1949.459700	1223.800000
1951.194760	1239.400000
1952.927731	1250.800000
1954.660346	1281.600000
1956.392604	1304.800000
1958.124506	1272.000000
1959.854323	1291.600000
1961.582054	1241.800000
1963.311160	1259.000000
1965.039910	1282.000000
1966.766577	1291.400000
1968.492890	1282.800000
1970.220577	1296.800000
1971.942727	1309.200000
1973.667978	1274.400000
1975.389422	1293.400000
1977.113966	1286.400000
1978.836431	1319.400000
1980.555092	1351.000000
1982.276852	1268.200000
1983.994811	1285.200000
1985.714142	1324.200000
1987.429674	1317.200000
1989.150026	1346.800000
1990.866580	1326.400000
1992.579337	1335.000000
1994.295190	1297.600000
1996.008971	1356.400000
1997.722402	1324.600000
1999.433762	1322.600000
2001.146494	1351.600000
2002.855435	1365.200000
2004.567470	1349.800000
2006.273995	1300.600000
2007.983613	1376.200000
2009.691163	1372.600000
2011.398366	1346.200000
2013.103503	1363.000000
2014.808293	1377.400000
2016.514456	1336.600000
2018.216835	1379.000000
2019.920587	1389.800000
2021.622276	1347.200000
2023.323619	1365.200000
2025.024618	1380.800000
2026.723555	1404.400000
2028.423864	1382.800000
2030.120397	1431.400000
2031.818302	1393.400000
2033.514149	1406.000000
2035.213081	1390.600000
2036.906527	1411.400000
2038.601344	1423.800000
2040.295818	1426.600000
2041.986525	1404.200000
2043.680314	1429.400000
2045.370338	1425.600000
2047.061731	1391.200000
2048.751072	1428.600000
2050.441784	1458.400000
2052.128732	1384.600000
2053.815340	1428.400000
2055.503319	1426.200000
2057.187538	1414.000000
2058.873127	1418.800000
2060.558377	1410.600000
2062.241579	1425.200000
2063.926151	1439.200000
2065.605259	1408.600000
2067.289154	1453.800000
2068.967587	1388.800000
2070.649098	1442.000000
2072.326857	1430.200000
2074.004280	1426.000000
2075.683072	1437.600000
2077.359821	1451.200000
2079.034529	1432.600000
2080.710607	1421.200000
2082.384643	1453.200000
2084.058345	1476.600000
2085.731711	1454.600000
2087.403038	1429.200000
2089.074031	1438.400000
2090.744690	1449.000000
2092.415015	1426.400000
2094.085006	1474.600000
2095.752960	1475.400000
2097.420582	1444.000000
2099.086170	1471.400000
2100.753126	1463.600000
2102.418049	1503.800000
2104.082640	1497.400000
2105.745199	1472.200000
2107.409126	1524.200000
2109.071022	1509.400000
2110.732587	1484.000000
2112.393822	1490.200000
2114.053027	1521.000000
2115.711903	1530.000000
2117.370448	1522.400000
2119.028664	1481.000000
2120.683157	1506.000000
2122.340714	1532.800000
2123.997941	1538.400000
2125.651448	1588.400000
2127.306322	1526.400000
2128.957477	1570.200000
2130.611695	1541.800000
2132.262195	1512.600000
2133.914063	1582.000000
2135.560522	1562.600000
2137.211735	1565.000000
2138.859236	1584.000000
2140.508103	1577.600000
2142.154951	1558.000000
2143.801474	1569.200000
2145.447671	1587.400000
2147.090159	1559.800000
2148.735706	1595.000000
2150.377546	1607.600000
2152.022443	1557.000000
2153.663635	1606.200000
2155.304503	1592.200000
2156.945048	1594.000000
2158.583580	1648.600000
2160.223478	1615.800000
2161.859676	1601.800000
2163.497240	1610.800000
2165.134482	1632.800000
2166.769714	1656.600000
2168.404624	1590.000000
2170.039213	1593.000000
2171.673481	1625.400000
2173.304055	1630.400000
2174.937681	1617.000000
2176.567614	1633.400000
2178.198914	1659.600000
2179.828208	1659.600000
2181.457183	1627.200000
2183.085838	1640.200000
2184.714174	1652.000000
2186.340507	1684.200000
2187.966522	1665.000000
2189.590536	1671.200000
2191.215915	1658.400000
2192.839293	1662.600000
2194.464036	1656.600000
2196.085098	1649.200000
2197.705843	1674.000000
2199.327952	1679.800000
2200.948064	1668.800000
2202.566180	1669.200000
2204.183980	1606.600000
2205.801464	1659.400000
2207.418634	1711.000000
2209.035487	1701.200000
2210.652026	1650.600000
2212.266571	1708.400000
2213.879125	1715.400000
2215.493042	1667.000000
2217.104968	1750.000000
2218.718257	1714.600000
2220.329555	1682.600000
2221.938865	1740.200000
2223.549537	1728.600000
2225.158221	1780.400000
2226.766593	1738.400000
2228.372978	1751.600000
2229.980725	1718.400000
2231.586487	1759.200000
2233.191937	1716.000000
2234.795402	1783.600000
2236.400230	1789.400000
2238.003074	1788.400000
2239.603935	1769.400000
2241.206159	1804.200000
2242.806401	1806.000000
2244.408005	1733.400000
2246.005956	1808.200000
2247.605270	1819.400000
2249.202604	1783.600000
2250.799630	1832.800000
2252.398017	1886.600000
2253.992757	1782.400000
2255.585519	1816.600000
2257.179644	1824.600000
2258.775130	1848.600000
2260.366971	1829.400000
2261.958506	1841.600000
2263.551402	1814.200000
2265.138990	1848.600000
2266.731273	1824.400000
2268.318249	1885.000000
2269.908254	1877.200000
2271.492954	1879.600000
2273.082348	1895.600000
2274.666439	1897.600000
2276.251892	1838.000000
2277.835376	1838.200000
2279.421885	1862.400000
2281.004761	1869.800000
2282.587334	1842.600000
2284.169603	1891.200000
2285.748242	1876.200000
2287.329906	1886.200000
2288.907941	1846.400000
2290.488999	1883.200000
2292.066430	1894.400000
2293.641898	1905.600000
2295.220388	1901.600000
2296.795254	1906.000000
2298.369819	1924.800000
2299.944083	1890.600000
2301.518047	1875.200000
2303.091711	1883.000000
2304.665075	1967.000000
2306.234820	1915.800000
2307.804266	1915.400000
2309.376730	1907.800000
2310.943920	1963.600000
2312.514127	1960.800000
2314.080721	1985.600000
2315.648673	1960.000000
2317.214671	1989.200000
2318.780371	1957.000000
2320.345773	2027.200000
2321.909222	1974.600000
2323.474030	2010.400000
2325.035229	2034.800000
2326.599443	2013.800000
2328.158396	2012.600000
2329.720362	1997.600000
2331.280378	2031.800000
2332.840098	2026.400000
2334.397870	2087.600000
2335.955346	2039.600000
2337.512528	2051.600000
2339.067762	2075.200000
2340.622702	2078.000000
2342.177349	2092.800000
2343.731702	2123.000000
2345.285761	2108.200000
2346.839527	2076.400000
2348.391348	2091.800000
2349.941226	2095.400000
2351.494113	2122.800000
2353.041756	2135.600000
2354.592407	2111.600000
2356.139468	2083.200000
2357.687886	2129.800000
2359.236013	2135.400000
2360.780551	2135.600000
2362.326447	2136.000000
2363.870404	2148.000000
2365.415719	2176.200000
2366.957449	2147.400000
2368.500537	2171.000000
2370.041688	2168.600000
2371.582550	2151.000000
2373.123123	2226.800000
2374.663407	2197.800000
2376.203402	2237.200000
2377.739818	2234.400000
2379.279236	2249.400000
2380.815077	2250.600000
2382.352275	2239.200000
2383.885897	2284.200000
2385.422519	2297.600000
2386.957211	2267.200000
2388.489972	2265.400000
2390.022448	2270.600000
2391.552995	2323.800000
2393.086540	2304.400000
2394.614874	2309.600000
2396.144564	2341.600000
2397.673969	2351.800000
2399.203089	2309.600000
2400.731923	2335.800000
2402.255553	2344.400000
2403.783818	2400.400000
2405.306880	2352.200000
2406.834577	2381.800000
2408.355434	2394.200000
2409.880923	2413.400000
2411.402853	2347.000000
2412.926137	2390.400000
2414.447501	2490.800000
2415.966945	2425.600000
2417.487744	2461.000000
2419.006624	2427.400000
2420.525223	2416.600000
2422.041903	2478.000000
2423.559939	2508.400000
2425.077693	2464.200000
2426.591895	2452.400000
2428.105818	2525.400000
2429.619460	2540.800000
2431.134456	2505.000000
2432.645905	2515.400000
2434.158707	2503.000000
2435.669597	2513.600000
2437.180208	2535.600000
2438.688907	2534.200000
2440.200592	2547.400000
2441.708734	2570.400000
2443.216598	2555.200000
2444.724183	2622.600000
2446.228229	2537.400000
2447.735259	2599.600000
2449.240381	2651.400000
2450.745226	2670.000000
2452.248164	2651.800000
2453.750825	2663.200000
2455.253211	2688.600000
2456.753690	2660.800000
2458.255524	2660.400000
2459.755452	2651.400000
2461.255105	2683.000000
2462.754483	2657.200000
2464.251958	2688.200000
2465.747531	2685.400000
2467.246084	2753.000000
2468.741109	2690.000000
2470.237486	2735.000000
2471.730337	2696.600000
2473.224541	2732.600000
2474.718471	2725.800000
2476.208877	2712.200000
2477.702261	2717.000000
2479.193747	2701.000000
2480.683336	2685.000000
2482.172653	2754.000000
2483.660074	2748.400000
2485.150471	2759.800000
2486.637350	2753.600000
2488.125580	2763.800000
2489.610293	2758.800000
2491.094736	2774.800000
2492.580531	2737.000000
2494.064434	2817.400000
2495.549687	2767.400000
2497.029807	2803.600000
2498.512899	2753.400000
2499.994102	2703.800000
2501.475035	2770.000000
2502.954078	2828.000000
2504.432854	2751.000000
2505.911361	2751.000000
2507.389599	2743.400000
2508.867570	2760.400000
2510.342035	2753.800000
2511.819470	2718.000000
2513.293400	2696.600000
2514.768682	2802.200000
2516.243696	2753.600000
2517.715209	2700.000000
2519.188073	2734.600000
2520.659054	2683.800000
2522.131385	2760.000000
2523.598602	2712.400000
2525.068786	2709.400000
2526.537089	2738.600000
2528.005126	2700.400000
2529.472899	2696.200000
2530.940407	2710.200000
2532.407651	2743.600000
2533.871402	2739.400000
2535.336503	2731.400000
2536.799727	2717.000000
2538.264300	2751.400000
2539.725385	2782.800000
2541.187819	2747.000000
2542.649990	2797.800000
2544.108674	2799.000000
2545.571931	2761.600000
2547.030091	2861.200000
2548.489601	2828.600000
2549.944016	2806.200000
2551.403002	2789.800000
2552.860116	2771.400000
2554.315358	2831.000000
2555.770340	2827.000000
2557.223452	2875.800000
2558.677913	2839.000000
2560.130505	2841.800000
2561.582837	2866.000000
2563.033301	2848.200000
2564.486722	2890.800000
2565.935060	2811.000000
2567.386353	2882.400000
2568.835780	2906.800000
2570.281736	2894.000000
2571.730646	2884.800000
2573.176085	2938.000000
2574.622873	2947.800000
2576.067797	2875.800000
2577.512464	2968.000000
2578.958478	2941.000000
2580.401025	2904.200000
2581.844920	2933.400000
2583.285350	2994.800000
2584.727128	2971.200000
2586.167046	2945.000000
2587.608311	3026.800000
2589.046114	3067.400000
2590.486867	3027.200000
2591.922558	3040.600000
2593.361197	3067.000000
2594.797980	2998.600000
2596.232907	3039.000000
2597.670781	3044.400000
2599.103598	3081.800000
2600.537762	3044.200000
2601.970071	3033.800000
2603.403728	3096.600000
2604.835530	3096.400000
2606.267080	3066.800000
2607.698376	3071.000000
2609.127821	3116.600000
2610.557013	3083.600000
2611.984354	3091.400000
2613.413042	3123.000000
2614.841477	3083.600000
2616.266466	3145.000000
2617.692800	3108.200000
2619.117287	3091.600000
2620.543118	3146.400000
2621.965507	3145.000000
2623.389240	3095.200000
2624.811128	3125.600000
2626.232765	3090.800000
2627.652558	3126.400000
2629.073696	3162.400000
2630.494584	3190.400000
2631.912033	3132.600000
2633.332422	3178.200000
2634.749374	3102.600000
2636.166078	3242.200000
2637.582533	3156.800000
2638.998740	3170.800000
2640.414699	3070.000000
2641.828817	3227.600000
2643.242687	3171.000000
2644.654718	3185.600000
2646.068094	3167.400000
2647.478040	3222.000000
2648.890922	3184.600000
2650.300375	3230.400000
2651.709582	3208.400000
2653.116953	3281.600000
2654.527258	3185.000000
2655.935727	3171.600000
2657.342362	3262.800000
2658.748750	3200.000000
2660.153306	3251.400000
2661.559205	3282.400000
2662.963270	3253.200000
2664.367092	3304.200000
2665.770669	3261.600000
2667.172415	3326.400000
2668.575504	3344.000000
2669.975175	3283.800000
2671.376190	3337.600000
2672.773789	3276.800000
2674.174317	3254.800000
2675.571431	3244.800000
2676.969888	3253.200000
2678.366517	3281.800000
2679.762905	3255.200000
2681.159050	3289.000000
2682.553369	3263.000000
2683.949031	3269.800000
2685.341284	3223.200000
2686.734879	3222.000000
2688.126650	3266.200000
2689.519764	3267.400000
2690.911053	3287.600000
2692.300521	3280.800000
2693.689748	3288.600000
2695.078735	3225.200000
2696.469065	3284.200000
2697.854411	3308.000000
2699.242680	3268.400000
2700.629129	3270.600000
2702.015339	3246.600000
2703.401310	3287.200000
2704.783883	3288.800000
2706.167798	3278.800000
2707.551474	3263.800000
2708.934913	3354.600000
2710.314956	3342.200000
2711.696341	3389.400000
2713.075910	3294.200000
2714.456821	3314.200000
2715.835917	3371.600000
2717.213199	3363.800000
2718.591822	3372.600000
2719.968631	3371.400000
2721.345205	3448.200000
2722.721543	3408.600000
2724.096069	3459.400000
2725.471936	3433.200000
2726.844416	3482.000000
2728.219813	3491.800000
2729.590249	3456.200000
2730.962025	3455.600000
2732.333568	3436.000000
2733.703302	3462.400000
2735.074376	3450.800000
2736.443643	3467.400000
2737.812676	3418.000000
2739.179903	3483.800000
2740.546896	3491.600000
2741.913657	3505.200000
2743.280185	3507.800000
2744.644909	3554.800000
2746.009400	3570.000000
2747.373659	3545.200000
2748.737687	3569.800000
2750.101482	3618.200000
2751.461905	3627.400000
2752.825237	3610.400000
2754.183627	3589.800000
2755.544927	3662.600000
2756.902857	3603.200000
2758.263695	3583.600000
2759.622733	3623.200000
2760.978403	3627.200000
2762.336982	3660.000000
2763.692193	3620.200000
2765.047175	3566.600000
2766.400360	3627.400000
2767.756452	3645.400000
2769.109180	3608.200000
2770.461679	3673.600000
2771.813951	3737.200000
2773.167560	3638.600000
2774.517808	3659.200000
2775.866263	3738.200000
2777.217622	3702.200000
2778.565622	3736.400000
2779.914961	3689.000000
2781.262507	3696.400000
2782.609827	3713.800000
2783.956919	3656.200000
2785.302221	3704.800000
2786.647297	3743.400000
2787.992147	3761.800000
2789.336771	3776.000000
2790.678043	3737.200000
2792.020652	3761.400000
2793.363037	3757.800000
2794.705196	3732.400000
2796.044006	3841.400000
2797.385716	3751.400000
2798.724077	3833.600000
2800.063776	3841.600000
2801.401689	3821.000000
2802.737818	3805.000000
2804.073724	3902.800000
2805.410967	3845.200000
2806.746425	3870.800000
2808.081661	3959.400000
2809.415115	3862.800000
2810.749905	3912.000000
2812.081354	3929.400000
2813.415699	3910.600000
2814.745146	3890.000000
2816.075930	3975.800000
2817.406492	3976.800000
2818.735275	3981.000000
2820.065395	4016.600000
2821.393736	3965.000000
2822.721855	3965.800000
2824.048198	3969.400000
2825.375876	4029.600000
2826.700222	4018.200000
2828.025904	4007.200000
2829.349810	3967.200000
2830.673496	3989.200000
2831.998518	3998.800000
2833.320211	4004.000000
2834.641685	4030.400000
2835.962939	4043.400000
2837.283975	4037.200000
2838.603239	4049.600000
2839.923838	4086.200000
2841.242665	4008.400000
2842.561274	4022.400000
2843.878113	3981.600000
2845.194734	4024.600000
2846.511138	3991.800000
2847.825772	4078.800000
2849.141741	4061.600000
2850.454391	4086.800000
2851.768375	3985.200000
2853.082143	4105.800000
2854.395694	4105.400000
2855.707479	4113.000000
2857.017497	4134.200000
2858.328850	4094.600000
2859.636888	4158.200000
2860.946260	4072.200000
2862.255417	4151.200000
2863.564359	4166.200000
2864.871538	4230.200000
2866.176953	4157.800000
2867.483703	4172.800000
2868.788691	4165.000000
2870.093464	4256.000000
2871.396477	4207.000000
2872.702370	4249.800000
2874.003409	4242.800000
2875.305781	4249.000000
2876.606395	4240.600000
2877.908341	4277.000000
2879.210075	4228.400000
2880.508505	4255.600000
2881.808268	4249.600000
2883.106274	4299.000000
2884.404068	4213.600000
2885.700105	4277.200000
2886.997476	4239.800000
2888.293092	4222.000000
2889.588496	4268.600000
2890.883689	4311.800000
2892.175585	4251.000000
2893.470356	4307.200000
2894.761832	4350.400000
2896.054640	4273.400000
2897.347238	4288.600000
2898.636541	4311.800000
2899.927178	4215.600000
2901.216063	4300.400000
2902.506280	4294.600000
2903.793206	4315.200000
2905.081464	4348.200000
2906.367973	4308.600000
2907.654273	4366.400000
2908.940365	4413.400000
2910.224709	4384.400000
2911.511925	4355.800000
2912.794314	4295.000000
2914.078035	4294.400000
2915.360009	4359.000000
2916.641777	4303.600000
2917.921799	4421.600000
2919.204691	4366.400000
2920.485838	4306.800000
2921.763703	4373.800000
2923.044437	4358.000000
2924.321890	4321.200000
2925.599138	4394.800000
2926.874643	4412.200000
2928.153016	4405.600000
2929.426575	4402.200000
2930.703001	4358.600000
2931.977685	4441.600000
2933.250630	4362.800000
2934.524906	4356.800000
2935.797441	4431.800000
2937.069773	4409.200000
2938.338832	4420.400000
2939.610756	4497.400000
2940.880942	4437.400000
2942.150924	4388.400000
2943.420703	4466.200000
2944.688746	4445.400000
2945.955052	4412.200000
2947.221156	4451.000000
2948.488591	4437.400000
2949.754290	4437.800000
2951.019788	4448.200000
2952.285083	4442.800000
2953.547113	4456.800000
2954.810473	4441.800000
2956.073632	4440.600000
2957.335058	4519.400000
2958.597815	4457.800000
2959.858839	4504.000000
2961.118133	4502.400000
2962.377226	4497.400000
2963.636120	4504.800000
2964.894812	4595.200000
2966.153305	4522.200000
2967.410069	4536.400000
2968.666634	4499.600000
2969.921470	4534.400000
2971.177636	4503.800000
2972.430547	4550.800000
2973.684786	4561.200000
2974.938827	4596.800000
2976.191142	4507.400000
2977.443259	4515.600000
2978.693651	4573.400000
2979.946898	4590.200000
2981.195368	4531.600000
2982.446693	4661.200000
2983.694768	4638.800000
2984.942646	4626.600000
2986.190328	4599.000000
2987.437812	4532.200000
2988.683575	4662.800000
2989.929141	4568.000000
2991.176036	4629.800000
2992.419686	4605.200000
2993.664663	4639.800000
2994.906398	4732.400000
2996.150984	4703.000000
2997.393851	4653.800000
2998.633477	4706.400000
2999.875953	4739.600000
3001.115189	4719.800000
3002.355753	4655.800000
3003.594600	4819.600000
3004.833253	4708.400000
3006.070190	4786.400000
3007.308455	4762.000000
3008.545004	4783.800000
3009.781360	4783.800000
3011.017522	4775.600000
3012.251970	4815.400000
3013.486225	4795.200000
3014.720287	4841.000000
3015.952637	4794.400000
3017.183275	4771.800000
3018.416759	4829.800000
3019.648532	4792.400000
3020.878593	4787.200000
3022.108463	4845.400000
3023.336623	4771.600000
3024.566110	4906.800000
3025.793887	4814.200000
3027.021473	4861.800000
3028.250385	4815.000000
3029.474555	4851.000000
3030.701568	4859.000000
3031.925358	4877.000000
3033.150473	4862.000000
3034.373883	4867.200000
3035.597102	4860.000000
3036.818616	4893.000000
3038.042971	4845.000000
3039.262591	4912.800000
3040.483537	4946.000000
3041.704293	4861.400000
3042.923347	4949.600000
3044.143725	4932.600000
3045.360887	4857.000000
3046.579374	4959.600000
3047.796160	4925.200000
3049.012757	4990.000000
3050.229167	4928.200000
3051.442363	4978.800000
3052.658397	4999.800000
3053.871219	4943.000000
3055.086878	5033.200000
3056.297814	4929.200000
3057.510076	5023.400000
3058.722150	4923.200000
3059.934038	4968.000000
3061.144229	4927.400000
3062.354233	5002.800000
3063.564051	4926.200000
3064.772173	4970.400000
3065.980110	4862.000000
3067.186351	4994.000000
3068.393917	4971.200000
3069.599788	5013.700000
3070.805474	5056.200000
3072.010976	5064.200000
3073.214784	4924.400000
3074.419916	5010.400000
3075.623355	5044.200000
3076.825102	4997.600000
3078.026666	5095.200000
3079.228046	5031.200000
3080.429242	4959.600000
3081.628748	4998.200000
3082.828071	5012.600000
3084.028717	5021.000000
3085.227673	5086.800000
3086.423434	5022.200000
3087.622025	5116.400000
3088.817422	5039.800000
3090.014143	5035.400000
3091.207671	5010.800000
3092.404027	5093.200000
3093.598696	5085.200000
3094.790175	5018.800000
3095.985986	5070.800000
3097.177102	5079.400000
3098.369542	4984.800000
3099.558793	5116.600000
3100.750871	5025.200000
3101.941265	5014.800000
3103.128473	5057.000000
3104.317003	5084.000000
3105.506856	5152.000000
3106.693524	5024.000000
3107.880013	5116.400000
3109.066323	5083.800000
3110.253954	5073.600000
3111.438403	5061.000000
3112.621173	5143.400000
3113.806765	5150.600000
3114.990678	5001.600000
3116.172911	5070.400000
3117.354967	5122.600000
3118.536844	5147.000000
3119.718543	5116.000000
3120.898565	5112.400000
3122.076910	5139.000000
3123.258075	5214.200000
3124.436065	5165.800000
3125.613878	5123.000000
3126.791514	5178.800000
3127.967475	5190.800000
3129.143260	5198.200000
3130.320365	5168.800000
3131.495797	5120.600000
3132.669555	5041.400000
3133.841640	5167.400000
3135.015046	5154.200000
3136.188277	5208.600000
3137.359836	5070.600000
3138.532715	5213.800000
3139.702427	5201.800000
3140.873460	5201.600000
3142.042822	5243.400000
3143.210515	5175.800000
3144.381023	5194.600000
3145.546872	5235.800000
3146.717031	5182.600000
3147.882532	5224.200000
3149.047860	5169.000000
3150.213014	5230.800000
3151.377995	5215.200000
3152.544295	5260.400000
3153.705942	5154.200000
3154.868910	5197.000000
3156.031705	5138.000000
3157.194326	5164.800000
3158.355283	5061.200000
3159.516068	5086.400000
3160.676680	5039.200000
3161.835628	5081.400000
3162.994405	5060.000000
3164.153009	5075.800000
3165.311442	5059.200000
3166.469703	5104.400000
3167.626303	5117.600000
3168.781241	5148.200000
3169.937498	5169.400000
3171.092094	5109.400000
3172.246520	5077.200000
3173.399285	5163.800000
3174.551881	5154.400000
3175.704307	5193.600000
3176.856562	5195.400000
3178.008648	5112.400000
3179.157587	5234.200000
3180.309333	5236.000000
3181.459422	5235.200000
3182.607853	5264.800000
3183.756116	5242.200000
3184.904210	5215.400000
3186.052135	5236.400000
3187.198404	5201.600000
3188.344505	5331.600000
3189.488952	5273.600000
3190.633230	5289.000000
3191.777341	5268.200000
3192.922770	5334.200000
3194.065060	5398.800000
3195.207182	5321.800000
3196.349138	5343.600000
3197.490926	5370.200000
3198.632547	5290.200000
3199.771033	5363.000000
3200.910836	5385.800000
3202.051956	5308.800000
3203.189943	5343.000000
3204.326279	5345.000000
3205.462451	5388.800000
3206.599939	5401.600000
3207.735779	5338.800000
3208.872936	5359.800000
3210.005480	5402.800000
3211.142305	5411.600000
3212.274520	5374.800000
3213.408051	5467.400000
3214.541417	5359.000000
3215.671657	5436.200000
3216.804694	5390.000000
3217.934605	5291.800000
3219.065832	5322.000000
3220.193934	5296.400000
3221.324834	5390.800000
3222.454089	5315.400000
3223.581701	5313.400000
3224.706190	5311.000000
3225.834955	5387.400000
3226.960598	5285.000000
3228.086078	5373.800000
3229.209917	5432.400000
3230.336551	5421.800000
3231.458587	5423.800000
3232.581939	5422.400000
3233.705128	5435.400000
3234.828156	5402.600000
3235.949544	5406.800000
3237.070771	5443.200000
3238.190359	5466.200000
3239.309786	5469.600000
3240.427576	5560.200000
3241.548157	5536.400000
3242.665625	5458.400000
3243.782932	5514.000000
3244.900079	5577.600000
3246.015589	5604.800000
3247.132415	5613.000000
3248.246130	5649.600000
3249.362636	5724.600000
3250.477506	5591.000000
3251.589268	5662.800000
3252.700871	5721.000000
3253.813789	5597.000000
3254.926547	5651.000000
3256.036199	5674.400000
3257.147166	5699.000000
3258.257974	5652.000000
3259.367150	5757.400000
3260.474695	5685.600000
3261.583555	5704.800000
3262.692256	5731.200000
3263.797855	5669.000000
3264.904769	5741.800000
3266.010053	5764.400000
3267.116651	5791.200000
3268.220149	5741.200000
3269.324961	5758.400000
3270.429616	5762.200000
3271.531173	5783.800000
3272.632573	5814.200000
3273.735287	5797.400000
3274.837845	5727.800000
3275.937306	5780.800000
3277.039551	5758.200000
3278.138700	5778.800000
3279.236224	5829.200000
3280.333594	5729.800000
3281.433745	5761.800000
3282.530804	5805.800000
3283.627707	5778.000000
3284.724455	5803.000000
3285.816644	5795.000000
3286.913083	5774.200000
3288.007899	5732.800000
3289.102560	5767.000000
3290.195600	5729.800000
3291.288486	5801.000000
3292.379751	5757.200000
3293.472329	5793.600000
3294.563287	5766.000000
3295.652625	5803.800000
3296.741810	5731.200000
3297.832307	5778.800000
3298.919721	5785.000000
3300.006981	5793.400000
3301.095554	5813.000000
3302.183974	5788.200000
3303.267848	5777.800000
3304.355963	5825.200000
3305.440996	5820.400000
3306.524414	5775.400000
3307.609144	5750.000000
3308.692258	5800.000000
3309.776684	5859.400000
3310.858033	5788.200000
3311.940693	5979.600000
3313.021738	5847.200000
3314.102633	5838.600000
3315.181915	5883.000000
3316.261046	5895.600000
3317.341489	5801.400000
3318.418857	5884.400000
3319.497537	5957.800000
3320.574605	5920.600000
3321.651523	5916.000000
3322.726831	5941.000000
3323.801989	5933.800000
3324.878458	5887.200000
3325.951857	5920.000000
3327.025106	5905.400000
3328.099667	5923.400000
3329.172619	5913.600000
3330.243962	5938.800000
3331.316616	5915.000000
3332.386203	5780.400000
3333.457101	5893.000000
3334.526393	5875.800000
3335.596994	5911.400000
3336.665989	5845.400000
3337.733379	5810.200000
3338.799163	5865.800000
3339.869173	5797.000000
3340.936120	5808.800000
3342.000005	5798.400000
3343.066657	5855.000000
3344.131706	5776.200000
3345.195151	5758.400000
3346.258450	5824.200000
3347.321602	5852.000000
3348.384608	5855.000000
3349.447468	5785.800000
3350.508725	5863.000000
3351.566926	5888.200000
3352.629348	5841.400000
3353.688714	5863.400000
3354.747934	5872.200000
3355.808463	5797.200000
3356.864484	5871.600000
3357.923268	5826.400000
3358.977545	5866.400000
3360.034586	5889.200000
3361.090028	5912.200000
3362.146780	5875.200000
3363.201933	5915.400000
3364.255489	5972.200000
3365.307448	6022.800000
3366.362170	5978.000000
3367.413842	5890.400000
3368.465370	5914.800000
3369.518208	5937.800000
3370.567998	5970.600000
3371.619097	5894.400000
3372.667149	5966.800000
3373.717962	5963.600000
3374.765729	5950.000000
3375.813354	5926.200000
3376.860837	5984.800000
3377.906727	6029.400000
3378.953925	5984.600000
3379.998080	5964.400000
3381.044995	5995.000000
3382.090317	5927.000000
3383.132598	6026.800000
3384.174738	5929.600000
3385.218187	5944.800000
3386.261494	5914.800000
3387.303211	6028.400000
3388.344788	5975.800000
3389.386223	5984.600000
3390.426070	5909.600000
3391.464328	6026.400000
3392.503894	5946.000000
3393.543320	5965.000000
3394.581158	5923.000000
3395.617409	5996.200000
3396.653520	5961.600000
3397.690939	6016.000000
3398.725325	5968.000000
3399.761019	5995.600000
3400.796573	5950.800000
3401.829095	6072.800000
3402.864371	6005.400000
3403.896617	5950.400000
3404.928723	5910.600000
3405.959247	5971.600000
3406.991077	5974.400000
3408.022769	5955.800000
3409.051433	6013.400000
3410.079960	5948.400000
3411.109793	5937.600000
3412.139489	5967.000000
3413.166159	5989.400000
3414.194135	5964.200000
3415.219087	5965.200000
3416.246790	6038.200000
3417.271468	6038.800000
3418.297453	6045.400000
3419.321859	5952.400000
3420.346128	5958.200000
3421.368818	6063.600000
3422.391372	5972.000000
3423.415232	6054.600000
3424.436072	6022.800000
3425.456776	5963.200000
3426.478786	5989.200000
3427.497778	5879.200000
3428.516635	5909.800000
3429.536798	5907.800000
3430.553944	5966.800000
