-165.741099	5.300000
-163.071499	2.575000
-160.404834	3.540000
-157.738921	3.740000
-155.075940	2.140000
-152.411530	2.030000
-149.750050	3.560000
-147.087140	2.090000
-144.429338	3.070000
-141.770105	-0.620000
-139.111621	0.035000
-136.456062	-2.795000
-133.799074	1.660000
-131.147183	0.505000
-128.493863	3.080000
-125.843463	-0.015000
-123.191633	2.940000
-120.544894	-0.615000
-117.896725	4.500000
-115.249300	4.255000
-112.604788	3.385000
-109.958848	1.275000
-107.317989	2.995000
-104.675701	0.500000
-102.036321	4.890000
-99.395513	3.510000
-96.755445	4.130000
-94.120449	4.950000
-91.484024	4.105000
-88.850503	0.280000
-86.215553	5.415000
-83.585668	2.290000
-80.952191	3.390000
-78.323776	3.075000
-75.696094	5.055000
-73.066985	0.420000
-70.442932	8.360000
-67.815290	11.985000
-65.192701	12.130000
-62.570843	16.825000
-59.949717	21.930000
-57.329320	54.305000
-54.711811	174.685000
-52.092874	727.335000
-49.476823	2652.905000
-46.861500	3499.805000
-44.246904	1941.980000
-41.635191	199.225000
-39.022049	30.065000
-36.413941	17.810000
-33.802251	8.990000
-31.195592	8.930000
-28.587505	8.720000
-25.980142	7.805000
-23.377804	6.535000
-20.771888	-0.810000
-18.170994	7.710000
-15.568671	-0.220000
-12.971367	3.630000
-10.370487	-1.910000
-7.774621	3.805000
-5.177328	2.975000
-2.580754	5.410000
0.010811	3.305000
2.603804	5.175000
5.193936	1.735000
7.785496	1.565000
10.374196	0.250000
12.964323	7.910000
15.549452	1.270000
18.136008	3.785000
20.721849	-0.360000
23.304837	1.330000
25.889252	2.235000
28.466537	2.955000
31.047389	4.795000
33.625392	1.570000
36.202685	0.440000
38.781404	-0.400000
41.355142	0.205000
43.930306	2.215000
46.502627	2.450000
49.074240	2.090000
51.643014	1.895000
54.213214	1.055000
56.780575	1.830000
59.349363	5.475000
61.915313	3.715000
64.478429	3.185000
67.045101	2.845000
69.602552	5.390000
72.165688	7.925000
74.723865	9.740000
77.285595	12.650000
79.842370	16.665000
82.400570	25.650000
84.953818	33.140000
87.506367	48.585000
90.062467	69.330000
92.613620	85.085000
95.164074	107.110000
97.713832	117.265000
100.260770	131.730000
102.807012	135.480000
105.354681	139.440000
107.901653	140.960000
110.443689	139.170000
112.985032	135.360000
115.525683	135.125000
118.067758	130.660000
120.607023	134.160000
123.143478	133.300000
125.679243	132.600000
128.216433	131.390000
130.752931	133.540000
133.286624	129.480000
135.817514	129.025000
138.347715	128.840000
140.879341	127.745000
143.408166	127.600000
145.934192	131.515000
148.459533	125.015000
150.986298	125.170000
153.510267	128.085000
156.033550	128.550000
158.556149	129.460000
161.075955	131.710000
163.595078	131.020000
166.113518	133.115000
168.633382	135.080000
171.146245	135.250000
173.662639	142.700000
176.178351	144.445000
178.689174	148.095000
181.201421	148.115000
183.710885	153.790000
186.219671	153.605000
188.727779	150.560000
191.237310	151.270000
193.741962	150.300000
196.245937	155.340000
198.751336	155.315000
201.251860	155.720000
203.755907	153.130000
206.252984	156.105000
208.753583	159.730000
211.251411	158.220000
213.748566	154.990000
216.245048	162.790000
218.736668	158.630000
221.231806	161.410000
223.724179	160.860000
226.215881	162.835000
228.704820	168.765000
231.195182	167.230000
233.682783	170.715000
236.167624	172.870000
238.655979	174.315000
241.137395	178.685000
243.622325	183.945000
246.102410	189.685000
248.586007	191.055000
251.064761	201.925000
253.544939	209.695000
256.022364	213.605000
258.499126	206.380000
260.975225	199.865000
263.448575	183.470000
265.921263	182.205000
268.393290	185.345000
270.864656	190.735000
273.333278	194.040000
275.801240	193.505000
278.270625	179.370000
280.735187	176.930000
283.203252	169.445000
285.666498	170.625000
288.129087	169.240000
290.591018	167.540000
293.052293	160.985000
295.510834	160.315000
297.970797	155.695000
300.428028	155.395000
302.884603	156.130000
305.340525	161.605000
307.793718	157.270000
310.248332	152.895000
312.698145	154.265000
315.151455	155.745000
317.599965	152.085000
320.047825	156.560000
322.497106	148.700000
324.941594	148.620000
327.387504	145.655000
329.832765	144.425000
332.275307	143.485000
334.717201	143.085000
337.158447	141.220000
339.596978	141.010000
342.036931	138.360000
344.474170	144.780000
346.908697	141.740000
349.346712	142.150000
351.779950	137.975000
354.214610	138.275000
356.644496	135.865000
359.077868	144.325000
361.506470	143.015000
363.934431	141.190000
366.363812	138.390000
368.788428	140.280000
371.214466	141.460000
373.639863	142.840000
376.064620	141.155000
378.484619	141.870000
380.906039	142.795000
383.324762	146.370000
385.744906	142.235000
388.162355	144.145000
390.581224	138.105000
392.997400	138.940000
395.408829	131.795000
397.823734	131.965000
400.235949	127.730000
402.647530	129.695000
405.058477	124.335000
407.466738	119.650000
409.874366	123.765000
412.281363	116.975000
414.687727	116.160000
417.091409	122.510000
419.494461	124.375000
421.896883	125.600000
424.298676	130.340000
426.697790	130.565000
429.098324	128.535000
431.498229	136.195000
433.893411	142.125000
436.292060	143.770000
438.685989	150.865000
441.079292	160.285000
443.471969	168.925000
445.864021	179.330000
448.257492	194.540000
450.646250	213.805000
453.032342	248.140000
455.419854	297.595000
457.806742	377.560000
460.190967	529.605000
462.576611	785.240000
464.959592	1334.625000
467.339913	2461.740000
469.721653	4433.500000
472.100734	6183.900000
474.481234	5843.895000
476.859076	3820.440000
479.234263	2009.045000
481.608832	1153.785000
483.984820	780.970000
486.358154	583.130000
488.732907	466.550000
491.102973	389.230000
493.472424	332.685000
495.843294	297.325000
498.209482	262.550000
500.577089	235.355000
502.942050	213.445000
505.306398	196.690000
507.670134	184.130000
510.035287	175.835000
512.395767	167.060000
514.757666	159.835000
517.116925	155.980000
519.473545	151.295000
521.833610	143.125000
524.186985	135.725000
526.543804	132.870000
528.897987	124.840000
531.251563	126.880000
533.604530	118.070000
535.954866	119.365000
538.306618	118.455000
540.651694	118.230000
543.002234	115.920000
545.346101	115.110000
547.695428	110.675000
550.040108	109.405000
552.382163	112.280000
554.725634	113.795000
557.066483	108.790000
559.406730	114.990000
561.744356	115.380000
564.085417	117.225000
566.421841	117.345000
568.759681	114.990000
571.094903	115.675000
573.427510	116.605000
575.761533	115.235000
578.092943	109.840000
580.423754	109.425000
582.753967	100.690000
585.083582	100.240000
587.408575	105.760000
589.739009	103.585000
592.064821	100.175000
594.388027	98.785000
596.712648	96.910000
599.034665	99.375000
601.356087	96.590000
603.674906	100.490000
605.995141	98.035000
608.314783	98.815000
610.631824	99.685000
612.948274	94.025000
615.262125	99.270000
617.577391	99.305000
619.890061	105.305000
622.204146	100.660000
624.513631	100.455000
626.824532	101.105000
629.132840	100.140000
631.440560	96.380000
633.749695	93.180000
636.054237	92.130000
638.358193	92.170000
640.661562	85.405000
642.966346	88.280000
645.266544	83.305000
647.568156	86.750000
649.869184	86.150000
652.165629	84.090000
654.463490	83.140000
656.760767	80.215000
659.057461	76.925000
661.349579	83.950000
663.645108	76.270000
665.936064	82.290000
668.228434	79.630000
670.518228	80.885000
672.807443	82.820000
675.096077	82.335000
677.382140	79.810000
679.669616	79.825000
681.954522	79.345000
684.238849	81.710000
686.520608	75.810000
688.803782	79.125000
691.086377	80.395000
693.364418	79.955000
695.643872	78.845000
697.922751	78.760000
700.201054	79.280000
702.474808	77.940000
704.749976	80.400000
707.024570	78.560000
709.296605	81.785000
711.570052	81.735000
713.840942	80.995000
716.109276	81.700000
718.379023	78.290000
720.646216	81.330000
722.912838	83.780000
725.178891	86.720000
727.442391	86.145000
729.707305	85.260000
731.971649	86.130000
734.231464	84.415000
736.492692	86.675000
738.753352	86.595000
741.011465	85.815000
743.267034	81.660000
745.525994	87.490000
747.778455	86.480000
750.036283	83.635000
752.289591	87.600000
754.540360	87.360000
756.792541	88.865000
759.042184	88.965000
761.293238	93.010000
763.539781	87.565000
765.787737	87.680000
768.033157	90.245000
770.279989	91.730000
772.526260	89.790000
774.768027	88.245000
777.013176	86.105000
779.251853	89.565000
781.493913	87.000000
783.731474	90.195000
785.970446	86.255000
788.206892	88.070000
790.444750	86.770000
792.680082	88.920000
794.912890	83.585000
797.147110	86.250000
799.378808	84.835000
801.609951	84.145000
803.840539	84.210000
806.070573	84.315000
808.300052	83.675000
810.525050	85.335000
812.753423	84.360000
814.977317	86.690000
817.202621	86.625000
819.423450	88.360000
821.647651	86.980000
823.867379	87.925000
826.088518	87.685000
828.309106	90.570000
830.527184	89.625000
832.746673	91.715000
834.961695	90.650000
837.176169	90.745000
839.390096	90.065000
841.603475	83.320000
843.816307	86.285000
846.028593	89.415000
848.238377	88.455000
850.447615	90.555000
852.656307	92.150000
854.862501	88.845000
857.070104	89.150000
859.275210	89.640000
861.479772	87.375000
863.681838	89.040000
865.885314	91.150000
868.086296	91.785000
870.286737	94.420000
872.488586	95.275000
874.684043	101.315000
876.882860	107.985000
879.077239	121.000000
881.274974	135.695000
883.468274	157.280000
885.662983	177.275000
887.855206	191.590000
890.046891	218.035000
892.238038	233.930000
894.426702	244.625000
896.614829	248.705000
898.800476	240.535000
900.989475	237.995000
903.174051	239.345000
905.358092	237.135000
907.545483	234.435000
909.724571	243.920000
911.907008	241.465000
914.088912	244.410000
916.268342	247.265000
918.445299	246.000000
920.623664	253.910000
922.803435	251.730000
924.976858	255.310000
927.153627	254.895000
929.325990	256.575000
931.499759	258.505000
933.669125	256.590000
935.841836	255.325000
938.012080	244.950000
940.181796	221.425000
942.350983	200.870000
944.515773	182.940000
946.683904	168.670000
948.847641	153.220000
951.012784	145.335000
953.175469	140.530000
955.337627	136.395000
957.497329	129.115000
959.656507	126.965000
961.817091	126.115000
963.975220	119.570000
966.132825	118.545000
968.289907	115.465000
970.446466	111.525000
972.598645	106.605000
974.752230	104.765000
976.905294	102.220000
979.055910	99.585000
981.207931	100.340000
983.355579	95.010000
985.506559	91.850000
987.653168	91.405000
989.799259	89.210000
991.944830	84.050000
994.091807	87.060000
996.232496	85.200000
998.376513	83.690000
1000.518090	83.190000
1002.659151	81.570000
1004.801616	81.940000
1006.937802	82.470000
1009.077314	81.870000
1011.212470	83.560000
1013.350951	83.590000
1015.485079	81.575000
1017.618692	81.305000
1019.753711	84.165000
1021.884380	80.040000
1024.016454	80.690000
1026.146099	79.410000
1028.275232	79.990000
1030.403853	79.090000
1032.531963	76.570000
1034.657647	75.485000
1036.782821	76.165000
1038.909399	78.400000
1041.031640	72.760000
1043.155284	74.870000
1045.274595	73.575000
1047.399134	73.770000
1049.517428	77.155000
1051.637127	74.500000
1053.754407	74.395000
1055.871181	71.450000
1057.987448	73.465000
1060.101300	71.350000
1062.216555	71.690000
1064.327488	70.495000
1066.441732	71.030000
1068.551656	72.655000
1070.662984	67.860000
1072.773807	71.785000
1074.880315	70.695000
1076.990131	72.810000
1079.095633	75.535000
1081.202538	71.855000
1083.303228	69.980000
1085.409130	66.070000
1087.510723	72.340000
1089.613719	68.555000
1091.716214	65.510000
1093.812503	69.250000
1095.913998	67.290000
1098.011191	65.405000
1100.107885	69.010000
1102.204082	66.735000
1104.299780	67.910000
1106.394981	63.335000
1108.487785	67.065000
1110.581991	62.400000
1112.670006	66.995000
1114.763219	64.875000
1116.850244	69.510000
1118.940569	68.025000
1121.026605	64.715000
1123.115939	68.160000
1125.199092	66.415000
1127.283648	65.420000
1129.369604	68.675000
1131.451279	69.835000
1133.534356	67.340000
1135.615047	63.605000
1137.695246	66.815000
1139.774954	65.120000
1141.854171	66.890000
1143.931006	65.035000
1146.005460	63.965000
1148.083206	63.295000
1150.156681	62.660000
1152.231557	65.225000
1154.302166	60.145000
1156.374177	67.130000
1158.443811	66.165000
1160.514846	63.070000
1162.585393	64.235000
1164.651679	64.240000
1166.719366	62.565000
1168.784681	63.490000
1170.851396	62.745000
1172.913855	63.225000
1174.979599	61.610000
1177.041090	59.390000
1179.103980	62.215000
1181.164503	63.860000
1183.224543	61.495000
1185.284099	56.510000
1187.341290	63.350000
1189.398000	61.040000
1191.452347	60.670000
1193.509974	63.935000
1195.565239	63.400000
1197.616263	59.610000
1199.668687	61.195000
1201.720631	60.520000
1203.770217	63.005000
1205.819324	59.095000
1207.867953	60.950000
1209.916103	56.875000
1211.963775	61.100000
1214.007216	62.255000
1216.053932	59.250000
1218.098296	56.380000
1220.142182	63.165000
1222.183718	56.845000
1224.222904	60.795000
1226.265362	58.240000
1228.303598	58.490000
1230.343233	58.055000
1232.382393	60.535000
1234.417335	58.375000
1236.453675	62.515000
1238.487670	63.595000
1240.523064	61.685000
1242.554244	57.290000
1244.586823	61.995000
1246.618929	62.630000
1248.648695	61.090000
1250.679859	57.880000
1252.706815	57.975000
1254.735169	62.550000
1256.759319	58.700000
1258.786733	60.095000
1260.809946	61.170000
1262.834555	59.430000
1264.856831	62.105000
1266.880504	57.985000
1268.901844	61.510000
1270.922716	58.045000
1272.943122	59.600000
1274.959333	59.530000
1276.976943	61.540000
1278.992224	56.505000
1281.010764	59.195000
1283.025114	58.880000
1285.037139	56.085000
1287.052421	56.705000
1289.063518	61.815000
1291.076012	57.735000
1293.084323	57.655000
1295.095890	57.465000
1297.101417	57.860000
1299.110200	53.800000
1301.114805	56.505000
1303.122664	59.070000
1305.130061	58.965000
1307.131427	58.400000
1309.134190	57.235000
1311.136492	58.295000
1313.138335	60.915000
1315.139718	55.730000
1317.138788	58.880000
1319.137399	57.430000
1321.135552	58.720000
1323.133247	56.835000
1325.126778	53.990000
1327.121706	55.410000
1329.116177	60.225000
1331.110191	54.420000
1333.101898	61.440000
1335.093149	53.430000
1337.082095	58.665000
1339.072436	54.650000
1341.062322	57.860000
1343.049905	52.105000
1345.037034	56.495000
1347.021861	59.510000
1349.008082	55.400000
1350.992004	58.505000
1352.975473	58.220000
1354.958490	56.820000
1356.939209	59.220000
1358.921322	55.345000
1360.901138	55.100000
1362.880504	56.405000
1364.855730	55.425000
1366.834196	56.385000
1368.810368	57.105000
1370.786090	57.580000
1372.761363	58.095000
1374.734345	55.610000
1376.706879	56.475000
1378.678966	55.615000
1380.650604	58.460000
1382.618114	57.200000
1384.590699	60.595000
1386.555477	56.610000
1388.525328	59.790000
1390.491054	57.310000
1392.458174	58.150000
1394.423009	58.440000
1396.383726	58.865000
1398.349510	58.430000
1400.309339	60.460000
1402.270561	59.355000
1404.233176	56.345000
1406.191676	56.545000
1408.149734	61.065000
1410.107349	59.205000
1412.064523	57.535000
1414.019421	57.205000
1415.975711	58.275000
1417.929727	61.155000
1419.883303	59.180000
1421.834606	56.330000
1423.787301	57.885000
1425.737725	57.165000
1427.687710	57.615000
1429.637255	57.050000
1431.584532	54.755000
1433.529542	58.015000
1435.475943	60.465000
1437.421908	59.560000
1439.367434	55.160000
1441.310696	56.500000
1443.253521	59.165000
1445.194083	57.370000
1447.136036	60.460000
1449.075728	56.595000
1451.014984	56.365000
1452.953805	53.600000
1454.890367	56.325000
1456.828320	55.420000
1458.764015	59.145000
1460.699276	57.010000
1462.632280	58.520000
1464.564852	56.225000
1466.496992	55.795000
1468.428700	51.625000
1470.358154	52.230000
1472.288999	53.595000
1474.219413	57.805000
1476.145753	53.130000
1478.073485	55.530000
1479.998966	56.435000
1481.924018	57.960000
1483.848641	55.895000
1485.772835	57.840000
1487.694782	53.620000
1489.618118	59.445000
1491.539209	54.490000
1493.458055	56.720000
1495.378291	57.240000
1497.296283	55.055000
1499.213849	53.185000
1501.129173	59.260000
1503.045887	57.205000
1504.958546	55.345000
1506.874409	58.170000
1508.788032	60.920000
1510.699418	60.265000
1512.612192	54.600000
1514.520917	54.110000
1516.431032	56.925000
1518.340723	55.760000
1520.249990	54.900000
1522.157024	54.460000
1524.061825	59.495000
1525.968015	52.225000
1527.871973	60.790000
1529.775511	49.430000
1531.678627	53.655000
1533.579515	54.190000
1535.481790	57.865000
1537.381838	53.855000
1539.283274	57.040000
1541.180675	54.395000
1543.077658	56.095000
1544.974223	57.940000
1546.872176	56.895000
1548.764294	56.270000
1550.659605	56.170000
1552.554499	56.810000
1554.447171	60.775000
1556.339427	56.160000
1558.229463	60.555000
1560.119083	58.730000
1562.008288	59.235000
1563.897077	57.135000
1565.783650	54.980000
1567.671609	56.805000
1569.555552	53.335000
1571.440883	52.385000
1573.325799	57.155000
1575.208503	56.760000
1577.092592	54.750000
1578.972671	54.880000
1580.854136	52.855000
1582.733391	54.520000
1584.614032	55.665000
1586.488869	56.430000
1588.368688	53.585000
1590.244501	54.045000
1592.119904	57.265000
1593.996694	55.015000
1595.867686	58.480000
1597.741860	55.360000
1599.612036	59.290000
1601.485392	57.955000
1603.356545	58.350000
1605.225496	51.650000
1607.095833	55.905000
1608.962176	51.740000
1610.829905	51.585000
1612.695436	53.235000
1614.562351	51.945000
1616.425278	50.325000
1618.289590	51.820000
1620.151706	52.165000
1622.013418	54.710000
1623.876514	56.190000
1625.737416	54.770000
1627.596124	55.305000
1629.454429	50.980000
1631.314119	53.030000
1633.168042	52.740000
1635.025137	52.690000
1636.881830	57.170000
1638.734547	54.515000
1640.590435	47.830000
1642.442348	51.795000
1644.293861	54.015000
1646.144973	54.740000
1647.995685	49.065000
1649.845996	53.780000
1651.694123	52.360000
1653.543633	53.860000
1655.387395	56.250000
1657.236107	54.820000
1659.079072	52.980000
1660.925203	50.250000
1662.767373	51.220000
1664.612707	54.840000
1666.452301	52.260000
1668.293279	53.135000
1670.135640	51.885000
1671.974045	54.110000
1673.813833	53.410000
1675.651446	54.370000
1677.488663	53.035000
1679.323707	55.145000
1681.160134	53.295000
1682.994389	52.085000
1684.828249	52.995000
1686.661716	53.060000
1688.491236	53.305000
1690.323915	54.935000
1692.152650	53.375000
1693.984543	55.285000
1695.812493	54.735000
1697.640051	51.740000
1699.467217	51.995000
1701.293992	51.550000
1703.120376	55.135000
1704.942823	53.660000
1706.768424	54.325000
1708.590091	51.635000
1710.413140	56.240000
1712.234028	50.610000
1714.054526	50.000000
1715.876406	53.685000
1717.692586	52.740000
1719.511918	49.575000
1721.327323	52.120000
1723.145878	50.110000
1724.960508	54.085000
1726.774752	50.825000
1728.588608	49.845000
1730.402078	52.670000
1732.213395	53.990000
1734.026093	53.740000
1735.838404	52.825000
1737.646798	50.815000
1739.456573	47.925000
1741.262432	50.255000
1743.071438	53.120000
1744.876530	50.625000
1746.683002	49.920000
1748.489091	51.210000
1750.291270	50.555000
1752.096592	52.595000
1753.898006	52.190000
1755.700800	50.765000
1757.499688	56.335000
1759.299957	49.435000
1761.099844	55.530000
1762.897590	53.970000
1764.694955	53.515000
1766.491939	52.745000
1768.288543	49.880000
1770.083008	55.615000
1771.878852	53.760000
1773.669042	47.985000
1775.464128	50.370000
1777.253561	53.125000
1779.046131	49.720000
1780.836566	54.180000
1782.624867	50.690000
1784.416303	51.370000
1786.202093	53.350000
1787.989263	48.110000
1789.774301	52.345000
1791.562473	49.925000
1793.346759	47.985000
1795.128916	51.980000
1796.912451	53.275000
1798.693858	49.265000
1800.476644	48.970000
1802.255550	48.555000
1804.035834	53.775000
1805.813992	51.245000
1807.593529	49.215000
1809.370941	51.800000
1811.146229	53.530000
1812.922896	49.925000
1814.697440	50.780000
1816.473361	50.955000
1818.243663	54.100000
1820.017091	51.030000
1821.788400	54.420000
1823.559339	50.030000
1825.331654	52.845000
1827.098357	47.940000
1828.868184	53.180000
1830.634148	45.755000
1832.403236	50.540000
1834.168462	51.765000
1835.933320	53.345000
1837.699554	49.850000
1839.461930	51.185000
1841.223939	54.350000
1842.985581	50.385000
1844.746855	49.195000
1846.507762	51.795000
1848.268303	49.545000
1850.026734	54.040000
1851.784800	49.860000
1853.540757	53.305000
1855.298092	49.655000
1857.055060	49.310000
1858.809923	52.930000
1860.562680	49.110000
1862.315074	50.260000
1864.068843	53.190000
1865.820509	48.740000
1867.570073	52.365000
1869.321013	53.230000
1871.071589	50.815000
1872.818327	50.805000
1874.566440	52.565000
1876.312454	49.900000
1878.059844	50.925000
1879.805135	49.175000
1881.548329	51.540000
1883.292899	52.550000
1885.035372	53.500000
1886.777485	47.770000
1888.519238	47.170000
1890.260632	49.385000
1891.999932	52.285000
1893.738873	49.205000
1895.477455	48.355000
1897.213945	51.865000
1898.950078	50.992500
1900.687585	50.120000
1902.421270	52.135000
1904.156330	50.020000
1905.889302	55.310000
1907.621917	48.950000
1909.354175	50.890000
1911.086077	55.410000
1912.815893	49.910000
1914.543625	49.935000
1916.272730	55.625000
1918.001481	47.420000
1919.728148	51.205000
1921.454461	49.205000
1923.182147	51.490000
1924.904297	50.380000
1926.629548	53.665000
1928.350993	51.105000
1930.075537	50.180000
1931.798002	52.105000
1933.516663	53.025000
1935.238423	51.370000
1936.956381	48.960000
1938.675713	48.845000
1940.391244	53.005000
1942.111597	54.550000
1943.828150	48.965000
1945.540908	50.865000
1947.256761	50.175000
1948.970541	49.120000
1950.683972	51.285000
1952.395332	50.265000
1954.108065	49.620000
1955.817006	54.580000
1957.529041	49.895000
1959.235566	49.520000
1960.945184	54.005000
1962.652734	46.925000
1964.359937	52.135000
1966.065074	48.775000
1967.769864	51.015000
1969.476026	49.680000
1971.178406	52.335000
1972.882158	49.310000
1974.583846	55.790000
1976.285190	51.910000
1977.986188	49.630000
1979.685126	46.990000
1981.385434	55.235000
1983.081968	50.710000
1984.779873	52.070000
1986.475720	49.755000
1988.174651	52.235000
1989.868097	51.210000
1991.562915	49.575000
1993.257389	49.955000
1994.948095	54.875000
1996.641885	51.400000
1998.331908	51.710000
2000.023302	47.060000
2001.712643	51.840000
2003.403354	48.920000
2005.090303	49.465000
2006.776911	49.515000
2008.464890	54.505000
2010.149109	49.775000
2011.834698	51.225000
2013.519948	50.885000
2015.203150	51.905000
2016.887721	48.890000
2018.566830	52.890000
2020.250724	47.580000
2021.929158	51.765000
2023.610668	44.710000
2025.288428	50.590000
2026.965850	48.710000
2028.644643	48.725000
2030.321392	51.640000
2031.996100	49.350000
2033.672177	46.955000
2035.346214	51.680000
2037.019915	48.395000
2038.693281	50.185000
2040.364609	49.610000
2042.035602	48.410000
2043.706261	53.355000
2045.376585	53.580000
2047.046576	49.020000
2048.714531	49.265000
2050.382153	48.070000
2052.047741	47.195000
2053.714697	49.635000
2055.379620	49.790000
2057.044210	52.425000
2058.706769	51.040000
2060.370696	52.020000
2062.032593	46.945000
2063.694158	50.865000
2065.355393	52.310000
2067.014598	49.970000
2068.673474	51.665000
2070.332019	48.620000
2071.990235	48.495000
2073.644727	51.695000
2075.302284	50.665000
2076.959512	49.270000
2078.613018	51.510000
2080.267892	48.620000
2081.919048	50.265000
2083.573265	50.840000
2085.223766	51.835000
2086.875633	50.600000
2088.522092	55.720000
2090.173306	52.250000
2091.820806	54.015000
2093.469673	52.310000
2095.116522	51.620000
2096.763044	49.900000
2098.409241	52.045000
2100.051730	48.815000
2101.697277	54.045000
2103.339117	47.755000
2104.984014	49.545000
2106.625206	49.400000
2108.266074	49.560000
2109.906619	47.480000
2111.545151	49.510000
2113.185049	47.685000
2114.821247	50.270000
2116.458811	46.135000
2118.096052	51.350000
2119.731284	47.930000
2121.366195	50.530000
2123.000784	49.305000
2124.635051	49.395000
2126.265626	50.045000
2127.899251	50.530000
2129.529185	50.160000
2131.160484	50.835000
2132.789779	48.215000
2134.418753	49.960000
2136.047409	44.795000
2137.675745	48.190000
2139.302078	47.930000
2140.928093	51.095000
2142.552107	50.955000
2144.177485	49.330000
2145.800864	48.275000
2147.425606	52.385000
2149.046668	48.935000
2150.667413	47.315000
2152.289523	48.535000
2153.909635	45.470000
2155.527750	49.860000
2157.145550	48.130000
2158.763035	50.225000
2160.380204	50.200000
2161.997058	48.765000
2163.613597	51.490000
2165.228142	49.995000
2166.840695	50.655000
2168.454612	47.715000
2170.066538	53.815000
2171.679827	48.320000
2173.291126	48.650000
2174.900435	48.820000
2176.511108	49.835000
2178.119792	48.605000
2179.728164	48.105000
2181.334548	49.230000
2182.942296	51.395000
2184.548057	45.655000
2186.153507	52.955000
2187.756973	47.180000
2189.361801	50.120000
2190.964645	46.425000
2192.565506	48.580000
2194.167730	46.435000
2195.767971	49.415000
2197.369575	48.185000
2198.967527	48.280000
2200.566841	46.905000
2202.164175	49.955000
2203.761201	45.675000
2205.359588	49.095000
2206.954327	48.705000
2208.547090	49.190000
2210.141214	51.675000
2211.736700	45.690000
2213.328542	50.695000
2214.920077	49.980000
2216.512973	48.815000
2218.100560	46.165000
2219.692844	46.160000
2221.279820	47.400000
2222.869825	48.895000
2224.454525	47.450000
2226.043919	48.720000
2227.628010	45.115000
2229.213463	45.715000
2230.796946	51.975000
2232.383456	48.115000
2233.966332	49.240000
2235.548904	46.330000
2237.131173	47.435000
2238.709813	46.495000
2240.291476	48.095000
2241.869511	45.160000
2243.450569	45.120000
2245.028001	45.915000
2246.603469	46.710000
2248.181958	43.925000
2249.756824	44.200000
2251.331389	47.835000
2252.905654	50.215000
2254.479618	46.270000
2256.053282	47.710000
2257.626645	43.500000
2259.196390	46.215000
2260.765836	46.060000
2262.338301	47.075000
2263.905490	46.175000
2265.475698	48.520000
2267.042291	48.370000
2268.610244	47.850000
2270.176242	42.985000
2271.741941	46.465000
2273.307344	45.175000
2274.870793	48.420000
2276.435600	45.245000
2277.996800	52.540000
2279.561014	50.155000
2281.119967	54.645000
2282.681933	52.425000
2284.241949	50.875000
2285.801669	45.265000
2287.359440	46.205000
2288.916917	48.990000
2290.474098	45.390000
2292.029333	46.255000
2293.584273	47.700000
2295.138920	49.960000
2296.693273	47.010000
2298.247332	48.140000
2299.801097	50.635000
2301.352919	43.075000
2302.902797	44.800000
2304.455683	47.715000
2306.003327	47.330000
2307.553978	42.475000
2309.101039	48.210000
2310.649457	45.090000
2312.197583	47.030000
2313.742122	45.695000
2315.288018	45.405000
2316.831975	41.725000
2318.377290	45.785000
2319.919020	47.840000
2321.462107	43.785000
2323.003259	43.645000
2324.544121	50.510000
2326.084694	48.230000
2327.624978	46.715000
2329.164973	43.970000
2330.701389	46.370000
2332.240807	47.360000
2333.776648	40.510000
2335.313845	46.775000
2336.847468	44.835000
2338.384090	48.480000
2339.918781	42.230000
2341.451543	47.165000
2342.984019	43.760000
2344.514566	49.290000
2346.048111	44.010000
2347.576445	44.095000
2349.106135	43.560000
2350.635540	42.385000
2352.164659	48.255000
2353.693494	43.255000
2355.217123	44.885000
2356.745389	45.580000
2358.268451	45.305000
2359.796147	46.825000
2361.317004	46.365000
2362.842494	45.310000
2364.364423	48.645000
2365.887708	48.755000
2367.409072	45.035000
2368.928516	45.195000
2370.449315	47.860000
2371.968195	43.010000
2373.486793	46.320000
2375.003474	48.220000
2376.521509	46.595000
2378.039263	44.360000
2379.553466	46.120000
2381.067388	44.575000
2382.581031	46.815000
2384.096027	44.425000
2385.607475	45.575000
2387.120278	42.765000
2388.631168	47.295000
2390.141778	46.025000
2391.650477	46.395000
2393.162163	45.450000
2394.670304	45.570000
2396.178168	40.835000
2397.685754	41.225000
2399.189799	44.740000
2400.696830	46.530000
2402.201952	41.480000
2403.706797	46.860000
2405.209735	42.105000
2406.712396	46.630000
2408.214781	46.730000
2409.715261	46.830000
2411.217094	42.200000
2412.717023	47.105000
2414.216676	43.290000
2415.716054	45.010000
2417.213528	43.325000
2418.709102	43.925000
2420.207655	44.760000
2421.702679	44.755000
2423.199057	40.460000
2424.691908	42.335000
2426.186111	43.825000
2427.680041	46.180000
2429.170448	46.570000
2430.663831	45.060000
2432.155317	43.560000
2433.644906	44.730000
2435.134223	41.295000
2436.621645	47.725000
2438.112042	43.675000
2439.598920	45.285000
2441.087150	46.520000
2442.571864	46.720000
2444.056307	42.240000
2445.542102	42.350000
2447.026004	41.830000
2448.511258	45.575000
2449.991378	45.320000
2451.474470	45.350000
2452.955672	42.440000
2454.436605	44.815000
2455.915649	46.225000
2457.394425	44.010000
2458.872931	40.520000
2460.351170	45.125000
2461.829140	49.175000
2463.303606	40.280000
2464.781040	40.320000
2466.254971	41.885000
2467.730253	41.975000
2469.205267	45.740000
2470.676780	44.875000
2472.149644	42.375000
2473.620624	39.095000
2475.092955	47.590000
2476.560173	46.425000
2478.030356	38.175000
2479.498659	45.060000
2480.966697	44.080000
2482.434470	42.250000
2483.901978	41.695000
2485.369221	41.575000
2486.832972	42.670000
2488.298074	42.405000
2489.761297	42.245000
2491.225871	39.305000
2492.686955	45.335000
2494.149389	41.845000
2495.611560	41.975000
2497.070245	43.025000
2498.533502	44.105000
2499.991662	41.315000
2501.451171	41.975000
2502.905587	42.540000
2504.364572	43.935000
2505.821686	44.775000
2507.276929	39.680000
2508.731911	37.250000
2510.185023	41.405000
2511.639484	41.430000
2513.092076	44.350000
2514.544408	41.245000
2515.994872	43.840000
2517.448292	44.545000
2518.896630	42.715000
2520.347924	41.080000
2521.797351	42.415000
2523.243307	43.945000
2524.692217	38.285000
2526.137656	41.970000
2527.584444	41.315000
2529.029368	40.840000
2530.474035	42.105000
2531.920049	42.340000
2533.362596	41.445000
2534.806491	43.025000
2536.246921	45.225000
2537.688699	40.510000
2539.128616	45.225000
2540.569881	38.705000
2542.007685	44.385000
2543.448438	43.600000
2544.884128	41.225000
2546.322768	43.350000
2547.759551	40.195000
2549.194477	46.905000
2550.632352	43.465000
2552.065169	41.470000
2553.499332	42.245000
2554.931642	43.090000
2556.365298	41.110000
2557.797101	40.395000
2559.228651	48.675000
2560.659947	42.485000
2562.089392	41.320000
2563.518584	41.865000
2564.945925	41.850000
2566.374613	41.600000
2567.803048	43.400000
2569.228036	42.525000
2570.654371	39.245000
2572.078857	45.010000
2573.504689	44.650000
2574.927077	41.185000
2576.350811	42.105000
2577.772699	47.115000
2579.194336	42.120000
2580.614128	39.930000
2582.035266	40.520000
2583.456154	44.865000
2584.873604	42.595000
2586.293993	40.015000
2587.710945	42.675000
2589.127649	43.060000
2590.544104	40.290000
2591.960311	44.995000
2593.376269	42.030000
2594.790387	42.560000
2596.204258	40.890000
2597.616289	40.960000
2599.029665	40.830000
2600.439611	38.695000
2601.852492	41.780000
2603.261946	42.950000
2604.671153	41.650000
2606.078524	41.220000
2607.488829	40.160000
2608.897298	39.695000
2610.303932	41.780000
2611.710321	39.815000
2613.114876	39.910000
2614.520775	39.785000
2615.924841	41.820000
2617.328663	41.445000
2618.732240	40.665000
2620.133985	39.765000
2621.537074	42.390000
2622.936746	43.680000
2624.337760	40.015000
2625.735359	40.320000
2627.135888	44.480000
2628.533002	41.820000
2629.931459	42.385000
2631.328088	41.445000
2632.724475	43.005000
2634.120621	41.550000
2635.514940	42.540000
2636.910602	39.880000
2638.302854	40.195000
2639.696450	44.015000
2641.088221	41.465000
2642.481334	39.545000
2643.872624	39.180000
2645.262091	41.135000
2646.651319	40.170000
2648.040306	39.835000
2649.430636	37.395000
2650.815981	42.445000
2652.204250	40.580000
2653.590699	40.235000
2654.976909	41.165000
2656.362881	40.030000
2657.745453	44.935000
2659.129368	40.725000
2660.513045	41.740000
2661.896484	40.965000
2663.276527	40.440000
2664.657912	40.105000
2666.037481	42.850000
2667.418392	38.055000
2668.797488	38.270000
2670.174769	41.525000
2671.553392	41.500000
2672.930202	37.720000
2674.306776	40.770000
2675.683114	35.260000
2677.057640	43.020000
2678.433507	38.855000
2679.805987	47.455000
2681.181384	39.005000
2682.551819	41.220000
2683.923596	38.980000
2685.295139	43.465000
2686.664873	39.310000
2688.035947	38.825000
2689.405214	39.180000
2690.774247	38.345000
2692.141473	38.700000
2693.508467	40.220000
2694.875228	39.555000
2696.241756	38.130000
2697.606479	41.845000
2698.970971	39.590000
2700.335230	38.025000
2701.699258	38.730000
2703.063053	39.750000
2704.423475	43.950000
2705.786808	41.440000
2707.145198	38.465000
2708.506498	39.295000
2709.864427	38.760000
2711.225266	37.575000
2712.584304	37.430000
2713.939974	39.135000
2715.298552	41.565000
2716.653764	39.680000
2718.008746	44.230000
2719.361931	40.155000
2720.718023	39.830000
2722.070751	44.065000
2723.423250	44.365000
2724.775521	38.670000
2726.129131	42.445000
2727.479379	39.325000
2728.827834	38.900000
2730.179193	37.835000
2731.527193	36.110000
2732.876532	37.740000
2734.224078	40.510000
2735.571397	40.920000
2736.918490	38.520000
2738.263792	38.065000
2739.608868	42.145000
2740.953718	37.390000
2742.298341	39.700000
2743.639613	38.525000
2744.982223	42.405000
2746.324607	36.880000
2747.666767	39.040000
2749.005577	35.440000
2750.347286	38.585000
2751.685648	39.225000
2753.025347	38.235000
2754.363260	37.790000
2755.699389	36.795000
2757.035295	34.620000
2758.372537	40.375000
2759.707996	37.490000
2761.043232	39.560000
2762.376686	35.950000
2763.711476	41.200000
2765.042925	37.970000
2766.377270	44.085000
2767.706717	39.805000
2769.037501	40.750000
2770.368063	38.330000
2771.696846	38.420000
2773.026966	35.400000
2774.355306	40.120000
2775.683426	38.490000
2777.009769	41.390000
2778.337447	39.725000
2779.661793	42.910000
2780.987474	36.665000
2782.311380	39.620000
2783.635067	36.725000
2784.960089	39.635000
2786.281782	38.785000
2787.603255	40.890000
2788.924510	39.325000
2790.245546	39.815000
2791.564810	41.775000
2792.885409	39.055000
2794.204236	39.580000
2795.522845	42.100000
2796.839684	39.815000
2798.156305	43.675000
2799.472708	39.515000
2800.787343	41.070000
2802.103312	41.830000
2803.415961	40.285000
2804.729946	35.370000
2806.043714	38.825000
2807.357265	38.435000
2808.669049	42.045000
2809.979068	41.725000
2811.290420	41.460000
2812.598458	39.565000
2813.907831	40.465000
2815.216988	34.705000
2816.525930	43.620000
2817.833109	36.300000
2819.138524	39.565000
2820.445274	40.085000
2821.750261	41.065000
2823.055035	38.335000
2824.358047	39.440000
2825.663941	38.360000
2826.964979	40.740000
2828.267352	37.705000
2829.567965	41.960000
2830.869912	43.655000
2832.171646	41.025000
2833.470075	44.230000
2834.769839	43.750000
2836.067844	38.780000
2837.365638	40.110000
2838.661676	38.460000
2839.959047	42.980000
2841.254662	37.970000
2842.550066	42.195000
2843.845260	38.355000
2845.137155	39.170000
2846.431927	36.545000
2847.723402	41.175000
2849.016211	35.845000
2850.308808	38.960000
2851.598112	34.950000
2852.888748	39.600000
2854.177633	38.605000
2855.467851	39.390000
2856.754777	40.795000
2858.043035	39.455000
2859.329543	39.865000
2860.615844	35.455000
2861.901936	36.950000
2863.186280	41.030000
2864.473496	37.545000
2865.755885	38.135000
2867.039605	36.520000
2868.321580	38.355000
2869.603348	37.320000
2870.883370	37.130000
2872.166262	39.465000
2873.447409	36.705000
2874.725274	36.220000
2876.006008	37.235000
2877.283461	40.815000
2878.560709	39.100000
2879.836214	37.845000
2881.114587	37.700000
2882.388145	34.635000
2883.664571	37.395000
2884.939256	35.375000
2886.212201	38.965000
2887.486476	35.175000
2888.759012	36.865000
2890.031344	34.335000
2891.300403	38.220000
2892.572326	33.670000
2893.842512	37.890000
2895.112495	35.840000
2896.382274	38.125000
2897.650316	37.615000
2898.916623	38.105000
2900.182727	37.190000
2901.450161	31.880000
2902.715861	36.700000
2903.981358	36.025000
2905.246653	35.560000
2906.508683	38.895000
2907.772044	37.010000
2909.035203	36.400000
2910.296629	33.005000
2911.559385	33.915000
2912.820410	35.015000
2914.079704	35.755000
2915.338797	35.830000
2916.597690	35.955000
2917.856383	38.120000
2919.114876	33.110000
2920.371640	33.345000
2921.628204	31.710000
2922.883041	33.590000
2924.139207	37.930000
2925.392117	34.775000
2926.646357	34.110000
2927.900398	39.175000
2929.152713	35.060000
2930.404830	36.275000
2931.655222	37.450000
2932.908469	36.790000
2934.156939	35.370000
2935.408263	37.165000
2936.656339	35.395000
2937.904217	31.040000
2939.151898	31.510000
2940.399383	32.855000
2941.645146	36.235000
2942.890712	40.715000
2944.137607	34.655000
2945.381256	32.295000
2946.626234	33.185000
2947.867969	36.130000
2949.112555	36.835000
2950.355421	35.730000
2951.595047	34.300000
2952.837524	36.675000
2954.076760	34.525000
2955.317324	33.165000
2956.556171	31.080000
2957.794824	36.405000
2959.031761	35.890000
2960.270025	35.810000
2961.506575	34.050000
2962.742930	33.585000
2963.979092	38.180000
2965.213541	31.910000
2966.447796	31.640000
2967.681858	35.770000
2968.914208	35.510000
2970.144846	31.305000
2971.378330	33.295000
2972.610102	33.890000
2973.840164	36.735000
2975.070034	30.805000
2976.298194	35.265000
2977.527680	34.895000
2978.755458	33.635000
2979.983044	32.910000
2981.211956	35.750000
2982.436126	34.465000
2983.663139	31.910000
2984.886929	32.660000
2986.112044	33.550000
2987.335453	35.260000
2988.558673	32.960000
2989.780187	30.715000
2991.004542	34.275000
2992.224162	29.930000
2993.445107	34.270000
2994.665864	32.560000
2995.884917	32.385000
2997.105296	33.895000
2998.322458	29.190000
2999.540945	29.870000
3000.757731	35.235000
3001.974328	33.500000
3003.190738	32.190000
3004.403934	32.590000
3005.619968	35.645000
3006.832790	33.465000
3008.048449	35.440000
3009.259385	32.030000
3010.471646	26.815000
3011.683721	30.830000
3012.895609	28.860000
3014.105799	29.760000
3015.315803	35.805000
3016.525622	34.195000
3017.733744	32.280000
3018.941680	31.330000
3020.147922	32.700000
3021.355487	30.845000
3022.561359	31.015000
3023.767045	31.185000
3024.972546	35.315000
3026.176355	34.215000
3027.381487	34.215000
3028.584926	31.360000
3029.786673	27.245000
3030.988237	31.345000
3032.189617	29.330000
3033.390813	27.195000
3034.590319	28.695000
3035.789641	30.465000
3036.990287	33.225000
3038.189244	32.440000
3039.385005	29.495000
3040.583596	30.255000
3041.778993	29.190000
3042.975713	30.665000
3044.169241	37.515000
3045.365598	29.325000
3046.560267	32.140000
3047.751746	28.435000
3048.947556	31.015000
3050.138673	27.205000
3051.331112	34.085000
3052.520364	31.025000
3053.712442	33.165000
3054.902835	29.945000
3056.090043	30.495000
3057.278574	30.300000
3058.468427	31.255000
3059.655095	32.070000
3060.841584	33.325000
3062.027893	27.765000
3063.215524	31.335000
3064.399974	30.555000
3065.582743	30.225000
3066.768336	27.570000
3067.952248	32.015000
3069.134482	29.820000
3070.316538	33.175000
3071.498415	31.165000
3072.680114	32.420000
3073.860135	30.350000
3075.038480	28.635000
3076.219646	28.995000
3077.397636	30.765000
3078.575449	32.280000
3079.753085	33.435000
3080.929046	32.520000
3082.104831	27.815000
3083.281936	30.655000
3084.457367	34.005000
3085.631125	32.455000
3086.803211	31.230000
3087.976617	31.300000
3089.149848	31.810000
3090.321406	31.570000
3091.494286	28.755000
3092.663998	33.005000
3093.835031	29.865000
3095.004393	29.695000
3096.172086	32.050000
3097.342594	27.570000
3098.508443	35.365000
3099.678602	31.155000
3100.844103	30.665000
3102.009431	28.605000
3103.174585	28.700000
3104.339565	30.135000
3105.505866	28.615000
3106.667513	30.195000
3107.830481	28.570000
3108.993275	27.430000
3110.155897	29.350000
3111.316854	28.070000
3112.477638	28.050000
3113.638250	32.375000
3114.797199	31.940000
3115.955975	30.800000
3117.114580	28.220000
3118.273013	28.675000
3119.431274	32.390000
3120.587873	27.010000
3121.742811	28.870000
3122.899068	26.055000
3124.053665	26.595000
3125.208090	29.575000
3126.360856	31.460000
3127.513452	27.830000
3128.665877	30.310000
3129.818133	27.790000
3130.970219	31.015000
3132.119158	27.775000
3133.270904	27.930000
3134.420993	30.675000
3135.569424	30.050000
3136.717687	28.750000
3137.865780	31.805000
3139.013705	26.465000
3140.159975	29.585000
3141.306076	27.940000
3142.450522	33.110000
3143.594801	27.275000
3144.738912	29.875000
3145.884341	26.070000
3147.026631	30.010000
3148.168753	29.875000
3149.310709	31.420000
3150.452497	26.215000
3151.594118	30.640000
3152.732603	25.825000
3153.872406	28.420000
3155.013527	25.920000
3156.151513	25.840000
3157.287850	27.275000
3158.424021	27.125000
3159.561510	27.590000
3160.697350	29.950000
3161.834506	23.360000
3162.967050	27.515000
3164.103876	24.745000
3165.236090	26.840000
3166.369622	28.965000
3167.502988	32.030000
3168.633227	29.660000
3169.766264	28.150000
3170.896175	26.710000
3172.027403	29.550000
3173.155505	26.710000
3174.286404	25.505000
3175.415660	26.925000
3176.543271	24.060000
3177.667761	27.635000
3178.796526	27.650000
3179.922169	27.210000
3181.047649	32.110000
3182.171488	31.665000
3183.298121	31.600000
3184.420157	27.900000
3185.543509	28.830000
3186.666699	28.955000
3187.789727	23.290000
3188.911115	24.765000
3190.032342	26.855000
3191.151930	27.540000
3192.271357	27.670000
3193.389146	25.020000
3194.509728	26.860000
3195.627195	27.580000
3196.744503	27.825000
3197.861649	27.940000
3198.977160	27.900000
3200.093986	28.795000
3201.207701	28.445000
3202.324207	25.130000
3203.439077	31.120000
3204.550839	24.740000
3205.662442	29.740000
3206.775359	25.115000
3207.888118	32.205000
3208.997770	24.210000
3210.108737	28.350000
3211.219545	23.845000
3212.328721	24.825000
3213.436266	24.355000
3214.545126	28.535000
3215.653827	28.110000
3216.759426	24.040000
3217.866340	31.065000
3218.971624	30.555000
3220.078222	24.340000
3221.181720	25.980000
3222.286532	25.890000
3223.391187	30.095000
3224.492743	28.090000
3225.594144	27.530000
3226.696858	25.010000
3227.799415	25.990000
3228.898877	23.825000
3230.001121	25.235000
3231.100271	23.185000
3232.197795	28.470000
3233.295164	24.140000
3234.395316	24.590000
3235.492374	26.490000
3236.589277	29.870000
3237.686026	28.275000
3238.778215	27.685000
3239.874654	28.645000
3240.969470	26.180000
3242.064131	26.230000
3243.157171	30.470000
3244.250057	23.610000
3245.341322	25.750000
3246.433900	25.745000
3247.524857	28.550000
3248.614196	25.890000
3249.703380	28.725000
3250.793878	25.355000
3251.881291	26.285000
3252.968552	29.725000
3254.057125	24.040000
3255.145545	23.875000
3256.229418	26.680000
3257.317533	22.865000
3258.402567	24.670000
3259.485985	24.430000
3260.570714	26.665000
3261.653829	24.525000
3262.738255	27.410000
3263.819603	28.175000
3264.902263	22.380000
3265.983309	23.865000
3267.064204	25.460000
3268.143486	23.750000
3269.222617	25.035000
3270.303059	27.475000
3271.380428	28.965000
3272.459108	27.460000
3273.536176	25.755000
3274.613094	27.565000
3275.688401	27.240000
3276.763559	25.410000
3277.840029	29.390000
3278.913427	25.210000
3279.986677	28.800000
3281.061238	29.145000
3282.134189	25.380000
3283.205533	27.140000
3284.278187	28.285000
3285.347774	23.945000
3286.418672	25.625000
3287.487963	23.150000
3288.558565	26.760000
3289.627560	26.205000
3290.694949	26.160000
3291.760733	23.560000
3292.830743	24.895000
3293.897690	24.515000
3294.961575	25.470000
3296.028228	26.245000
3297.093276	26.505000
3298.156722	26.260000
3299.220020	28.865000
3300.283173	25.285000
3301.346179	26.360000
3302.409038	28.570000
3303.470296	23.465000
3304.528497	21.575000
3305.590919	24.465000
3306.650284	25.450000
3307.709504	24.535000
3308.770034	21.725000
3309.826054	26.450000
3310.884839	26.725000
3311.939116	23.660000
3312.996156	20.230000
3314.051599	23.415000
3315.108350	28.800000
3316.163504	25.495000
3317.217060	28.315000
3318.269019	28.465000
3319.323740	26.800000
3320.375412	25.425000
3321.426941	22.860000
3322.479779	26.435000
3323.529569	25.800000
3324.580667	22.915000
3325.628720	27.575000
3326.679533	25.575000
3327.727300	24.945000
3328.774925	22.930000
3329.822407	28.415000
3330.868297	26.505000
3331.915495	28.590000
3332.959651	28.935000
3334.006565	28.610000
3335.051887	27.310000
3336.094169	26.930000
3337.136309	26.105000
3338.179757	25.700000
3339.223065	22.470000
3340.264782	24.220000
3341.306358	25.510000
3342.347794	27.445000
3343.387640	25.975000
3344.425899	23.265000
3345.465465	26.680000
3346.504890	23.795000
3347.542729	25.560000
3348.578980	23.850000
3349.615091	25.730000
3350.652510	26.770000
3351.686896	22.900000
3352.722589	24.990000
3353.758143	24.855000
3354.790666	28.120000
3355.825942	22.865000
3356.858187	24.305000
3357.890294	25.115000
3358.920817	24.975000
3359.952648	24.000000
3360.984339	24.400000
3362.013004	27.645000
3363.041530	26.375000
3364.071364	23.495000
3365.101059	22.135000
3366.127729	29.950000
3367.155706	26.935000
3368.180658	25.640000
3369.208360	21.470000
3370.233039	25.080000
3371.259024	22.910000
3372.283429	27.430000
3373.307698	22.570000
3374.330388	28.105000
3375.352942	27.230000
3376.376802	28.580000
3377.397642	23.810000
3378.418347	27.910000
3379.440357	25.640000
3380.459349	24.870000
3381.478206	25.200000
3382.498368	22.030000
3383.515514	22.105000
