-165.741099	3.265000
-163.071499	2.185000
-160.404834	2.720000
-157.738921	2.115000
-155.075940	0.190000
-152.411530	3.245000
-149.750050	-2.780000
-147.087140	3.605000
-144.429338	-1.350000
-141.770105	2.305000
-139.111621	3.990000
-136.456062	-0.020000
-133.799074	-0.150000
-131.147183	4.610000
-128.493863	3.380000
-125.843463	1.680000
-123.191633	2.515000
-120.544894	4.725000
-117.896725	0.365000
-115.249300	3.565000
-112.604788	0.520000
-109.958848	2.505000
-107.317989	3.965000
-104.675701	6.045000
-102.036321	0.680000
-99.395513	2.180000
-96.755445	5.000000
-94.120449	6.855000
-91.484024	5.950000
-88.850503	2.345000
-86.215553	2.390000
-83.585668	4.565000
-80.952191	4.140000
-78.323776	7.080000
-75.696094	4.990000
-73.066985	10.890000
-70.442932	8.975000
-67.815290	13.320000
-65.192701	15.610000
-62.570843	20.215000
-59.949717	41.830000
-57.329320	88.370000
-54.711811	305.590000
-52.092874	1061.640000
-49.476823	3361.245000
-46.861500	5061.355000
-44.246904	2908.940000
-41.635191	292.675000
-39.022049	47.300000
-36.413941	25.755000
-33.802251	20.995000
-31.195592	9.025000
-28.587505	15.300000
-25.980142	10.785000
-23.377804	5.440000
-20.771888	7.860000
-18.170994	2.670000
-15.568671	3.990000
-12.971367	4.440000
-10.370487	6.570000
-7.774621	5.585000
-5.177328	3.480000
-2.580754	3.805000
0.010811	3.090000
2.603804	1.590000
5.193936	1.610000
7.785496	3.540000
10.374196	7.965000
12.964323	3.095000
15.549452	4.040000
18.136008	-0.070000
20.721849	4.045000
23.304837	-0.765000
25.889252	3.145000
28.466537	1.550000
31.047389	5.820000
33.625392	-1.200000
36.202685	3.650000
38.781404	0.850000
41.355142	4.550000
43.930306	5.525000
46.502627	4.900000
49.074240	3.600000
51.643014	0.270000
54.213214	2.290000
56.780575	3.555000
59.349363	3.605000
61.915313	3.905000
64.478429	3.595000
67.045101	6.785000
69.602552	2.450000
72.165688	4.960000
74.723865	5.620000
77.285595	6.500000
79.842370	15.230000
82.400570	22.705000
84.953818	28.370000
87.506367	39.235000
90.062467	55.110000
92.613620	64.440000
95.164074	78.785000
97.713832	83.790000
100.260770	98.950000
102.807012	100.960000
105.354681	103.585000
107.901653	106.605000
110.443689	101.745000
112.985032	97.435000
115.525683	99.450000
118.067758	100.285000
120.607023	96.835000
123.143478	99.380000
125.679243	95.640000
128.216433	97.575000
130.752931	95.770000
133.286624	95.740000
135.817514	97.535000
138.347715	92.545000
140.879341	91.675000
143.408166	93.385000
145.934192	93.320000
148.459533	93.460000
150.986298	95.245000
153.510267	93.880000
156.033550	94.875000
158.556149	97.495000
161.075955	99.760000
163.595078	94.945000
166.113518	90.480000
168.633382	97.540000
171.146245	98.490000
173.662639	102.830000
176.178351	106.035000
178.689174	107.450000
181.201421	110.930000
183.710885	110.040000
186.219671	110.035000
188.727779	114.220000
191.237310	113.555000
193.741962	117.135000
196.245937	111.860000
198.751336	116.780000
201.251860	113.270000
203.755907	114.915000
206.252984	115.345000
208.753583	115.140000
211.251411	112.840000
213.748566	114.240000
216.245048	117.595000
218.736668	116.400000
221.231806	115.530000
223.724179	120.720000
226.215881	122.410000
228.704820	120.110000
231.195182	124.700000
233.682783	126.470000
236.167624	129.245000
238.655979	129.805000
241.137395	130.200000
243.622325	128.670000
246.102410	139.290000
248.586007	139.260000
251.064761	143.215000
253.544939	151.695000
256.022364	155.930000
258.499126	152.905000
260.975225	148.340000
263.448575	141.990000
265.921263	140.580000
268.393290	142.845000
270.864656	146.770000
273.333278	152.050000
275.801240	152.795000
278.270625	144.875000
280.735187	136.225000
283.203252	128.770000
285.666498	130.535000
288.129087	125.500000
290.591018	125.580000
293.052293	123.365000
295.510834	125.105000
297.970797	118.335000
300.428028	119.550000
302.884603	126.400000
305.340525	118.710000
307.793718	114.845000
310.248332	120.525000
312.698145	114.430000
315.151455	117.630000
317.599965	118.050000
320.047825	113.210000
322.497106	118.625000
324.941594	114.045000
327.387504	113.040000
329.832765	108.375000
332.275307	113.915000
334.717201	113.980000
337.158447	110.835000
339.596978	110.635000
342.036931	113.045000
344.474170	111.405000
346.908697	111.290000
349.346712	112.150000
351.779950	109.875000
354.214610	112.050000
356.644496	113.065000
359.077868	108.250000
361.506470	111.605000
363.934431	106.770000
366.363812	110.720000
368.788428	114.150000
371.214466	107.015000
373.639863	111.285000
376.064620	110.025000
378.484619	111.810000
380.906039	111.830000
383.324762	111.645000
385.744906	118.120000
388.162355	109.515000
390.581224	108.520000
392.997400	108.185000
395.408829	106.095000
397.823734	109.095000
400.235949	103.635000
402.647530	102.240000
405.058477	97.560000
407.466738	92.195000
409.874366	96.365000
412.281363	99.000000
414.687727	94.885000
417.091409	95.210000
419.494461	99.140000
421.896883	100.730000
424.298676	99.535000
426.697790	101.440000
429.098324	105.725000
431.498229	101.640000
433.893411	109.935000
436.292060	118.175000
438.685989	118.250000
441.079292	120.100000
443.471969	128.935000
445.864021	132.120000
448.257492	141.180000
450.646250	154.870000
453.032342	173.840000
455.419854	202.040000
457.806742	255.205000
460.190967	345.355000
462.576611	516.965000
464.959592	872.285000
467.339913	1639.900000
469.721653	3077.780000
472.100734	4448.650000
474.481234	4291.660000
476.859076	2779.915000
479.234263	1383.255000
481.608832	765.475000
483.984820	506.860000
486.358154	373.905000
488.732907	298.595000
491.102973	251.900000
493.472424	211.890000
495.843294	189.270000
498.209482	164.995000
500.577089	151.580000
502.942050	135.480000
505.306398	126.280000
507.670134	118.565000
510.035287	106.485000
512.395767	106.550000
514.757666	106.785000
517.116925	97.915000
519.473545	92.065000
521.833610	90.370000
524.186985	88.385000
526.543804	84.195000
528.897987	78.755000
531.251563	80.900000
533.604530	79.755000
535.954866	74.740000
538.306618	74.990000
540.651694	74.535000
543.002234	72.410000
545.346101	71.800000
547.695428	70.065000
550.040108	74.130000
552.382163	74.810000
554.725634	71.045000
557.066483	75.405000
559.406730	71.290000
561.744356	73.895000
564.085417	75.635000
566.421841	75.340000
568.759681	72.515000
571.094903	74.615000
573.427510	70.560000
575.761533	70.350000
578.092943	68.285000
580.423754	70.335000
582.753967	64.310000
585.083582	67.390000
587.408575	64.730000
589.739009	62.570000
592.064821	61.145000
594.388027	65.490000
596.712648	63.885000
599.034665	61.000000
601.356087	61.985000
603.674906	63.310000
605.995141	61.885000
608.314783	65.005000
610.631824	61.235000
612.948274	58.910000
615.262125	64.455000
617.577391	65.090000
619.890061	59.345000
622.204146	60.440000
624.513631	59.015000
626.824532	62.025000
629.132840	59.165000
631.440560	57.765000
633.749695	61.795000
636.054237	56.485000
638.358193	52.500000
640.661562	53.760000
642.966346	53.530000
645.266544	50.400000
647.568156	46.980000
649.869184	45.805000
652.165629	46.900000
654.463490	43.245000
656.760767	45.930000
659.057461	47.120000
661.349579	44.220000
663.645108	43.305000
665.936064	43.485000
668.228434	40.685000
670.518228	43.070000
672.807443	44.475000
675.096077	46.770000
677.382140	47.230000
679.669616	45.140000
681.954522	49.700000
684.238849	43.575000
686.520608	44.090000
688.803782	46.390000
691.086377	45.335000
693.364418	45.490000
695.643872	45.460000
697.922751	43.625000
700.201054	46.075000
702.474808	44.615000
704.749976	46.145000
707.024570	45.250000
709.296605	48.740000
711.570052	44.380000
713.840942	48.855000
716.109276	47.010000
718.379023	45.685000
720.646216	50.490000
722.912838	47.470000
725.178891	47.950000
727.442391	49.560000
729.707305	46.660000
731.971649	52.820000
734.231464	53.980000
736.492692	47.250000
738.753352	51.505000
741.011465	52.410000
743.267034	54.275000
745.525994	51.430000
747.778455	50.055000
750.036283	53.115000
752.289591	51.610000
754.540360	53.520000
756.792541	53.700000
759.042184	52.175000
761.293238	51.900000
763.539781	52.715000
765.787737	54.295000
768.033157	53.505000
770.279989	51.570000
772.526260	54.370000
774.768027	53.340000
777.013176	51.070000
779.251853	53.145000
781.493913	57.040000
783.731474	53.345000
785.970446	49.140000
788.206892	50.960000
790.444750	55.600000
792.680082	49.680000
794.912890	51.945000
797.147110	46.900000
799.378808	49.570000
801.609951	46.695000
803.840539	48.325000
806.070573	46.310000
808.300052	51.445000
810.525050	48.545000
812.753423	48.495000
814.977317	51.215000
817.202621	50.065000
819.423450	48.870000
821.647651	49.475000
823.867379	49.640000
826.088518	49.120000
828.309106	50.890000
830.527184	50.470000
832.746673	47.270000
834.961695	48.885000
837.176169	51.495000
839.390096	49.085000
841.603475	47.685000
843.816307	49.145000
846.028593	49.165000
848.238377	50.990000
850.447615	48.355000
852.656307	50.125000
854.862501	52.975000
857.070104	49.320000
859.275210	49.615000
861.479772	49.275000
863.681838	49.415000
865.885314	52.190000
868.086296	54.610000
870.286737	54.850000
872.488586	53.890000
874.684043	59.860000
876.882860	67.730000
879.077239	72.650000
881.274974	79.445000
883.468274	92.685000
885.662983	109.940000
887.855206	120.205000
890.046891	137.175000
892.238038	152.610000
894.426702	161.445000
896.614829	164.595000
898.800476	160.105000
900.989475	159.340000
903.174051	158.140000
905.358092	157.365000
907.545483	154.625000
909.724571	161.270000
911.907008	161.190000
914.088912	164.475000
916.268342	161.110000
918.445299	164.215000
920.623664	171.085000
922.803435	169.070000
924.976858	168.395000
927.153627	172.520000
929.325990	177.390000
931.499759	175.035000
933.669125	170.575000
935.841836	171.900000
938.012080	159.615000
940.181796	152.130000
942.350983	131.855000
944.515773	119.920000
946.683904	110.720000
948.847641	99.835000
951.012784	96.790000
953.175469	93.780000
955.337627	86.090000
957.497329	87.650000
959.656507	82.540000
961.817091	79.320000
963.975220	78.685000
966.132825	74.095000
968.289907	75.855000
970.446466	75.090000
972.598645	73.315000
974.752230	68.715000
976.905294	65.675000
979.055910	65.440000
981.207931	67.040000
983.355579	59.880000
985.506559	62.375000
987.653168	61.845000
989.799259	57.550000
991.944830	57.395000
994.091807	58.645000
996.232496	57.310000
998.376513	51.815000
1000.518090	54.110000
1002.659151	53.610000
1004.801616	53.830000
1006.937802	54.545000
1009.077314	50.600000
1011.212470	55.420000
1013.350951	54.555000
1015.485079	53.920000
1017.618692	55.805000
1019.753711	49.275000
1021.884380	54.220000
1024.016454	52.350000
1026.146099	50.985000
1028.275232	52.440000
1030.403853	48.685000
1032.531963	46.890000
1034.657647	49.525000
1036.782821	47.875000
1038.909399	51.460000
1041.031640	48.235000
1043.155284	47.120000
1045.274595	44.655000
1047.399134	46.695000
1049.517428	43.615000
1051.637127	43.885000
1053.754407	41.530000
1055.871181	40.040000
1057.987448	42.185000
1060.101300	41.920000
1062.216555	39.315000
1064.327488	41.945000
1066.441732	43.445000
1068.551656	40.760000
1070.662984	41.040000
1072.773807	40.900000
1074.880315	40.815000
1076.990131	39.265000
1079.095633	36.030000
1081.202538	38.095000
1083.303228	37.285000
1085.409130	38.010000
1087.510723	33.915000
1089.613719	35.805000
1091.716214	36.440000
1093.812503	35.510000
1095.913998	36.270000
1098.011191	36.370000
1100.107885	36.180000
1102.204082	35.745000
1104.299780	34.295000
1106.394981	39.690000
1108.487785	34.680000
1110.581991	34.760000
1112.670006	34.000000
1114.763219	34.075000
1116.850244	33.990000
1118.940569	35.365000
1121.026605	31.500000
1123.115939	34.975000
1125.199092	33.545000
1127.283648	34.660000
1129.369604	32.295000
1131.451279	36.930000
1133.534356	31.965000
1135.615047	37.190000
1137.695246	31.405000
1139.774954	32.675000
1141.854171	30.750000
1143.931006	32.940000
1146.005460	33.755000
1148.083206	32.995000
1150.156681	34.160000
1152.231557	32.340000
1154.302166	31.460000
1156.374177	32.175000
1158.443811	26.995000
1160.514846	30.175000
1162.585393	33.425000
1164.651679	30.885000
1166.719366	27.990000
1168.784681	29.165000
1170.851396	32.255000
1172.913855	33.690000
1174.979599	33.905000
1177.041090	32.865000
1179.103980	32.050000
1181.164503	31.505000
1183.224543	29.940000
1185.284099	30.970000
1187.341290	27.395000
1189.398000	32.005000
1191.452347	27.505000
1193.509974	30.155000
1195.565239	27.985000
1197.616263	31.515000
1199.668687	27.990000
1201.720631	31.995000
1203.770217	27.630000
1205.819324	29.545000
1207.867953	22.265000
1209.916103	25.380000
1211.963775	25.800000
1214.007216	27.850000
1216.053932	28.205000
1218.098296	27.360000
1220.142182	27.265000
1222.183718	31.480000
1224.222904	26.735000
1226.265362	29.800000
1228.303598	30.280000
1230.343233	25.200000
1232.382393	30.595000
1234.417335	26.065000
1236.453675	25.380000
1238.487670	26.210000
1240.523064	27.755000
1242.554244	28.170000
1244.586823	28.190000
1246.618929	30.490000
1248.648695	24.570000
1250.679859	30.485000
1252.706815	24.865000
1254.735169	26.190000
1256.759319	25.380000
1258.786733	26.025000
1260.809946	31.460000
1262.834555	28.860000
1264.856831	30.240000
1266.880504	27.975000
1268.901844	28.100000
1270.922716	26.195000
1272.943122	27.705000
1274.959333	27.185000
1276.976943	26.400000
1278.992224	28.035000
1281.010764	27.405000
1283.025114	25.555000
1285.037139	24.825000
1287.052421	26.470000
1289.063518	29.135000
1291.076012	24.545000
1293.084323	26.685000
1295.095890	28.545000
1297.101417	25.130000
1299.110200	26.460000
1301.114805	25.450000
1303.122664	26.870000
1305.130061	30.895000
1307.131427	28.310000
1309.134190	26.990000
1311.136492	24.675000
1313.138335	24.885000
1315.139718	24.695000
1317.138788	26.945000
1319.137399	26.955000
1321.135552	25.830000
1323.133247	25.560000
1325.126778	23.945000
1327.121706	28.145000
1329.116177	26.455000
1331.110191	26.865000
1333.101898	24.565000
1335.093149	27.370000
1337.082095	25.510000
1339.072436	24.260000
1341.062322	24.600000
1343.049905	28.065000
1345.037034	25.330000
1347.021861	27.910000
1349.008082	25.800000
1350.992004	27.180000
1352.975473	26.415000
1354.958490	26.730000
1356.939209	24.660000
1358.921322	28.235000
1360.901138	22.455000
1362.880504	24.620000
1364.855730	26.370000
1366.834196	27.975000
1368.810368	25.265000
1370.786090	24.015000
1372.761363	25.380000
1374.734345	26.970000
1376.706879	27.315000
1378.678966	27.975000
1380.650604	23.510000
1382.618114	27.985000
1384.590699	25.905000
1386.555477	30.615000
1388.525328	28.125000
1390.491054	29.730000
1392.458174	26.390000
1394.423009	30.920000
1396.383726	25.520000
1398.349510	29.460000
1400.309339	26.685000
1402.270561	27.640000
1404.233176	27.820000
1406.191676	25.770000
1408.149734	25.510000
1410.107349	24.760000
1412.064523	26.570000
1414.019421	28.865000
1415.975711	27.980000
1417.929727	29.705000
1419.883303	27.825000
1421.834606	27.405000
1423.787301	29.105000
1425.737725	24.850000
1427.687710	24.565000
1429.637255	24.345000
1431.584532	23.505000
1433.529542	27.825000
1435.475943	26.010000
1437.421908	26.295000
1439.367434	26.385000
1441.310696	23.230000
1443.253521	25.400000
1445.194083	24.320000
1447.136036	27.105000
1449.075728	22.585000
1451.014984	27.455000
1452.953805	27.680000
1454.890367	25.045000
1456.828320	28.045000
1458.764015	26.475000
1460.699276	25.755000
1462.632280	27.165000
1464.564852	25.125000
1466.496992	23.315000
1468.428700	24.685000
1470.358154	24.325000
1472.288999	25.730000
1474.219413	27.400000
1476.145753	26.560000
1478.073485	27.070000
1479.998966	29.390000
1481.924018	24.425000
1483.848641	26.750000
1485.772835	26.160000
1487.694782	25.795000
1489.618118	23.060000
1491.539209	28.225000
1493.458055	26.440000
1495.378291	30.385000
1497.296283	25.125000
1499.213849	29.070000
1501.129173	24.660000
1503.045887	28.930000
1504.958546	28.295000
1506.874409	28.790000
1508.788032	29.685000
1510.699418	32.610000
1512.612192	24.845000
1514.520917	23.515000
1516.431032	28.920000
1518.340723	26.215000
1520.249990	26.195000
1522.157024	26.530000
1524.061825	25.430000
1525.968015	25.520000
1527.871973	24.955000
1529.775511	25.800000
1531.678627	28.765000
1533.579515	28.755000
1535.481790	24.980000
1537.381838	27.675000
1539.283274	25.095000
1541.180675	26.110000
1543.077658	24.850000
1544.974223	25.545000
1546.872176	24.390000
1548.764294	26.660000
1550.659605	25.620000
1552.554499	29.125000
1554.447171	25.510000
1556.339427	24.580000
1558.229463	21.735000
1560.119083	25.330000
1562.008288	25.425000
1563.897077	28.120000
1565.783650	26.670000
1567.671609	27.105000
1569.555552	23.190000
1571.440883	25.490000
1573.325799	23.990000
1575.208503	24.270000
1577.092592	22.485000
1578.972671	29.600000
1580.854136	25.025000
1582.733391	24.180000
1584.614032	27.950000
1586.488869	23.860000
1588.368688	26.435000
1590.244501	24.370000
1592.119904	23.980000
1593.996694	28.545000
1595.867686	27.085000
1597.741860	26.900000
1599.612036	27.535000
1601.485392	24.630000
1603.356545	27.850000
1605.225496	23.275000
1607.095833	26.475000
1608.962176	27.660000
1610.829905	24.065000
1612.695436	24.710000
1614.562351	23.540000
1616.425278	28.150000
1618.289590	26.870000
1620.151706	24.990000
1622.013418	21.600000
1623.876514	25.945000
1625.737416	23.755000
1627.596124	23.945000
1629.454429	23.710000
1631.314119	26.650000
1633.168042	26.085000
1635.025137	23.930000
1636.881830	26.590000
1638.734547	25.600000
1640.590435	22.425000
1642.442348	23.845000
1644.293861	21.535000
1646.144973	26.830000
1647.995685	23.190000
1649.845996	26.680000
1651.694123	24.675000
1653.543633	27.655000
1655.387395	24.005000
1657.236107	24.445000
1659.079072	21.455000
1660.925203	29.240000
1662.767373	24.325000
1664.612707	25.935000
1666.452301	20.790000
1668.293279	23.495000
1670.135640	28.610000
1671.974045	26.565000
1673.813833	26.025000
1675.651446	22.680000
1677.488663	23.295000
1679.323707	24.245000
1681.160134	21.700000
1682.994389	25.345000
1684.828249	26.330000
1686.661716	21.595000
1688.491236	26.620000
1690.323915	26.005000
1692.152650	25.770000
1693.984543	26.985000
1695.812493	22.240000
1697.640051	26.210000
1699.467217	22.985000
1701.293992	25.225000
1703.120376	24.515000
1704.942823	21.730000
1706.768424	25.695000
1708.590091	28.420000
1710.413140	25.840000
1712.234028	22.045000
1714.054526	23.325000
1715.876406	28.070000
1717.692586	23.985000
1719.511918	23.420000
1721.327323	27.175000
1723.145878	22.900000
1724.960508	25.910000
1726.774752	30.055000
1728.588608	25.430000
1730.402078	25.575000
1732.213395	25.000000
1734.026093	24.395000
1735.838404	24.440000
1737.646798	26.650000
1739.456573	24.115000
1741.262432	21.995000
1743.071438	20.690000
1744.876530	23.465000
1746.683002	26.175000
1748.489091	22.515000
1750.291270	20.805000
1752.096592	25.190000
1753.898006	23.320000
1755.700800	26.690000
1757.499688	26.355000
1759.299957	23.735000
1761.099844	23.830000
1762.897590	23.435000
1764.694955	24.105000
1766.491939	22.760000
1768.288543	26.125000
1770.083008	23.785000
1771.878852	22.780000
1773.669042	23.645000
1775.464128	23.630000
1777.253561	28.540000
1779.046131	21.315000
1780.836566	25.395000
1782.624867	25.605000
1784.416303	23.760000
1786.202093	21.245000
1787.989263	24.785000
1789.774301	24.295000
1791.562473	24.665000
1793.346759	23.440000
1795.128916	27.285000
1796.912451	22.970000
1798.693858	25.845000
1800.476644	22.815000
1802.255550	23.300000
1804.035834	22.235000
1805.813992	23.110000
1807.593529	22.555000
1809.370941	29.280000
1811.146229	25.425000
1812.922896	27.780000
1814.697440	21.580000
1816.473361	29.530000
1818.243663	23.145000
1820.017091	23.425000
1821.788400	25.870000
1823.559339	28.195000
1825.331654	22.325000
1827.098357	25.560000
1828.868184	22.070000
1830.634148	28.010000
1832.403236	22.400000
1834.168462	24.660000
1835.933320	23.930000
1837.699554	25.045000
1839.461930	24.315000
1841.223939	26.260000
1842.985581	24.025000
1844.746855	24.865000
1846.507762	27.060000
1848.268303	25.485000
1850.026734	24.660000
1851.784800	24.325000
1853.540757	21.575000
1855.298092	20.155000
1857.055060	24.260000
1858.809923	28.615000
1860.562680	23.595000
1862.315074	24.180000
1864.068843	22.175000
1865.820509	24.020000
1867.570073	26.220000
1869.321013	27.075000
1871.071589	20.305000
1872.818327	26.710000
1874.566440	24.655000
1876.312454	24.385000
1878.059844	25.550000
1879.805135	22.650000
1881.548329	21.395000
1883.292899	24.570000
1885.035372	25.095000
1886.777485	23.410000
1888.519238	23.090000
1890.260632	22.645000
1891.999932	20.175000
1893.738873	23.465000
1895.477455	23.520000
1897.213945	24.900000
1898.950078	23.650000
1900.687585	22.400000
1902.421270	22.635000
1904.156330	30.455000
1905.889302	23.855000
1907.621917	23.130000
1909.354175	24.580000
1911.086077	23.190000
1912.815893	23.945000
1914.543625	25.450000
1916.272730	21.835000
1918.001481	23.755000
1919.728148	24.105000
1921.454461	25.440000
1923.182147	25.440000
1924.904297	22.055000
1926.629548	21.045000
1928.350993	25.740000
1930.075537	23.730000
1931.798002	29.165000
1933.516663	26.100000
1935.238423	23.755000
1936.956381	21.695000
1938.675713	24.160000
1940.391244	25.140000
1942.111597	22.770000
1943.828150	29.030000
1945.540908	27.075000
1947.256761	22.800000
1948.970541	21.845000
1950.683972	22.530000
1952.395332	26.640000
1954.108065	27.790000
1955.817006	28.420000
1957.529041	23.280000
1959.235566	26.595000
1960.945184	21.770000
1962.652734	24.400000
1964.359937	25.280000
1966.065074	27.330000
1967.769864	23.000000
1969.476026	25.160000
1971.178406	26.285000
1972.882158	24.395000
1974.583846	25.305000
1976.285190	24.840000
1977.986188	22.650000
1979.685126	22.705000
1981.385434	24.295000
1983.081968	26.005000
1984.779873	24.665000
1986.475720	24.685000
1988.174651	21.240000
1989.868097	28.170000
1991.562915	22.620000
1993.257389	25.170000
1994.948095	26.875000
1996.641885	24.865000
1998.331908	23.435000
2000.023302	26.660000
2001.712643	21.410000
2003.403354	23.280000
2005.090303	23.245000
2006.776911	25.020000
2008.464890	25.880000
2010.149109	21.455000
2011.834698	21.060000
2013.519948	27.325000
2015.203150	22.460000
2016.887721	26.760000
2018.566830	26.290000
2020.250724	24.905000
2021.929158	20.495000
2023.610668	23.850000
2025.288428	23.800000
2026.965850	25.645000
2028.644643	24.200000
2030.321392	26.640000
2031.996100	25.160000
2033.672177	24.115000
2035.346214	23.210000
2037.019915	22.825000
2038.693281	24.650000
2040.364609	25.495000
2042.035602	23.100000
2043.706261	22.410000
2045.376585	22.055000
2047.046576	26.610000
2048.714531	22.995000
2050.382153	22.985000
2052.047741	24.350000
2053.714697	24.040000
2055.379620	22.790000
2057.044210	28.975000
2058.706769	22.210000
2060.370696	25.020000
2062.032593	24.870000
2063.694158	23.390000
2065.355393	24.915000
2067.014598	27.740000
2068.673474	22.100000
2070.332019	23.795000
2071.990235	24.075000
2073.644727	25.835000
2075.302284	24.230000
2076.959512	24.455000
2078.613018	23.070000
2080.267892	23.480000
2081.919048	23.195000
2083.573265	27.470000
2085.223766	22.760000
2086.875633	22.010000
2088.522092	23.785000
2090.173306	26.315000
2091.820806	26.750000
2093.469673	25.155000
2095.116522	23.085000
2096.763044	24.340000
2098.409241	23.010000
2100.051730	26.740000
2101.697277	20.420000
2103.339117	25.290000
2104.984014	23.295000
2106.625206	22.460000
2108.266074	24.630000
2109.906619	23.465000
2111.545151	21.280000
2113.185049	24.020000
2114.821247	23.820000
2116.458811	21.800000
2118.096052	23.185000
2119.731284	23.870000
2121.366195	21.515000
2123.000784	24.845000
2124.635051	21.670000
2126.265626	26.125000
2127.899251	23.145000
2129.529185	25.020000
2131.160484	22.015000
2132.789779	26.990000
2134.418753	21.990000
2136.047409	23.325000
2137.675745	26.785000
2139.302078	22.480000
2140.928093	22.470000
2142.552107	22.950000
2144.177485	23.465000
2145.800864	20.380000
2147.425606	26.035000
2149.046668	19.420000
2150.667413	22.770000
2152.289523	22.070000
2153.909635	25.810000
2155.527750	25.440000
2157.145550	22.490000
2158.763035	23.530000
2160.380204	20.305000
2161.997058	24.080000
2163.613597	22.195000
2165.228142	23.170000
2166.840695	26.225000
2168.454612	25.565000
2170.066538	24.535000
2171.679827	23.310000
2173.291126	24.820000
2174.900435	21.790000
2176.511108	22.690000
2178.119792	23.655000
2179.728164	20.320000
2181.334548	21.550000
2182.942296	20.190000
2184.548057	20.755000
2186.153507	23.975000
2187.756973	24.925000
2189.361801	22.105000
2190.964645	21.420000
2192.565506	26.105000
2194.167730	23.930000
2195.767971	24.840000
2197.369575	20.850000
2198.967527	22.950000
2200.566841	23.405000
2202.164175	22.340000
2203.761201	23.710000
2205.359588	22.330000
2206.954327	25.095000
2208.547090	21.590000
2210.141214	25.895000
2211.736700	23.435000
2213.328542	24.975000
2214.920077	24.485000
2216.512973	18.550000
2218.100560	21.580000
2219.692844	24.465000
2221.279820	23.540000
2222.869825	26.435000
2224.454525	24.945000
2226.043919	23.415000
2227.628010	26.285000
2229.213463	23.105000
2230.796946	20.315000
2232.383456	24.405000
2233.966332	20.855000
2235.548904	22.695000
2237.131173	20.775000
2238.709813	22.980000
2240.291476	18.640000
2241.869511	20.675000
2243.450569	23.075000
2245.028001	22.790000
2246.603469	22.505000
2248.181958	25.885000
2249.756824	22.855000
2251.331389	22.465000
2252.905654	21.880000
2254.479618	21.780000
2256.053282	24.035000
2257.626645	23.545000
2259.196390	20.875000
2260.765836	21.735000
2262.338301	21.635000
2263.905490	20.340000
2265.475698	22.675000
2267.042291	23.960000
2268.610244	23.785000
2270.176242	20.890000
2271.741941	25.975000
2273.307344	26.745000
2274.870793	20.500000
2276.435600	25.000000
2277.996800	23.150000
2279.561014	31.055000
2281.119967	32.325000
2282.681933	31.340000
2284.241949	27.435000
2285.801669	24.130000
2287.359440	19.150000
2288.916917	20.805000
2290.474098	20.755000
2292.029333	21.815000
2293.584273	22.120000
2295.138920	23.910000
2296.693273	18.775000
2298.247332	25.205000
2299.801097	18.315000
2301.352919	25.025000
2302.902797	22.180000
2304.455683	25.675000
2306.003327	25.010000
2307.553978	21.650000
2309.101039	23.725000
2310.649457	23.095000
2312.197583	22.810000
2313.742122	23.335000
2315.288018	22.070000
2316.831975	24.960000
2318.377290	21.455000
2319.919020	22.085000
2321.462107	20.885000
2323.003259	22.250000
2324.544121	22.060000
2326.084694	20.905000
2327.624978	22.350000
2329.164973	22.805000
2330.701389	19.985000
2332.240807	24.445000
2333.776648	21.220000
2335.313845	23.660000
2336.847468	23.120000
2338.384090	23.110000
2339.918781	21.210000
2341.451543	22.350000
2342.984019	21.625000
2344.514566	23.635000
2346.048111	23.265000
2347.576445	17.730000
2349.106135	19.780000
2350.635540	22.380000
2352.164659	21.625000
2353.693494	20.055000
2355.217123	20.510000
2356.745389	21.685000
2358.268451	22.800000
2359.796147	27.030000
2361.317004	22.805000
2362.842494	23.455000
2364.364423	21.505000
2365.887708	25.915000
2367.409072	26.950000
2368.928516	25.745000
2370.449315	24.690000
2371.968195	22.550000
2373.486793	22.725000
2375.003474	24.510000
2376.521509	24.160000
2378.039263	22.775000
2379.553466	23.150000
2381.067388	22.925000
2382.581031	22.010000
2384.096027	21.365000
2385.607475	19.650000
2387.120278	24.825000
2388.631168	20.505000
2390.141778	24.100000
2391.650477	24.020000
2393.162163	22.480000
2394.670304	21.315000
2396.178168	22.705000
2397.685754	18.970000
2399.189799	28.110000
2400.696830	26.800000
2402.201952	25.150000
2403.706797	19.380000
2405.209735	21.030000
2406.712396	21.795000
2408.214781	21.950000
2409.715261	21.975000
2411.217094	26.500000
2412.717023	23.495000
2414.216676	22.765000
2415.716054	22.340000
2417.213528	21.875000
2418.709102	22.280000
2420.207655	22.475000
2421.702679	23.475000
2423.199057	22.280000
2424.691908	21.260000
2426.186111	21.805000
2427.680041	19.030000
2429.170448	19.995000
2430.663831	24.975000
2432.155317	23.065000
2433.644906	22.910000
2435.134223	22.210000
2436.621645	18.915000
2438.112042	21.400000
2439.598920	18.570000
2441.087150	20.800000
2442.571864	22.100000
2444.056307	21.635000
2445.542102	17.790000
2447.026004	21.870000
2448.511258	21.645000
2449.991378	22.050000
2451.474470	20.310000
2452.955672	21.075000
2454.436605	20.035000
2455.915649	25.830000
2457.394425	17.990000
2458.872931	20.990000
2460.351170	22.105000
2461.829140	25.615000
2463.303606	19.455000
2464.781040	22.935000
2466.254971	25.240000
2467.730253	21.435000
2469.205267	21.205000
2470.676780	21.610000
2472.149644	21.545000
2473.620624	19.995000
2475.092955	20.615000
2476.560173	20.375000
2478.030356	19.345000
2479.498659	20.570000
2480.966697	18.885000
2482.434470	19.980000
2483.901978	22.965000
2485.369221	23.380000
2486.832972	21.570000
2488.298074	23.220000
2489.761297	18.490000
2491.225871	21.945000
2492.686955	20.380000
2494.149389	20.185000
2495.611560	17.770000
2497.070245	22.020000
2498.533502	18.860000
2499.991662	22.430000
2501.451171	19.875000
2502.905587	20.480000
2504.364572	21.705000
2505.821686	21.800000
2507.276929	19.170000
2508.731911	19.360000
2510.185023	20.545000
2511.639484	22.585000
2513.092076	19.775000
2514.544408	19.595000
2515.994872	20.300000
2517.448292	22.075000
2518.896630	20.705000
2520.347924	18.115000
2521.797351	23.075000
2523.243307	20.275000
2524.692217	21.395000
2526.137656	21.645000
2527.584444	21.980000
2529.029368	19.700000
2530.474035	20.950000
2531.920049	23.000000
2533.362596	20.770000
2534.806491	22.270000
2536.246921	20.530000
2537.688699	20.705000
2539.128616	21.815000
2540.569881	21.875000
2542.007685	21.570000
2543.448438	18.385000
2544.884128	22.300000
2546.322768	22.650000
2547.759551	22.650000
2549.194477	22.980000
2550.632352	23.315000
2552.065169	21.785000
2553.499332	18.285000
2554.931642	18.530000
2556.365298	16.385000
2557.797101	20.770000
2559.228651	19.020000
2560.659947	23.255000
2562.089392	18.230000
2563.518584	17.800000
2564.945925	16.455000
2566.374613	24.440000
2567.803048	19.415000
2569.228036	23.005000
2570.654371	18.480000
2572.078857	22.015000
2573.504689	19.100000
2574.927077	19.120000
2576.350811	22.320000
2577.772699	21.750000
2579.194336	23.780000
2580.614128	24.170000
2582.035266	18.320000
2583.456154	20.355000
2584.873604	19.880000
2586.293993	22.035000
2587.710945	20.625000
2589.127649	17.985000
2590.544104	17.145000
2591.960311	24.800000
2593.376269	20.925000
2594.790387	24.430000
2596.204258	18.905000
2597.616289	20.880000
2599.029665	18.820000
2600.439611	23.820000
2601.852492	21.545000
2603.261946	21.750000
2604.671153	19.940000
2606.078524	17.510000
2607.488829	27.510000
2608.897298	22.560000
2610.303932	21.485000
2611.710321	19.180000
2613.114876	20.185000
2614.520775	23.165000
2615.924841	20.045000
2617.328663	22.145000
2618.732240	20.415000
2620.133985	18.915000
2621.537074	18.255000
2622.936746	19.595000
2624.337760	23.275000
2625.735359	19.415000
2627.135888	18.080000
2628.533002	22.725000
2629.931459	20.575000
2631.328088	21.655000
2632.724475	20.920000
2634.120621	18.970000
2635.514940	19.205000
2636.910602	21.085000
2638.302854	17.325000
2639.696450	22.020000
2641.088221	18.950000
2642.481334	20.010000
2643.872624	20.270000
2645.262091	24.150000
2646.651319	19.990000
2648.040306	20.040000
2649.430636	22.775000
2650.815981	15.270000
2652.204250	23.035000
2653.590699	20.310000
2654.976909	19.095000
2656.362881	20.660000
2657.745453	18.760000
2659.129368	20.090000
2660.513045	21.075000
2661.896484	19.485000
2663.276527	18.610000
2664.657912	20.275000
2666.037481	19.755000
2667.418392	17.845000
2668.797488	20.530000
2670.174769	22.115000
2671.553392	18.870000
2672.930202	22.695000
2674.306776	17.305000
2675.683114	20.050000
2677.057640	21.125000
2678.433507	15.980000
2679.805987	22.530000
2681.181384	22.950000
2682.551819	19.640000
2683.923596	22.335000
2685.295139	16.630000
2686.664873	20.115000
2688.035947	18.005000
2689.405214	20.155000
2690.774247	18.690000
2692.141473	19.665000
2693.508467	16.775000
2694.875228	18.760000
2696.241756	21.405000
2697.606479	21.245000
2698.970971	22.210000
2700.335230	20.100000
2701.699258	21.590000
2703.063053	20.005000
2704.423475	18.295000
2705.786808	21.130000
2707.145198	15.885000
2708.506498	20.505000
2709.864427	21.925000
2711.225266	24.615000
2712.584304	16.945000
2713.939974	21.685000
2715.298552	15.085000
2716.653764	20.135000
2718.008746	17.625000
2719.361931	17.165000
2720.718023	21.690000
2722.070751	21.340000
2723.423250	19.675000
2724.775521	18.290000
2726.129131	19.585000
2727.479379	20.000000
2728.827834	18.885000
2730.179193	19.425000
2731.527193	15.930000
2732.876532	19.555000
2734.224078	21.580000
2735.571397	21.470000
2736.918490	19.475000
2738.263792	19.460000
2739.608868	14.980000
2740.953718	17.300000
2742.298341	19.215000
2743.639613	20.890000
2744.982223	19.125000
2746.324607	16.870000
2747.666767	21.625000
2749.005577	17.600000
2750.347286	16.360000
2751.685648	15.975000
2753.025347	19.015000
2754.363260	20.580000
2755.699389	18.610000
2757.035295	19.455000
2758.372537	19.950000
2759.707996	20.070000
2761.043232	18.505000
2762.376686	21.100000
2763.711476	18.480000
2765.042925	13.830000
2766.377270	16.675000
2767.706717	20.280000
2769.037501	20.515000
2770.368063	18.635000
2771.696846	20.410000
2773.026966	21.480000
2774.355306	16.830000
2775.683426	20.905000
2777.009769	20.970000
2778.337447	16.995000
2779.661793	20.675000
2780.987474	16.700000
2782.311380	16.690000
2783.635067	18.770000
2784.960089	17.660000
2786.281782	19.500000
2787.603255	18.725000
2788.924510	14.770000
2790.245546	21.605000
2791.564810	17.040000
2792.885409	19.435000
2794.204236	19.955000
2795.522845	17.620000
2796.839684	18.160000
2798.156305	17.540000
2799.472708	16.300000
2800.787343	19.255000
2802.103312	19.305000
2803.415961	16.890000
2804.729946	16.705000
2806.043714	16.155000
2807.357265	17.945000
2808.669049	16.865000
2809.979068	17.270000
2811.290420	17.880000
2812.598458	21.735000
2813.907831	18.835000
2815.216988	16.240000
2816.525930	14.990000
2817.833109	24.600000
2819.138524	17.880000
2820.445274	20.335000
2821.750261	15.720000
2823.055035	21.850000
2824.358047	16.635000
2825.663941	20.995000
2826.964979	16.810000
2828.267352	19.560000
2829.567965	17.820000
2830.869912	17.975000
2832.171646	18.895000
2833.470075	18.250000
2834.769839	16.605000
2836.067844	21.715000
2837.365638	18.605000
2838.661676	20.735000
2839.959047	13.500000
2841.254662	13.970000
2842.550066	22.300000
2843.845260	20.560000
2845.137155	18.320000
2846.431927	15.755000
2847.723402	18.565000
2849.016211	17.185000
2850.308808	15.685000
2851.598112	15.500000
2852.888748	17.535000
2854.177633	19.145000
2855.467851	22.425000
2856.754777	17.945000
2858.043035	18.250000
2859.329543	16.695000
2860.615844	16.760000
2861.901936	19.150000
2863.186280	18.415000
2864.473496	23.470000
2865.755885	17.860000
2867.039605	16.780000
2868.321580	19.050000
2869.603348	18.675000
2870.883370	17.400000
2872.166262	16.950000
2873.447409	15.795000
2874.725274	20.365000
2876.006008	15.350000
2877.283461	13.675000
2878.560709	17.785000
2879.836214	17.595000
2881.114587	18.465000
2882.388145	20.600000
2883.664571	16.730000
2884.939256	17.660000
2886.212201	16.570000
2887.486476	18.270000
2888.759012	14.050000
2890.031344	18.470000
2891.300403	18.455000
2892.572326	17.940000
2893.842512	15.565000
2895.112495	17.435000
2896.382274	18.035000
2897.650316	20.705000
2898.916623	16.645000
2900.182727	17.970000
2901.450161	14.795000
2902.715861	14.975000
2903.981358	16.605000
2905.246653	17.950000
2906.508683	20.035000
2907.772044	19.295000
2909.035203	17.465000
2910.296629	19.865000
2911.559385	13.430000
2912.820410	16.735000
2914.079704	20.825000
2915.338797	16.030000
2916.597690	17.665000
2917.856383	19.510000
2919.114876	18.270000
2920.371640	15.290000
2921.628204	16.600000
2922.883041	17.670000
2924.139207	14.540000
2925.392117	20.030000
2926.646357	20.785000
2927.900398	15.255000
2929.152713	14.785000
2930.404830	15.630000
2931.655222	13.830000
2932.908469	17.675000
2934.156939	15.735000
2935.408263	17.140000
2936.656339	17.550000
2937.904217	16.950000
2939.151898	17.230000
2940.399383	22.750000
2941.645146	15.645000
2942.890712	18.920000
2944.137607	16.565000
2945.381256	14.655000
2946.626234	12.825000
2947.867969	18.235000
2949.112555	15.525000
2950.355421	18.950000
2951.595047	16.735000
2952.837524	17.210000
2954.076760	15.570000
2955.317324	14.545000
2956.556171	17.930000
2957.794824	15.655000
2959.031761	14.160000
2960.270025	13.550000
2961.506575	17.190000
2962.742930	20.480000
2963.979092	21.290000
2965.213541	19.685000
2966.447796	18.735000
2967.681858	15.730000
2968.914208	13.470000
2970.144846	14.480000
2971.378330	17.970000
2972.610102	15.300000
2973.840164	20.530000
2975.070034	18.700000
2976.298194	18.875000
2977.527680	16.815000
2978.755458	16.965000
2979.983044	13.475000
2981.211956	13.365000
2982.436126	18.520000
2983.663139	19.995000
2984.886929	17.555000
2986.112044	14.400000
2987.335453	13.570000
2988.558673	17.280000
2989.780187	17.540000
2991.004542	16.055000
2992.224162	16.075000
2993.445107	14.110000
2994.665864	16.220000
2995.884917	15.960000
2997.105296	16.515000
2998.322458	15.955000
2999.540945	18.070000
3000.757731	15.535000
3001.974328	15.910000
3003.190738	16.270000
3004.403934	16.635000
3005.619968	15.970000
3006.832790	14.080000
3008.048449	14.235000
3009.259385	14.145000
3010.471646	17.685000
3011.683721	20.300000
3012.895609	17.045000
3014.105799	17.955000
3015.315803	16.780000
3016.525622	18.940000
3017.733744	14.390000
3018.941680	20.355000
3020.147922	19.745000
3021.355487	16.035000
3022.561359	15.800000
3023.767045	15.565000
3024.972546	14.700000
3026.176355	18.060000
3027.381487	13.345000
3028.584926	16.765000
3029.786673	16.285000
3030.988237	15.590000
3032.189617	14.745000
3033.390813	16.760000
3034.590319	18.175000
3035.789641	16.145000
3036.990287	15.750000
3038.189244	13.055000
3039.385005	15.525000
3040.583596	16.990000
3041.778993	17.525000
3042.975713	17.275000
3044.169241	13.780000
3045.365598	16.105000
3046.560267	15.200000
3047.751746	19.675000
3048.947556	18.810000
3050.138673	16.260000
3051.331112	16.210000
3052.520364	17.290000
3053.712442	16.125000
3054.902835	15.625000
3056.090043	14.140000
3057.278574	19.685000
3058.468427	14.505000
3059.655095	17.555000
3060.841584	15.430000
3062.027893	15.490000
3063.215524	17.525000
3064.399974	14.080000
3065.582743	14.455000
3066.768336	16.950000
3067.952248	13.095000
3069.134482	15.220000
3070.316538	19.435000
3071.498415	13.010000
3072.680114	13.000000
3073.860135	16.725000
3075.038480	10.250000
3076.219646	13.530000
3077.397636	14.120000
3078.575449	15.020000
3079.753085	15.340000
3080.929046	17.595000
3082.104831	12.735000
3083.281936	14.540000
3084.457367	17.065000
3085.631125	19.055000
3086.803211	17.490000
3087.976617	18.945000
3089.149848	17.895000
3090.321406	18.050000
3091.494286	16.820000
3092.663998	17.875000
3093.835031	15.910000
3095.004393	16.215000
3096.172086	11.210000
3097.342594	17.135000
3098.508443	17.195000
3099.678602	15.200000
3100.844103	17.525000
3102.009431	13.550000
3103.174585	11.310000
3104.339565	14.510000
3105.505866	14.055000
3106.667513	14.595000
3107.830481	15.410000
3108.993275	15.210000
3110.155897	14.605000
3111.316854	15.310000
3112.477638	14.585000
3113.638250	13.800000
3114.797199	12.925000
3115.955975	13.230000
3117.114580	13.690000
3118.273013	16.060000
3119.431274	16.665000
3120.587873	17.275000
3121.742811	19.020000
3122.899068	13.525000
3124.053665	12.665000
3125.208090	19.700000
3126.360856	12.775000
3127.513452	17.975000
3128.665877	14.775000
3129.818133	16.065000
3130.970219	14.950000
3132.119158	16.855000
3133.270904	15.685000
3134.420993	14.095000
3135.569424	13.035000
3136.717687	18.940000
3137.865780	14.610000
3139.013705	14.145000
3140.159975	12.580000
3141.306076	15.295000
3142.450522	14.765000
3143.594801	15.125000
3144.738912	15.930000
3145.884341	14.265000
3147.026631	13.005000
3148.168753	14.680000
3149.310709	11.645000
3150.452497	14.850000
3151.594118	15.625000
3152.732603	13.790000
3153.872406	16.540000
3155.013527	14.130000
3156.151513	16.150000
3157.287850	16.840000
3158.424021	14.165000
3159.561510	13.415000
3160.697350	12.385000
3161.834506	16.175000
3162.967050	12.570000
3164.103876	17.700000
3165.236090	12.215000
3166.369622	11.845000
3167.502988	13.095000
3168.633227	14.315000
3169.766264	14.690000
3170.896175	12.180000
3172.027403	11.245000
3173.155505	14.410000
3174.286404	14.065000
3175.415660	16.535000
3176.543271	14.150000
3177.667761	15.285000
3178.796526	13.465000
3179.922169	13.565000
3181.047649	14.595000
3182.171488	15.040000
3183.298121	12.120000
3184.420157	14.815000
3185.543509	9.420000
3186.666699	13.080000
3187.789727	15.020000
3188.911115	7.835000
3190.032342	12.035000
3191.151930	16.285000
3192.271357	12.060000
3193.389146	14.570000
3194.509728	12.230000
3195.627195	16.035000
3196.744503	7.105000
3197.861649	15.930000
3198.977160	18.060000
3200.093986	14.700000
3201.207701	12.415000
3202.324207	14.440000
3203.439077	11.115000
3204.550839	12.215000
3205.662442	12.675000
3206.775359	14.835000
3207.888118	14.780000
3208.997770	13.400000
3210.108737	13.725000
3211.219545	15.610000
3212.328721	10.900000
3213.436266	14.395000
3214.545126	14.180000
3215.653827	14.445000
3216.759426	13.630000
3217.866340	13.745000
3218.971624	11.120000
3220.078222	14.005000
3221.181720	12.680000
3222.286532	15.430000
3223.391187	16.630000
3224.492743	13.315000
3225.594144	12.100000
3226.696858	11.140000
3227.799415	14.460000
3228.898877	14.340000
3230.001121	15.090000
3231.100271	13.360000
3232.197795	14.890000
3233.295164	17.135000
3234.395316	11.295000
3235.492374	11.530000
3236.589277	13.145000
3237.686026	15.450000
3238.778215	15.745000
3239.874654	14.955000
3240.969470	10.580000
3242.064131	15.425000
3243.157171	14.250000
3244.250057	14.455000
3245.341322	16.380000
3246.433900	12.990000
3247.524857	13.130000
3248.614196	14.865000
3249.703380	16.565000
3250.793878	13.220000
3251.881291	10.550000
3252.968552	16.550000
3254.057125	13.955000
3255.145545	13.760000
3256.229418	16.855000
3257.317533	16.075000
3258.402567	15.830000
3259.485985	18.370000
3260.570714	16.385000
3261.653829	16.545000
3262.738255	14.030000
3263.819603	15.030000
3264.902263	14.645000
3265.983309	15.150000
3267.064204	17.650000
3268.143486	12.045000
3269.222617	11.970000
3270.303059	15.110000
3271.380428	14.490000
3272.459108	13.135000
3273.536176	16.360000
3274.613094	13.740000
3275.688401	13.810000
3276.763559	14.075000
3277.840029	13.090000
3278.913427	14.250000
3279.986677	12.880000
3281.061238	15.370000
3282.134189	12.105000
3283.205533	13.565000
3284.278187	13.475000
3285.347774	13.715000
3286.418672	17.755000
3287.487963	12.515000
3288.558565	13.465000
3289.627560	11.090000
3290.694949	12.825000
3291.760733	14.680000
3292.830743	12.725000
3293.897690	15.080000
3294.961575	12.420000
3296.028228	15.025000
3297.093276	14.605000
3298.156722	12.670000
3299.220020	13.700000
3300.283173	15.505000
3301.346179	11.345000
3302.409038	12.060000
3303.470296	15.640000
3304.528497	14.430000
3305.590919	13.780000
3306.650284	15.695000
3307.709504	12.530000
3308.770034	12.130000
3309.826054	11.265000
3310.884839	14.330000
3311.939116	11.125000
3312.996156	11.545000
3314.051599	14.555000
3315.108350	14.835000
3316.163504	13.580000
3317.217060	10.355000
3318.269019	12.735000
3319.323740	14.840000
3320.375412	12.950000
3321.426941	14.880000
3322.479779	13.380000
3323.529569	9.050000
3324.580667	15.300000
3325.628720	13.320000
3326.679533	13.320000
3327.727300	14.465000
3328.774925	13.185000
3329.822407	15.235000
3330.868297	12.875000
3331.915495	14.580000
3332.959651	9.225000
3334.006565	14.950000
3335.051887	12.020000
3336.094169	16.790000
3337.136309	10.810000
3338.179757	18.230000
3339.223065	14.590000
3340.264782	7.610000
3341.306358	14.555000
3342.347794	17.050000
3343.387640	11.060000
3344.425899	13.095000
3345.465465	13.205000
3346.504890	17.770000
3347.542729	13.585000
3348.578980	11.270000
3349.615091	11.545000
3350.652510	12.925000
3351.686896	10.210000
3352.722589	15.375000
3353.758143	11.585000
3354.790666	10.315000
3355.825942	12.415000
3356.858187	13.525000
3357.890294	11.805000
3358.920817	14.335000
3359.952648	13.695000
3360.984339	15.420000
3362.013004	13.285000
3363.041530	9.650000
3364.071364	11.540000
3365.101059	10.530000
3366.127729	12.815000
3367.155706	12.900000
3368.180658	11.760000
3369.208360	15.300000
3370.233039	14.255000
3371.259024	12.265000
3372.283429	15.920000
3373.307698	12.920000
3374.330388	10.135000
3375.352942	12.130000
3376.376802	10.685000
3377.397642	11.205000
3378.418347	12.915000
3379.440357	15.360000
3380.459349	6.785000
3381.478206	16.590000
3382.498368	16.335000
3383.515514	14.015000
