-165.741099	0.155000
-163.071499	-1.025000
-160.404834	0.045000
-157.738921	2.250000
-155.075940	3.235000
-152.411530	5.900000
-149.750050	3.165000
-147.087140	-2.695000
-144.429338	5.090000
-141.770105	3.490000
-139.111621	-2.205000
-136.456062	2.335000
-133.799074	2.720000
-131.147183	2.395000
-128.493863	3.675000
-125.843463	2.025000
-123.191633	4.855000
-120.544894	-0.015000
-117.896725	0.930000
-115.249300	0.775000
-112.604788	4.780000
-109.958848	4.750000
-107.317989	4.970000
-104.675701	5.650000
-102.036321	-0.155000
-99.395513	3.600000
-96.755445	5.650000
-94.120449	0.850000
-91.484024	5.325000
-88.850503	5.925000
-86.215553	4.610000
-83.585668	3.700000
-80.952191	6.500000
-78.323776	10.080000
-75.696094	7.970000
-73.066985	10.485000
-70.442932	12.690000
-67.815290	9.630000
-65.192701	15.460000
-62.570843	22.335000
-59.949717	36.805000
-57.329320	94.135000
-54.711811	319.775000
-52.092874	1102.265000
-49.476823	3180.685000
-46.861500	5977.435000
-44.246904	3576.445000
-41.635191	357.955000
-39.022049	51.520000
-36.413941	28.710000
-33.802251	20.875000
-31.195592	15.240000
-28.587505	11.370000
-25.980142	14.000000
-23.377804	10.185000
-20.771888	9.305000
-18.170994	6.950000
-15.568671	8.630000
-12.971367	5.270000
-10.370487	8.125000
-7.774621	6.335000
-5.177328	5.260000
-2.580754	6.655000
0.010811	5.190000
2.603804	6.320000
5.193936	3.155000
7.785496	2.930000
10.374196	4.995000
12.964323	0.320000
15.549452	3.135000
18.136008	4.195000
20.721849	1.450000
23.304837	5.570000
25.889252	1.955000
28.466537	0.380000
31.047389	0.330000
33.625392	0.965000
36.202685	5.860000
38.781404	5.900000
41.355142	4.860000
43.930306	2.535000
46.502627	2.300000
49.074240	5.085000
51.643014	6.595000
54.213214	2.950000
56.780575	3.580000
59.349363	2.750000
61.915313	4.205000
64.478429	0.810000
67.045101	6.620000
69.602552	3.825000
72.165688	4.020000
74.723865	8.580000
77.285595	9.335000
79.842370	10.335000
82.400570	20.295000
84.953818	24.190000
87.506367	34.385000
90.062467	53.860000
92.613620	66.945000
95.164074	75.480000
97.713832	87.750000
100.260770	96.515000
102.807012	104.465000
105.354681	105.285000
107.901653	99.205000
110.443689	101.970000
112.985032	99.280000
115.525683	102.215000
118.067758	97.750000
120.607023	97.970000
123.143478	97.775000
125.679243	99.550000
128.216433	94.715000
130.752931	95.890000
133.286624	94.215000
135.817514	95.485000
138.347715	93.800000
140.879341	93.965000
143.408166	93.405000
145.934192	94.525000
148.459533	91.620000
150.986298	95.925000
153.510267	91.655000
156.033550	89.320000
158.556149	94.890000
161.075955	95.405000
163.595078	97.455000
166.113518	99.855000
168.633382	95.720000
171.146245	102.130000
173.662639	100.575000
176.178351	104.230000
178.689174	106.115000
181.201421	110.770000
183.710885	114.710000
186.219671	111.395000
188.727779	108.120000
191.237310	110.530000
193.741962	114.135000
196.245937	113.080000
198.751336	114.695000
201.251860	117.625000
203.755907	113.490000
206.252984	115.870000
208.753583	113.695000
211.251411	120.250000
213.748566	117.800000
216.245048	119.130000
218.736668	116.160000
221.231806	118.175000
223.724179	121.790000
226.215881	125.675000
228.704820	125.995000
231.195182	126.020000
233.682783	123.530000
236.167624	130.145000
238.655979	134.175000
241.137395	131.620000
243.622325	137.005000
246.102410	140.040000
248.586007	146.475000
251.064761	150.830000
253.544939	155.720000
256.022364	156.920000
258.499126	153.995000
260.975225	148.015000
263.448575	143.765000
265.921263	141.620000
268.393290	146.395000
270.864656	147.225000
273.333278	157.435000
275.801240	153.625000
278.270625	140.695000
280.735187	135.505000
283.203252	129.595000
285.666498	130.140000
288.129087	128.140000
290.591018	127.720000
293.052293	123.430000
295.510834	123.770000
297.970797	126.915000
300.428028	119.005000
302.884603	119.410000
305.340525	121.945000
307.793718	119.985000
310.248332	120.545000
312.698145	116.760000
315.151455	120.645000
317.599965	115.440000
320.047825	119.175000
322.497106	115.795000
324.941594	115.740000
327.387504	111.760000
329.832765	110.680000
332.275307	111.775000
334.717201	111.240000
337.158447	110.875000
339.596978	108.905000
342.036931	109.920000
344.474170	107.355000
346.908697	110.055000
349.346712	110.300000
351.779950	111.510000
354.214610	107.525000
356.644496	107.235000
359.077868	111.460000
361.506470	114.095000
363.934431	108.135000
366.363812	112.710000
368.788428	108.810000
371.214466	108.530000
373.639863	111.635000
376.064620	115.105000
378.484619	113.080000
380.906039	112.050000
383.324762	111.765000
385.744906	109.770000
388.162355	111.520000
390.581224	111.710000
392.997400	109.590000
395.408829	105.405000
397.823734	103.970000
400.235949	105.375000
402.647530	102.840000
405.058477	103.380000
407.466738	103.880000
409.874366	99.580000
412.281363	93.490000
414.687727	96.295000
417.091409	95.050000
419.494461	94.685000
421.896883	101.825000
424.298676	96.850000
426.697790	101.975000
429.098324	104.370000
431.498229	107.350000
433.893411	108.800000
436.292060	115.090000
438.685989	118.905000
441.079292	122.880000
443.471969	126.080000
445.864021	134.320000
448.257492	139.790000
450.646250	155.890000
453.032342	173.080000
455.419854	204.925000
457.806742	253.145000
460.190967	345.565000
462.576611	515.765000
464.959592	876.880000
467.339913	1637.420000
469.721653	3067.160000
472.100734	4457.540000
474.481234	4291.870000
476.859076	2785.195000
479.234263	1380.360000
481.608832	764.340000
483.984820	507.930000
486.358154	371.030000
488.732907	295.550000
491.102973	248.220000
493.472424	211.930000
495.843294	189.025000
498.209482	161.205000
500.577089	150.865000
502.942050	138.590000
505.306398	125.295000
507.670134	118.555000
510.035287	112.580000
512.395767	105.315000
514.757666	101.585000
517.116925	99.565000
519.473545	97.050000
521.833610	87.825000
524.186985	84.465000
526.543804	86.610000
528.897987	81.900000
531.251563	76.770000
533.604530	77.995000
535.954866	76.945000
538.306618	76.545000
540.651694	78.500000
543.002234	74.925000
545.346101	71.130000
547.695428	74.260000
550.040108	73.965000
552.382163	74.780000
554.725634	73.395000
557.066483	70.825000
559.406730	71.710000
561.744356	77.955000
564.085417	74.610000
566.421841	73.465000
568.759681	75.615000
571.094903	75.650000
573.427510	77.580000
575.761533	73.975000
578.092943	70.140000
580.423754	68.920000
582.753967	66.775000
585.083582	62.090000
587.408575	68.265000
589.739009	61.330000
592.064821	63.175000
594.388027	63.115000
596.712648	62.265000
599.034665	65.295000
601.356087	58.190000
603.674906	62.295000
605.995141	62.625000
608.314783	62.025000
610.631824	61.170000
612.948274	60.945000
615.262125	57.595000
617.577391	60.280000
619.890061	58.610000
622.204146	60.365000
624.513631	59.715000
626.824532	63.025000
629.132840	61.660000
631.440560	60.585000
633.749695	57.520000
636.054237	59.935000
638.358193	54.385000
640.661562	53.200000
642.966346	47.895000
645.266544	50.855000
647.568156	50.395000
649.869184	49.895000
652.165629	48.055000
654.463490	47.195000
656.760767	49.110000
659.057461	45.030000
661.349579	48.615000
663.645108	45.955000
665.936064	46.540000
668.228434	45.725000
670.518228	48.015000
672.807443	45.385000
675.096077	46.655000
677.382140	46.770000
679.669616	43.445000
681.954522	49.135000
684.238849	44.855000
686.520608	48.230000
688.803782	48.590000
691.086377	45.835000
693.364418	45.680000
695.643872	43.595000
697.922751	46.805000
700.201054	44.705000
702.474808	47.780000
704.749976	46.365000
707.024570	48.715000
709.296605	48.300000
711.570052	45.620000
713.840942	49.460000
716.109276	45.530000
718.379023	48.555000
720.646216	44.720000
722.912838	47.810000
725.178891	53.420000
727.442391	49.800000
729.707305	51.410000
731.971649	50.165000
734.231464	49.505000
736.492692	47.780000
738.753352	51.355000
741.011465	51.835000
743.267034	53.110000
745.525994	54.680000
747.778455	54.650000
750.036283	51.890000
752.289591	54.065000
754.540360	55.955000
756.792541	54.520000
759.042184	52.045000
761.293238	53.525000
763.539781	55.030000
765.787737	51.770000
768.033157	53.640000
770.279989	54.550000
772.526260	53.215000
774.768027	53.815000
777.013176	58.325000
779.251853	52.630000
781.493913	54.640000
783.731474	47.835000
785.970446	50.395000
788.206892	49.820000
790.444750	50.025000
792.680082	49.720000
794.912890	52.970000
797.147110	51.395000
799.378808	50.505000
801.609951	49.165000
803.840539	48.080000
806.070573	51.650000
808.300052	50.125000
810.525050	49.700000
812.753423	52.395000
814.977317	50.795000
817.202621	47.170000
819.423450	50.670000
821.647651	47.230000
823.867379	49.165000
826.088518	51.590000
828.309106	51.525000
830.527184	52.460000
832.746673	54.670000
834.961695	54.210000
837.176169	53.520000
839.390096	51.185000
841.603475	45.985000
843.816307	50.045000
846.028593	52.390000
848.238377	52.810000
850.447615	49.895000
852.656307	46.880000
854.862501	48.525000
857.070104	52.735000
859.275210	52.450000
861.479772	53.760000
863.681838	52.220000
865.885314	53.835000
868.086296	51.395000
870.286737	56.740000
872.488586	58.925000
874.684043	59.955000
876.882860	62.045000
879.077239	77.070000
881.274974	80.050000
883.468274	94.990000
885.662983	104.700000
887.855206	128.060000
890.046891	141.485000
892.238038	151.360000
894.426702	159.265000
896.614829	160.140000
898.800476	156.040000
900.989475	157.715000
903.174051	157.385000
905.358092	157.295000
907.545483	157.660000
909.724571	160.350000
911.907008	163.765000
914.088912	163.490000
916.268342	162.335000
918.445299	166.925000
920.623664	168.710000
922.803435	168.705000
924.976858	173.145000
927.153627	170.280000
929.325990	172.075000
931.499759	173.610000
933.669125	169.250000
935.841836	168.215000
938.012080	160.265000
940.181796	150.545000
942.350983	136.025000
944.515773	121.140000
946.683904	109.360000
948.847641	100.275000
951.012784	94.795000
953.175469	92.390000
955.337627	89.175000
957.497329	86.850000
959.656507	82.110000
961.817091	80.825000
963.975220	78.675000
966.132825	78.865000
968.289907	76.520000
970.446466	70.945000
972.598645	73.340000
974.752230	70.635000
976.905294	67.130000
979.055910	66.170000
981.207931	62.110000
983.355579	63.685000
985.506559	59.405000
987.653168	60.380000
989.799259	57.330000
991.944830	58.170000
994.091807	59.525000
996.232496	59.655000
998.376513	51.175000
1000.518090	53.685000
1002.659151	58.850000
1004.801616	53.670000
1006.937802	55.820000
1009.077314	54.245000
1011.212470	52.645000
1013.350951	55.130000
1015.485079	56.195000
1017.618692	52.235000
1019.753711	52.415000
1021.884380	54.380000
1024.016454	51.925000
1026.146099	51.915000
1028.275232	49.305000
1030.403853	49.630000
1032.531963	50.645000
1034.657647	46.765000
1036.782821	49.435000
1038.909399	50.750000
1041.031640	50.135000
1043.155284	44.990000
1045.274595	43.675000
1047.399134	43.845000
1049.517428	42.525000
1051.637127	43.930000
1053.754407	46.085000
1055.871181	40.930000
1057.987448	44.945000
1060.101300	45.005000
1062.216555	44.500000
1064.327488	41.755000
1066.441732	36.885000
1068.551656	39.260000
1070.662984	41.570000
1072.773807	40.365000
1074.880315	41.135000
1076.990131	40.350000
1079.095633	37.650000
1081.202538	38.475000
1083.303228	40.005000
1085.409130	38.600000
1087.510723	38.070000
1089.613719	37.310000
1091.716214	36.495000
1093.812503	38.155000
1095.913998	35.415000
1098.011191	35.530000
1100.107885	35.310000
1102.204082	38.650000
1104.299780	34.935000
1106.394981	36.605000
1108.487785	36.520000
1110.581991	35.685000
1112.670006	38.390000
1114.763219	33.445000
1116.850244	36.995000
1118.940569	37.285000
1121.026605	37.685000
1123.115939	35.725000
1125.199092	35.505000
1127.283648	34.585000
1129.369604	35.475000
1131.451279	39.945000
1133.534356	33.215000
1135.615047	35.440000
1137.695246	35.895000
1139.774954	32.970000
1141.854171	32.705000
1143.931006	35.270000
1146.005460	31.115000
1148.083206	34.260000
1150.156681	32.505000
1152.231557	31.890000
1154.302166	33.670000
1156.374177	30.965000
1158.443811	33.175000
1160.514846	34.280000
1162.585393	30.160000
1164.651679	33.990000
1166.719366	28.550000
1168.784681	35.075000
1170.851396	30.260000
1172.913855	31.235000
1174.979599	29.790000
1177.041090	30.125000
1179.103980	34.650000
1181.164503	31.630000
1183.224543	31.770000
1185.284099	30.260000
1187.341290	31.715000
1189.398000	31.420000
1191.452347	27.995000
1193.509974	28.760000
1195.565239	27.315000
1197.616263	28.530000
1199.668687	30.360000
1201.720631	31.255000
1203.770217	26.835000
1205.819324	32.085000
1207.867953	28.925000
1209.916103	27.270000
1211.963775	29.900000
1214.007216	33.280000
1216.053932	26.680000
1218.098296	29.670000
1220.142182	28.585000
1222.183718	29.370000
1224.222904	28.445000
1226.265362	30.395000
1228.303598	28.905000
1230.343233	27.885000
1232.382393	27.355000
1234.417335	25.275000
1236.453675	25.975000
1238.487670	27.810000
1240.523064	28.575000
1242.554244	24.480000
1244.586823	29.430000
1246.618929	26.935000
1248.648695	30.565000
1250.679859	26.420000
1252.706815	27.390000
1254.735169	28.730000
1256.759319	28.395000
1258.786733	25.810000
1260.809946	29.330000
1262.834555	28.965000
1264.856831	30.145000
1266.880504	29.625000
1268.901844	27.855000
1270.922716	25.825000
1272.943122	25.445000
1274.959333	27.365000
1276.976943	29.590000
1278.992224	26.625000
1281.010764	28.900000
1283.025114	24.740000
1285.037139	24.830000
1287.052421	27.540000
1289.063518	25.670000
1291.076012	23.845000
1293.084323	24.555000
1295.095890	24.395000
1297.101417	30.395000
1299.110200	29.440000
1301.114805	30.625000
1303.122664	27.405000
1305.130061	26.040000
1307.131427	31.425000
1309.134190	25.985000
1311.136492	29.090000
1313.138335	25.560000
1315.139718	26.105000
1317.138788	30.410000
1319.137399	28.095000
1321.135552	27.915000
1323.133247	24.935000
1325.126778	30.945000
1327.121706	24.795000
1329.116177	24.235000
1331.110191	24.315000
1333.101898	28.370000
1335.093149	25.010000
1337.082095	27.215000
1339.072436	29.050000
1341.062322	24.620000
1343.049905	27.370000
1345.037034	24.630000
1347.021861	24.015000
1349.008082	27.310000
1350.992004	31.275000
1352.975473	26.850000
1354.958490	28.705000
1356.939209	25.095000
1358.921322	24.165000
1360.901138	25.140000
1362.880504	26.260000
1364.855730	25.030000
1366.834196	26.090000
1368.810368	26.630000
1370.786090	27.735000
1372.761363	27.640000
1374.734345	26.315000
1376.706879	26.745000
1378.678966	23.630000
1380.650604	24.720000
1382.618114	30.445000
1384.590699	22.240000
1386.555477	30.770000
1388.525328	24.820000
1390.491054	23.990000
1392.458174	26.970000
1394.423009	24.160000
1396.383726	27.915000
1398.349510	26.890000
1400.309339	28.000000
1402.270561	26.190000
1404.233176	24.335000
1406.191676	29.860000
1408.149734	29.295000
1410.107349	26.355000
1412.064523	25.090000
1414.019421	30.140000
1415.975711	27.340000
1417.929727	27.930000
1419.883303	25.750000
1421.834606	25.575000
1423.787301	25.465000
1425.737725	23.905000
1427.687710	24.310000
1429.637255	24.725000
1431.584532	25.055000
1433.529542	28.005000
1435.475943	26.180000
1437.421908	21.935000
1439.367434	27.125000
1441.310696	26.535000
1443.253521	20.750000
1445.194083	26.060000
1447.136036	22.355000
1449.075728	27.685000
1451.014984	23.255000
1452.953805	23.535000
1454.890367	24.020000
1456.828320	25.420000
1458.764015	23.725000
1460.699276	22.805000
1462.632280	25.460000
1464.564852	25.890000
1466.496992	26.045000
1468.428700	23.350000
1470.358154	28.015000
1472.288999	25.025000
1474.219413	19.100000
1476.145753	24.350000
1478.073485	27.965000
1479.998966	26.155000
1481.924018	25.980000
1483.848641	26.830000
1485.772835	25.085000
1487.694782	25.060000
1489.618118	25.920000
1491.539209	24.610000
1493.458055	26.705000
1495.378291	24.795000
1497.296283	21.875000
1499.213849	27.770000
1501.129173	27.320000
1503.045887	29.420000
1504.958546	30.110000
1506.874409	30.410000
1508.788032	26.870000
1510.699418	28.505000
1512.612192	24.125000
1514.520917	31.265000
1516.431032	27.710000
1518.340723	28.830000
1520.249990	26.350000
1522.157024	25.340000
1524.061825	25.630000
1525.968015	25.610000
1527.871973	26.540000
1529.775511	27.055000
1531.678627	24.560000
1533.579515	26.360000
1535.481790	31.765000
1537.381838	26.190000
1539.283274	25.785000
1541.180675	26.440000
1543.077658	25.465000
1544.974223	25.880000
1546.872176	27.800000
1548.764294	29.355000
1550.659605	22.550000
1552.554499	26.110000
1554.447171	24.815000
1556.339427	23.970000
1558.229463	24.135000
1560.119083	21.570000
1562.008288	26.815000
1563.897077	25.395000
1565.783650	25.140000
1567.671609	24.895000
1569.555552	24.310000
1571.440883	24.310000
1573.325799	24.190000
1575.208503	21.765000
1577.092592	27.480000
1578.972671	29.235000
1580.854136	26.345000
1582.733391	24.840000
1584.614032	24.045000
1586.488869	27.640000
1588.368688	26.490000
1590.244501	25.525000
1592.119904	24.970000
1593.996694	25.895000
1595.867686	27.720000
1597.741860	23.485000
1599.612036	27.415000
1601.485392	24.900000
1603.356545	27.425000
1605.225496	24.965000
1607.095833	27.320000
1608.962176	25.525000
1610.829905	25.745000
1612.695436	25.325000
1614.562351	24.655000
1616.425278	21.190000
1618.289590	25.860000
1620.151706	27.230000
1622.013418	27.280000
1623.876514	27.935000
1625.737416	24.220000
1627.596124	25.660000
1629.454429	28.430000
1631.314119	26.535000
1633.168042	26.430000
1635.025137	26.970000
1636.881830	25.435000
1638.734547	24.260000
1640.590435	24.140000
1642.442348	24.455000
1644.293861	26.360000
1646.144973	21.955000
1647.995685	25.010000
1649.845996	23.905000
1651.694123	22.920000
1653.543633	24.110000
1655.387395	25.770000
1657.236107	22.290000
1659.079072	25.795000
1660.925203	22.430000
1662.767373	23.340000
1664.612707	22.370000
1666.452301	28.490000
1668.293279	23.655000
1670.135640	23.715000
1671.974045	23.450000
1673.813833	22.900000
1675.651446	24.165000
1677.488663	24.770000
1679.323707	26.195000
1681.160134	26.930000
1682.994389	21.975000
1684.828249	21.420000
1686.661716	27.100000
1688.491236	26.645000
1690.323915	28.970000
1692.152650	24.045000
1693.984543	27.345000
1695.812493	24.575000
1697.640051	26.435000
1699.467217	26.345000
1701.293992	25.435000
1703.120376	24.110000
1704.942823	24.910000
1706.768424	25.260000
1708.590091	29.010000
1710.413140	25.975000
1712.234028	23.575000
1714.054526	23.635000
1715.876406	28.485000
1717.692586	24.660000
1719.511918	27.660000
1721.327323	19.705000
1723.145878	23.110000
1724.960508	25.035000
1726.774752	24.005000
1728.588608	23.820000
1730.402078	24.835000
1732.213395	24.535000
1734.026093	21.575000
1735.838404	27.535000
1737.646798	26.725000
1739.456573	22.610000
1741.262432	22.545000
1743.071438	24.705000
1744.876530	25.940000
1746.683002	26.475000
1748.489091	22.085000
1750.291270	22.815000
1752.096592	24.000000
1753.898006	25.035000
1755.700800	28.265000
1757.499688	23.425000
1759.299957	26.890000
1761.099844	26.170000
1762.897590	25.845000
1764.694955	24.185000
1766.491939	24.045000
1768.288543	26.070000
1770.083008	22.225000
1771.878852	24.970000
1773.669042	26.540000
1775.464128	25.650000
1777.253561	26.295000
1779.046131	26.545000
1780.836566	25.075000
1782.624867	25.340000
1784.416303	23.745000
1786.202093	25.050000
1787.989263	20.125000
1789.774301	24.145000
1791.562473	24.110000
1793.346759	25.520000
1795.128916	20.765000
1796.912451	25.185000
1798.693858	26.080000
1800.476644	24.215000
1802.255550	21.365000
1804.035834	22.695000
1805.813992	22.790000
1807.593529	27.015000
1809.370941	26.815000
1811.146229	23.415000
1812.922896	23.385000
1814.697440	25.205000
1816.473361	21.630000
1818.243663	25.375000
1820.017091	26.620000
1821.788400	26.545000
1823.559339	24.235000
1825.331654	22.105000
1827.098357	22.770000
1828.868184	21.720000
1830.634148	19.775000
1832.403236	24.725000
1834.168462	25.725000
1835.933320	23.195000
1837.699554	27.045000
1839.461930	26.600000
1841.223939	21.575000
1842.985581	25.155000
1844.746855	26.770000
1846.507762	21.670000
1848.268303	24.525000
1850.026734	23.595000
1851.784800	23.785000
1853.540757	23.100000
1855.298092	24.930000
1857.055060	24.720000
1858.809923	22.580000
1860.562680	24.305000
1862.315074	25.105000
1864.068843	23.875000
1865.820509	24.040000
1867.570073	23.515000
1869.321013	22.635000
1871.071589	26.515000
1872.818327	22.920000
1874.566440	24.040000
1876.312454	24.225000
1878.059844	24.185000
1879.805135	25.765000
1881.548329	20.820000
1883.292899	24.875000
1885.035372	23.235000
1886.777485	23.305000
1888.519238	23.685000
1890.260632	28.140000
1891.999932	25.585000
1893.738873	25.650000
1895.477455	27.575000
1897.213945	24.445000
1898.950078	26.447500
1900.687585	28.450000
1902.421270	22.275000
1904.156330	25.030000
1905.889302	26.660000
1907.621917	27.345000
1909.354175	22.195000
1911.086077	26.870000
1912.815893	22.075000
1914.543625	22.605000
1916.272730	24.065000
1918.001481	24.150000
1919.728148	25.325000
1921.454461	28.245000
1923.182147	22.550000
1924.904297	23.320000
1926.629548	24.670000
1928.350993	23.850000
1930.075537	25.740000
1931.798002	24.160000
1933.516663	25.085000
1935.238423	27.525000
1936.956381	25.445000
1938.675713	27.090000
1940.391244	24.620000
1942.111597	20.420000
1943.828150	21.940000
1945.540908	25.035000
1947.256761	23.665000
1948.970541	22.245000
1950.683972	23.690000
1952.395332	24.055000
1954.108065	22.225000
1955.817006	23.280000
1957.529041	24.220000
1959.235566	26.085000
1960.945184	25.920000
1962.652734	24.200000
1964.359937	25.735000
1966.065074	21.055000
1967.769864	22.320000
1969.476026	24.425000
1971.178406	27.035000
1972.882158	22.400000
1974.583846	24.435000
1976.285190	27.580000
1977.986188	28.645000
1979.685126	25.150000
1981.385434	25.240000
1983.081968	27.580000
1984.779873	25.655000
1986.475720	24.180000
1988.174651	24.285000
1989.868097	24.705000
1991.562915	25.910000
1993.257389	23.595000
1994.948095	22.645000
1996.641885	23.195000
1998.331908	26.520000
2000.023302	24.095000
2001.712643	24.460000
2003.403354	24.440000
2005.090303	25.960000
2006.776911	22.745000
2008.464890	24.610000
2010.149109	27.475000
2011.834698	23.450000
2013.519948	25.760000
2015.203150	24.265000
2016.887721	26.210000
2018.566830	29.760000
2020.250724	23.320000
2021.929158	22.075000
2023.610668	25.745000
2025.288428	25.115000
2026.965850	21.835000
2028.644643	22.860000
2030.321392	22.735000
2031.996100	25.140000
2033.672177	22.540000
2035.346214	23.125000
2037.019915	26.315000
2038.693281	22.215000
2040.364609	26.805000
2042.035602	25.735000
2043.706261	25.700000
2045.376585	23.370000
2047.046576	24.930000
2048.714531	24.815000
2050.382153	23.095000
2052.047741	23.990000
2053.714697	20.425000
2055.379620	23.040000
2057.044210	22.200000
2058.706769	26.665000
2060.370696	19.320000
2062.032593	26.025000
2063.694158	26.145000
2065.355393	26.235000
2067.014598	23.705000
2068.673474	25.955000
2070.332019	26.855000
2071.990235	25.310000
2073.644727	22.230000
2075.302284	22.335000
2076.959512	23.665000
2078.613018	25.900000
2080.267892	23.410000
2081.919048	27.165000
2083.573265	25.970000
2085.223766	25.765000
2086.875633	24.360000
2088.522092	25.570000
2090.173306	26.005000
2091.820806	23.105000
2093.469673	24.655000
2095.116522	20.670000
2096.763044	25.845000
2098.409241	25.365000
2100.051730	22.525000
2101.697277	21.615000
2103.339117	22.305000
2104.984014	27.340000
2106.625206	23.365000
2108.266074	26.895000
2109.906619	27.140000
2111.545151	23.610000
2113.185049	26.540000
2114.821247	23.580000
2116.458811	20.810000
2118.096052	23.550000
2119.731284	23.305000
2121.366195	24.795000
2123.000784	22.570000
2124.635051	24.130000
2126.265626	22.245000
2127.899251	25.045000
2129.529185	25.420000
2131.160484	27.705000
2132.789779	21.955000
2134.418753	24.890000
2136.047409	25.890000
2137.675745	24.910000
2139.302078	21.685000
2140.928093	26.815000
2142.552107	25.645000
2144.177485	26.410000
2145.800864	25.705000
2147.425606	22.665000
2149.046668	20.970000
2150.667413	22.310000
2152.289523	23.705000
2153.909635	21.480000
2155.527750	22.420000
2157.145550	22.885000
2158.763035	23.025000
2160.380204	24.935000
2161.997058	24.125000
2163.613597	25.495000
2165.228142	28.635000
2166.840695	19.280000
2168.454612	23.835000
2170.066538	23.970000
2171.679827	24.490000
2173.291126	23.235000
2174.900435	24.520000
2176.511108	23.855000
2178.119792	21.520000
2179.728164	24.985000
2181.334548	25.715000
2182.942296	25.710000
2184.548057	23.065000
2186.153507	22.835000
2187.756973	24.075000
2189.361801	24.620000
2190.964645	22.035000
2192.565506	24.170000
2194.167730	24.590000
2195.767971	23.845000
2197.369575	25.265000
2198.967527	20.630000
2200.566841	26.395000
2202.164175	25.015000
2203.761201	24.555000
2205.359588	26.005000
2206.954327	23.215000
2208.547090	24.280000
2210.141214	24.875000
2211.736700	23.135000
2213.328542	21.960000
2214.920077	21.955000
2216.512973	20.415000
2218.100560	22.730000
2219.692844	25.055000
2221.279820	19.820000
2222.869825	20.950000
2224.454525	25.955000
2226.043919	22.875000
2227.628010	22.355000
2229.213463	24.305000
2230.796946	24.610000
2232.383456	23.530000
2233.966332	23.070000
2235.548904	20.555000
2237.131173	20.650000
2238.709813	21.420000
2240.291476	23.300000
2241.869511	25.235000
2243.450569	23.265000
2245.028001	22.672500
2246.603469	22.080000
2248.181958	22.345000
2249.756824	23.590000
2251.331389	26.455000
2252.905654	25.490000
2254.479618	21.905000
2256.053282	23.305000
2257.626645	20.785000
2259.196390	19.950000
2260.765836	23.430000
2262.338301	18.455000
2263.905490	24.655000
2265.475698	25.905000
2267.042291	21.760000
2268.610244	23.395000
2270.176242	19.550000
2271.741941	23.880000
2273.307344	21.125000
2274.870793	22.745000
2276.435600	24.630000
2277.996800	28.815000
2279.561014	31.580000
2281.119967	31.355000
2282.681933	29.065000
2284.241949	26.415000
2285.801669	21.110000
2287.359440	21.235000
2288.916917	25.710000
2290.474098	22.620000
2292.029333	23.070000
2293.584273	20.995000
2295.138920	22.780000
2296.693273	22.580000
2298.247332	23.920000
2299.801097	22.825000
2301.352919	21.810000
2302.902797	22.690000
2304.455683	23.110000
2306.003327	22.680000
2307.553978	22.725000
2309.101039	23.095000
2310.649457	27.565000
2312.197583	21.030000
2313.742122	22.480000
2315.288018	20.085000
2316.831975	20.065000
2318.377290	24.925000
2319.919020	22.550000
2321.462107	20.730000
2323.003259	23.100000
2324.544121	26.860000
2326.084694	19.780000
2327.624978	22.965000
2329.164973	22.355000
2330.701389	21.320000
2332.240807	20.830000
2333.776648	26.045000
2335.313845	23.765000
2336.847468	22.360000
2338.384090	20.940000
2339.918781	19.060000
2341.451543	21.770000
2342.984019	23.365000
2344.514566	17.540000
2346.048111	24.715000
2347.576445	22.440000
2349.106135	23.520000
2350.635540	20.270000
2352.164659	20.665000
2353.693494	25.650000
2355.217123	25.005000
2356.745389	22.220000
2358.268451	25.940000
2359.796147	22.935000
2361.317004	24.725000
2362.842494	20.780000
2364.364423	24.870000
2365.887708	27.330000
2367.409072	24.330000
2368.928516	24.060000
2370.449315	21.640000
2371.968195	19.720000
2373.486793	21.695000
2375.003474	21.485000
2376.521509	24.655000
2378.039263	21.205000
2379.553466	22.325000
2381.067388	20.880000
2382.581031	24.450000
2384.096027	21.820000
2385.607475	17.695000
2387.120278	23.425000
2388.631168	21.595000
2390.141778	22.290000
2391.650477	20.640000
2393.162163	22.395000
2394.670304	21.445000
2396.178168	23.345000
2397.685754	19.755000
2399.189799	21.590000
2400.696830	24.660000
2402.201952	23.385000
2403.706797	21.700000
2405.209735	17.675000
2406.712396	21.815000
2408.214781	21.610000
2409.715261	22.885000
2411.217094	21.275000
2412.717023	17.090000
2414.216676	21.540000
2415.716054	18.535000
2417.213528	21.600000
2418.709102	21.955000
2420.207655	21.050000
2421.702679	23.985000
2423.199057	19.390000
2424.691908	20.265000
2426.186111	20.345000
2427.680041	22.175000
2429.170448	18.190000
2430.663831	24.680000
2432.155317	22.440000
2433.644906	18.825000
2435.134223	17.975000
2436.621645	23.560000
2438.112042	20.580000
2439.598920	21.130000
2441.087150	25.025000
2442.571864	25.130000
2444.056307	21.435000
2445.542102	22.570000
2447.026004	21.490000
2448.511258	21.200000
2449.991378	20.565000
2451.474470	19.895000
2452.955672	21.550000
2454.436605	20.925000
2455.915649	22.980000
2457.394425	19.945000
2458.872931	21.635000
2460.351170	19.805000
2461.829140	22.440000
2463.303606	21.675000
2464.781040	23.650000
2466.254971	24.135000
2467.730253	19.270000
2469.205267	19.180000
2470.676780	22.680000
2472.149644	20.885000
2473.620624	17.920000
2475.092955	20.610000
2476.560173	22.100000
2478.030356	21.815000
2479.498659	24.385000
2480.966697	19.395000
2482.434470	21.710000
2483.901978	21.735000
2485.369221	20.385000
2486.832972	22.180000
2488.298074	21.490000
2489.761297	23.695000
2491.225871	20.845000
2492.686955	21.545000
2494.149389	22.380000
2495.611560	20.970000
2497.070245	18.540000
2498.533502	20.725000
2499.991662	23.790000
2501.451171	18.550000
2502.905587	23.990000
2504.364572	21.365000
2505.821686	25.495000
2507.276929	21.850000
2508.731911	18.110000
2510.185023	22.045000
2511.639484	20.600000
2513.092076	26.595000
2514.544408	19.380000
2515.994872	20.870000
2517.448292	23.875000
2518.896630	20.850000
2520.347924	20.400000
2521.797351	22.970000
2523.243307	18.190000
2524.692217	22.845000
2526.137656	24.600000
2527.584444	20.785000
2529.029368	20.780000
2530.474035	21.395000
2531.920049	21.175000
2533.362596	22.360000
2534.806491	18.850000
2536.246921	23.405000
2537.688699	22.410000
2539.128616	21.590000
2540.569881	21.040000
2542.007685	23.250000
2543.448438	24.225000
2544.884128	19.615000
2546.322768	24.030000
2547.759551	22.320000
2549.194477	20.875000
2550.632352	20.350000
2552.065169	20.725000
2553.499332	18.695000
2554.931642	23.645000
2556.365298	22.145000
2557.797101	20.165000
2559.228651	22.335000
2560.659947	21.730000
2562.089392	21.345000
2563.518584	20.705000
2564.945925	18.740000
2566.374613	16.640000
2567.803048	18.400000
2569.228036	19.955000
2570.654371	19.560000
2572.078857	22.780000
2573.504689	21.700000
2574.927077	22.560000
2576.350811	19.835000
2577.772699	23.905000
2579.194336	18.685000
2580.614128	20.755000
2582.035266	23.160000
2583.456154	19.250000
2584.873604	21.850000
2586.293993	20.170000
2587.710945	21.370000
2589.127649	17.365000
2590.544104	23.540000
2591.960311	20.140000
2593.376269	21.830000
2594.790387	22.835000
2596.204258	22.060000
2597.616289	23.060000
2599.029665	20.485000
2600.439611	17.320000
2601.852492	20.780000
2603.261946	24.915000
2604.671153	18.965000
2606.078524	21.795000
2607.488829	20.345000
2608.897298	22.080000
2610.303932	19.105000
2611.710321	22.185000
2613.114876	18.705000
2614.520775	20.680000
2615.924841	21.065000
2617.328663	18.665000
2618.732240	19.660000
2620.133985	19.470000
2621.537074	21.220000
2622.936746	21.305000
2624.337760	19.675000
2625.735359	18.600000
2627.135888	20.520000
2628.533002	20.245000
2629.931459	18.810000
2631.328088	20.145000
2632.724475	22.790000
2634.120621	19.045000
2635.514940	22.325000
2636.910602	22.640000
2638.302854	20.370000
2639.696450	20.060000
2641.088221	20.460000
2642.481334	24.395000
2643.872624	18.405000
2645.262091	19.060000
2646.651319	17.020000
2648.040306	21.085000
2649.430636	22.610000
2650.815981	20.570000
2652.204250	22.575000
2653.590699	22.890000
2654.976909	18.505000
2656.362881	22.455000
2657.745453	22.925000
2659.129368	22.035000
2660.513045	18.900000
2661.896484	20.600000
2663.276527	17.945000
2664.657912	22.510000
2666.037481	18.710000
2667.418392	21.535000
2668.797488	18.585000
2670.174769	19.740000
2671.553392	24.270000
2672.930202	20.270000
2674.306776	20.875000
2675.683114	21.055000
2677.057640	20.895000
2678.433507	18.845000
2679.805987	20.750000
2681.181384	19.045000
2682.551819	22.670000
2683.923596	19.525000
2685.295139	19.925000
2686.664873	19.355000
2688.035947	16.965000
2689.405214	18.375000
2690.774247	20.425000
2692.141473	21.400000
2693.508467	22.620000
2694.875228	18.435000
2696.241756	20.920000
2697.606479	22.635000
2698.970971	19.195000
2700.335230	23.215000
2701.699258	16.505000
2703.063053	23.150000
2704.423475	17.045000
2705.786808	21.750000
2707.145198	18.675000
2708.506498	14.945000
2709.864427	18.055000
2711.225266	20.845000
2712.584304	20.105000
2713.939974	16.810000
2715.298552	18.730000
2716.653764	18.450000
2718.008746	16.350000
2719.361931	19.485000
2720.718023	22.940000
2722.070751	20.780000
2723.423250	20.095000
2724.775521	17.525000
2726.129131	14.560000
2727.479379	17.420000
2728.827834	21.570000
2730.179193	19.800000
2731.527193	18.110000
2732.876532	20.760000
2734.224078	20.310000
2735.571397	17.500000
2736.918490	17.285000
2738.263792	21.305000
2739.608868	18.195000
2740.953718	18.635000
2742.298341	18.070000
2743.639613	18.840000
2744.982223	19.835000
2746.324607	16.690000
2747.666767	21.400000
2749.005577	18.330000
2750.347286	15.770000
2751.685648	19.095000
2753.025347	16.220000
2754.363260	20.650000
2755.699389	15.920000
2757.035295	18.190000
2758.372537	20.895000
2759.707996	19.185000
2761.043232	19.630000
2762.376686	20.945000
2763.711476	17.570000
2765.042925	21.905000
2766.377270	19.105000
2767.706717	17.970000
2769.037501	19.595000
2770.368063	17.075000
2771.696846	15.705000
2773.026966	21.850000
2774.355306	15.250000
2775.683426	18.555000
2777.009769	19.270000
2778.337447	17.770000
2779.661793	17.400000
2780.987474	19.780000
2782.311380	17.310000
2783.635067	20.445000
2784.960089	18.465000
2786.281782	18.465000
2787.603255	14.525000
2788.924510	16.740000
2790.245546	18.230000
2791.564810	13.875000
2792.885409	16.765000
2794.204236	16.000000
2795.522845	20.610000
2796.839684	18.185000
2798.156305	21.700000
2799.472708	18.205000
2800.787343	18.065000
2802.103312	19.260000
2803.415961	20.535000
2804.729946	15.585000
2806.043714	16.860000
2807.357265	14.335000
2808.669049	15.605000
2809.979068	16.805000
2811.290420	19.870000
2812.598458	17.000000
2813.907831	18.185000
2815.216988	17.160000
2816.525930	21.120000
2817.833109	18.480000
2819.138524	13.715000
2820.445274	15.525000
2821.750261	17.405000
2823.055035	14.455000
2824.358047	15.075000
2825.663941	14.695000
2826.964979	14.220000
2828.267352	14.650000
2829.567965	17.170000
2830.869912	14.445000
2832.171646	20.800000
2833.470075	18.385000
2834.769839	16.910000
2836.067844	18.005000
2837.365638	16.870000
2838.661676	19.510000
2839.959047	15.975000
2841.254662	14.500000
2842.550066	22.100000
2843.845260	19.045000
2845.137155	16.950000
2846.431927	16.910000
2847.723402	17.965000
2849.016211	20.510000
2850.308808	20.325000
2851.598112	19.175000
2852.888748	17.700000
2854.177633	16.385000
2855.467851	18.055000
2856.754777	15.140000
2858.043035	22.805000
2859.329543	17.550000
2860.615844	19.280000
2861.901936	18.410000
2863.186280	15.295000
2864.473496	19.710000
2865.755885	16.295000
2867.039605	17.415000
2868.321580	20.060000
2869.603348	18.615000
2870.883370	16.430000
2872.166262	20.285000
2873.447409	16.850000
2874.725274	14.925000
2876.006008	17.360000
2877.283461	18.585000
2878.560709	17.225000
2879.836214	20.175000
2881.114587	14.580000
2882.388145	15.455000
2883.664571	17.140000
2884.939256	15.125000
2886.212201	18.030000
2887.486476	16.880000
2888.759012	13.560000
2890.031344	16.150000
2891.300403	19.085000
2892.572326	19.435000
2893.842512	12.885000
2895.112495	14.685000
2896.382274	15.740000
2897.650316	19.025000
2898.916623	21.725000
2900.182727	18.590000
2901.450161	15.075000
2902.715861	15.280000
2903.981358	19.175000
2905.246653	18.270000
2906.508683	15.270000
2907.772044	17.470000
2909.035203	19.175000
2910.296629	14.385000
2911.559385	20.585000
2912.820410	16.580000
2914.079704	17.655000
2915.338797	19.435000
2916.597690	18.085000
2917.856383	15.985000
2919.114876	17.785000
2920.371640	15.110000
2921.628204	14.315000
2922.883041	16.605000
2924.139207	15.635000
2925.392117	18.355000
2926.646357	19.230000
2927.900398	16.245000
2929.152713	15.660000
2930.404830	17.510000
2931.655222	18.695000
2932.908469	13.130000
2934.156939	17.960000
2935.408263	15.080000
2936.656339	11.965000
2937.904217	15.680000
2939.151898	16.735000
2940.399383	16.030000
2941.645146	19.080000
2942.890712	19.585000
2944.137607	14.695000
2945.381256	14.725000
2946.626234	15.760000
2947.867969	17.540000
2949.112555	13.810000
2950.355421	14.275000
2951.595047	20.795000
2952.837524	12.245000
2954.076760	15.555000
2955.317324	16.755000
2956.556171	13.675000
2957.794824	17.635000
2959.031761	14.560000
2960.270025	19.955000
2961.506575	16.310000
2962.742930	15.320000
2963.979092	17.255000
2965.213541	14.475000
2966.447796	16.385000
2967.681858	15.140000
2968.914208	17.600000
2970.144846	19.305000
2971.378330	19.265000
2972.610102	13.320000
2973.840164	18.925000
2975.070034	21.870000
2976.298194	14.505000
2977.527680	13.010000
2978.755458	16.175000
2979.983044	18.700000
2981.211956	16.530000
2982.436126	15.835000
2983.663139	19.180000
2984.886929	15.345000
2986.112044	17.715000
2987.335453	16.815000
2988.558673	14.815000
2989.780187	18.695000
2991.004542	15.720000
2992.224162	15.460000
2993.445107	17.725000
2994.665864	15.710000
2995.884917	18.095000
2997.105296	13.455000
2998.322458	16.275000
2999.540945	15.515000
3000.757731	14.460000
3001.974328	13.310000
3003.190738	15.825000
3004.403934	16.650000
3005.619968	16.235000
3006.832790	11.400000
3008.048449	16.530000
3009.259385	18.365000
3010.471646	15.180000
3011.683721	14.950000
3012.895609	16.290000
3014.105799	15.500000
3015.315803	15.340000
3016.525622	16.745000
3017.733744	16.695000
3018.941680	17.820000
3020.147922	11.720000
3021.355487	17.485000
3022.561359	16.185000
3023.767045	14.885000
3024.972546	12.545000
3026.176355	14.435000
3027.381487	12.855000
3028.584926	15.850000
3029.786673	15.660000
3030.988237	14.835000
3032.189617	18.555000
3033.390813	17.010000
3034.590319	16.870000
3035.789641	15.435000
3036.990287	19.400000
3038.189244	15.655000
3039.385005	14.715000
3040.583596	17.465000
3041.778993	13.510000
3042.975713	18.130000
3044.169241	16.815000
3045.365598	16.915000
3046.560267	14.595000
3047.751746	16.415000
3048.947556	15.135000
3050.138673	17.030000
3051.331112	13.610000
3052.520364	14.855000
3053.712442	13.930000
3054.902835	17.030000
3056.090043	16.795000
3057.278574	14.365000
3058.468427	18.165000
3059.655095	15.095000
3060.841584	15.015000
3062.027893	19.045000
3063.215524	17.630000
3064.399974	16.840000
3065.582743	17.700000
3066.768336	15.020000
3067.952248	10.185000
3069.134482	12.500000
3070.316538	15.090000
3071.498415	16.860000
3072.680114	13.795000
3073.860135	15.575000
3075.038480	16.990000
3076.219646	18.080000
3077.397636	14.395000
3078.575449	10.675000
3079.753085	18.990000
3080.929046	17.095000
3082.104831	16.290000
3083.281936	16.080000
3084.457367	16.535000
3085.631125	14.365000
3086.803211	13.620000
3087.976617	18.495000
3089.149848	15.095000
3090.321406	13.470000
3091.494286	14.445000
3092.663998	14.475000
3093.835031	16.725000
3095.004393	14.225000
3096.172086	16.880000
3097.342594	15.430000
3098.508443	12.365000
3099.678602	15.690000
3100.844103	15.920000
3102.009431	13.440000
3103.174585	14.980000
3104.339565	13.280000
3105.505866	15.450000
3106.667513	16.805000
3107.830481	15.745000
3108.993275	14.015000
3110.155897	14.600000
3111.316854	12.070000
3112.477638	13.990000
3113.638250	13.955000
3114.797199	14.570000
3115.955975	16.045000
3117.114580	17.660000
3118.273013	17.825000
3119.431274	15.775000
3120.587873	11.615000
3121.742811	14.405000
3122.899068	11.660000
3124.053665	14.690000
3125.208090	14.275000
3126.360856	12.880000
3127.513452	9.630000
3128.665877	12.200000
3129.818133	11.075000
3130.970219	12.210000
3132.119158	17.490000
3133.270904	10.595000
3134.420993	14.760000
3135.569424	13.725000
3136.717687	13.240000
3137.865780	15.075000
3139.013705	12.930000
3140.159975	13.860000
3141.306076	16.740000
3142.450522	17.225000
3143.594801	12.700000
3144.738912	14.000000
3145.884341	14.600000
3147.026631	14.990000
3148.168753	15.080000
3149.310709	13.825000
3150.452497	14.945000
3151.594118	11.060000
3152.732603	16.735000
3153.872406	15.805000
3155.013527	14.320000
3156.151513	13.570000
3157.287850	12.735000
3158.424021	15.240000
3159.561510	12.625000
3160.697350	12.435000
3161.834506	13.230000
3162.967050	14.025000
3164.103876	16.410000
3165.236090	14.820000
3166.369622	13.550000
3167.502988	14.075000
3168.633227	11.055000
3169.766264	10.250000
3170.896175	17.700000
3172.027403	17.260000
3173.155505	13.975000
3174.286404	11.315000
3175.415660	12.310000
3176.543271	10.970000
3177.667761	11.855000
3178.796526	12.750000
3179.922169	10.245000
3181.047649	11.685000
3182.171488	17.895000
3183.298121	10.870000
3184.420157	15.280000
3185.543509	12.960000
3186.666699	11.975000
3187.789727	12.770000
3188.911115	13.960000
3190.032342	11.240000
3191.151930	13.850000
3192.271357	12.485000
3193.389146	12.000000
3194.509728	14.930000
3195.627195	15.690000
3196.744503	15.935000
3197.861649	14.260000
3198.977160	14.085000
3200.093986	10.965000
3201.207701	14.585000
3202.324207	11.385000
3203.439077	13.760000
3204.550839	14.070000
3205.662442	12.780000
3206.775359	15.240000
3207.888118	15.065000
3208.997770	11.710000
3210.108737	12.565000
3211.219545	11.730000
3212.328721	12.080000
3213.436266	10.555000
3214.545126	13.155000
3215.653827	13.995000
3216.759426	11.415000
3217.866340	11.695000
3218.971624	13.860000
3220.078222	11.140000
3221.181720	13.075000
3222.286532	13.885000
3223.391187	13.115000
3224.492743	14.525000
3225.594144	16.045000
3226.696858	9.095000
3227.799415	16.145000
3228.898877	15.760000
3230.001121	14.785000
3231.100271	14.275000
3232.197795	10.345000
3233.295164	10.565000
3234.395316	15.685000
3235.492374	12.940000
3236.589277	9.530000
3237.686026	16.235000
3238.778215	10.495000
3239.874654	13.400000
3240.969470	11.860000
3242.064131	12.565000
3243.157171	15.335000
3244.250057	15.330000
3245.341322	11.510000
3246.433900	15.700000
3247.524857	10.075000
3248.614196	14.145000
3249.703380	9.030000
3250.793878	13.635000
3251.881291	15.320000
3252.968552	16.230000
3254.057125	15.220000
3255.145545	13.795000
3256.229418	11.395000
3257.317533	14.865000
3258.402567	13.710000
3259.485985	15.970000
3260.570714	11.035000
3261.653829	11.485000
3262.738255	14.535000
3263.819603	11.665000
3264.902263	13.335000
3265.983309	12.555000
3267.064204	14.425000
3268.143486	13.125000
3269.222617	15.605000
3270.303059	15.450000
3271.380428	12.935000
3272.459108	14.780000
3273.536176	15.010000
3274.613094	16.085000
3275.688401	16.535000
3276.763559	12.875000
3277.840029	11.215000
3278.913427	14.480000
3279.986677	16.585000
3281.061238	13.030000
3282.134189	10.615000
3283.205533	14.000000
3284.278187	10.650000
3285.347774	11.480000
3286.418672	12.735000
3287.487963	12.385000
3288.558565	14.830000
3289.627560	12.415000
3290.694949	14.970000
3291.760733	13.045000
3292.830743	13.040000
3293.897690	12.350000
3294.961575	9.020000
3296.028228	15.040000
3297.093276	14.880000
3298.156722	12.095000
3299.220020	15.965000
3300.283173	13.800000
3301.346179	11.390000
3302.409038	13.620000
3303.470296	11.180000
3304.528497	11.710000
3305.590919	10.495000
3306.650284	17.690000
3307.709504	13.280000
3308.770034	10.340000
3309.826054	14.745000
3310.884839	12.680000
3311.939116	13.070000
3312.996156	12.095000
3314.051599	13.945000
3315.108350	13.530000
3316.163504	12.715000
3317.217060	16.405000
3318.269019	11.385000
3319.323740	17.075000
3320.375412	17.330000
3321.426941	15.020000
3322.479779	14.445000
3323.529569	13.985000
3324.580667	12.865000
3325.628720	8.190000
3326.679533	12.990000
3327.727300	11.795000
3328.774925	15.685000
3329.822407	16.085000
3330.868297	11.640000
3331.915495	12.660000
3332.959651	13.995000
3334.006565	14.075000
3335.051887	9.270000
3336.094169	14.385000
3337.136309	14.985000
3338.179757	12.425000
3339.223065	13.640000
3340.264782	12.955000
3341.306358	15.215000
3342.347794	8.065000
3343.387640	13.095000
3344.425899	12.280000
3345.465465	13.780000
3346.504890	10.550000
3347.542729	12.335000
3348.578980	12.000000
3349.615091	12.165000
3350.652510	10.325000
3351.686896	12.415000
3352.722589	11.470000
3353.758143	11.495000
3354.790666	12.570000
3355.825942	13.710000
3356.858187	13.220000
3357.890294	13.780000
3358.920817	10.365000
3359.952648	10.280000
3360.984339	13.710000
3362.013004	8.705000
3363.041530	18.255000
3364.071364	12.940000
3365.101059	14.340000
3366.127729	10.330000
3367.155706	13.910000
3368.180658	9.935000
3369.208360	12.740000
3370.233039	14.275000
3371.259024	13.715000
3372.283429	12.565000
3373.307698	17.365000
3374.330388	16.415000
3375.352942	9.250000
3376.376802	10.220000
3377.397642	11.550000
3378.418347	11.760000
3379.440357	13.320000
3380.459349	13.570000
3381.478206	15.080000
3382.498368	10.690000
3383.515514	9.705000
