-118.702670	19.000000
-116.033069	26.800000
-113.366404	0.600000
-110.700491	15.400000
-108.037511	-3.800000
-105.373100	-0.800000
-102.711620	-10.000000
-100.048711	7.000000
-97.390908	19.600000
-94.731676	15.800000
-92.073192	24.600000
-89.417633	9.200000
-86.760644	-0.600000
-84.108754	27.800000
-81.455434	10.200000
-78.805033	40.800000
-76.153204	0.200000
-73.506465	15.800000
-70.858296	6.000000
-68.210870	8.600000
-65.566359	33.000000
-62.920418	9.000000
-60.279559	9.400000
-57.637271	32.400000
-54.997892	25.400000
-52.357084	8.800000
-49.717015	27.400000
-47.082020	8.600000
-44.445595	7.800000
-41.812073	7.600000
-39.177123	26.800000
-36.547239	9.000000
-33.913761	13.600000
-31.285346	2.000000
-28.657665	5.600000
-26.028555	16.000000
-23.404503	2.600000
-20.776860	23.400000
-18.154272	32.400000
-15.532414	17.200000
-12.911287	37.200000
-10.290891	58.400000
-7.673382	176.000000
-5.054445	510.200000
-2.438394	1308.400000
0.176930	1671.800000
2.791525	980.000000
5.403239	142.600000
8.016381	39.800000
10.624489	12.400000
13.236178	14.200000
15.842837	22.200000
18.450925	8.600000
21.058287	18.000000
23.660625	17.600000
26.266542	6.800000
28.867436	30.200000
31.469758	-2.400000
34.067062	33.000000
36.667943	22.600000
39.263808	13.200000
41.861101	17.000000
44.457675	21.800000
47.049240	11.600000
49.642234	30.400000
52.232366	-1.000000
54.823925	37.200000
57.412626	22.600000
60.002753	30.600000
62.587881	20.600000
65.174437	23.200000
67.760278	26.800000
70.343266	42.000000
72.927681	-4.800000
75.504967	11.000000
78.085818	32.600000
80.663822	19.000000
83.241114	15.400000
85.819834	26.600000
88.393571	37.600000
90.968735	31.400000
93.541056	15.200000
96.112670	51.600000
98.681443	31.600000
101.251643	46.000000
103.819004	25.600000
106.387792	40.600000
108.953743	30.800000
111.516859	50.800000
114.083531	34.600000
116.640981	89.200000
119.204117	82.600000
121.762294	143.000000
124.324025	191.400000
126.880799	291.400000
129.438999	416.000000
131.992247	641.400000
134.544797	952.200000
137.100897	1295.400000
139.652049	1732.800000
142.202504	2154.000000
144.752261	2498.200000
147.299199	2698.000000
149.845442	2807.400000
152.393110	2925.200000
154.940082	2938.200000
157.482118	2922.000000
160.023462	2861.600000
162.564112	2871.000000
165.106187	2846.000000
167.645452	2912.800000
170.181907	2846.400000
172.717672	2887.600000
175.254862	2862.200000
177.791361	2847.200000
180.325054	2877.400000
182.855943	2797.600000
185.386144	2800.200000
187.917771	2798.400000
190.446596	2839.200000
192.972622	2886.200000
195.497962	2815.400000
198.024727	2848.600000
200.548696	2847.600000
203.071979	2756.800000
205.594578	2843.800000
208.114384	2821.400000
210.633507	2790.600000
213.151947	2713.800000
215.671812	2817.200000
218.184674	2809.600000
220.701068	2824.800000
223.216781	2846.400000
225.727603	2774.600000
228.239850	2901.200000
230.749314	2758.200000
233.258100	2868.400000
235.766208	2815.000000
238.275740	2833.800000
240.780391	2863.000000
243.284366	2819.000000
245.789765	2839.600000
248.290289	2875.600000
250.794336	2867.800000
253.291413	2922.600000
255.792012	2885.000000
258.289840	2874.200000
260.786995	2884.000000
263.283478	2873.400000
265.775097	2873.400000
268.270236	2899.600000
270.762608	2858.200000
273.254310	2866.600000
275.743249	2859.400000
278.233611	2930.400000
280.721212	2842.200000
283.206053	2853.200000
285.694409	2875.800000
288.175825	2884.600000
290.660755	2883.800000
293.140839	2934.400000
295.624436	2855.400000
298.103191	2883.600000
300.583368	2907.000000
303.060794	2897.400000
305.537556	2922.400000
308.013654	2918.600000
310.487004	2913.800000
312.959693	2845.200000
315.431720	2907.000000
317.903085	2906.800000
320.371707	2986.800000
322.839669	2962.400000
325.309054	3026.400000
327.773616	2924.000000
330.241682	2885.000000
332.704927	2900.200000
335.167516	2914.000000
337.629448	2888.600000
340.090723	2940.600000
342.549263	2919.600000
345.009226	2849.400000
347.466457	2840.600000
349.923033	2888.400000
352.378955	2810.200000
354.832147	2819.000000
357.286762	2816.000000
359.736575	2778.000000
362.189884	2758.000000
364.638394	2706.800000
367.086254	2735.600000
369.535536	2702.400000
371.980023	2709.800000
374.425933	2664.800000
376.871194	2663.000000
379.313736	2622.800000
381.755630	2625.600000
384.196876	2637.400000
386.635408	2550.600000
389.075360	2577.600000
391.512599	2526.800000
393.947127	2515.600000
396.385141	2490.800000
398.818380	2479.600000
401.253039	2408.400000
403.682926	2433.200000
406.116298	2437.600000
408.544900	2487.200000
410.972860	2378.400000
413.402241	2414.600000
415.826858	2415.000000
418.252895	2432.400000
420.678293	2413.200000
423.103050	2430.400000
425.523048	2433.400000
427.944468	2439.200000
430.363192	2409.400000
432.783335	2401.000000
435.200784	2435.600000
437.619654	2380.800000
440.035829	2394.200000
442.447258	2410.400000
444.862163	2365.800000
447.274378	2381.800000
449.685960	2380.000000
452.096907	2413.200000
454.505167	2316.400000
456.912796	2355.600000
459.319792	2385.600000
461.726157	2327.600000
464.129839	2402.400000
466.532891	2328.200000
468.935313	2379.400000
471.337105	2333.600000
473.736219	2309.400000
476.136753	2378.200000
478.536658	2333.400000
480.931841	2332.400000
483.330489	2305.800000
485.724418	2394.800000
488.117721	2314.400000
490.510399	2274.200000
492.902451	2321.600000
495.295921	2280.800000
497.684679	2297.400000
500.070771	2308.800000
502.458283	2268.000000
504.845172	2278.200000
507.229396	2301.800000
509.615040	2316.800000
511.998022	2271.200000
514.378342	2273.200000
516.760083	2231.200000
519.139164	2249.400000
521.519663	2279.000000
523.897506	2240.800000
526.272692	2262.400000
528.647261	2288.400000
531.023249	2248.200000
533.396584	2265.000000
535.771336	2268.400000
538.141402	2175.800000
540.510854	2164.400000
542.881723	2182.000000
545.247911	2148.000000
547.615518	2172.400000
549.980479	2164.000000
552.344828	2147.200000
554.708563	2090.400000
557.073716	2056.800000
559.434197	2057.400000
561.796095	2079.600000
564.155354	2042.200000
566.511974	1988.200000
568.872040	2018.800000
571.225414	1993.400000
573.582233	1949.800000
575.936417	1934.800000
578.289992	1903.000000
580.642960	1897.800000
582.993295	1908.600000
585.345048	1876.600000
587.690124	1854.000000
590.040663	1782.800000
592.384530	1789.800000
594.733858	1819.200000
597.078537	1792.200000
599.420592	1785.200000
601.764064	1803.200000
604.104913	1751.200000
606.445159	1742.400000
608.782785	1729.600000
611.123846	1720.600000
613.460270	1772.800000
615.798110	1772.600000
618.133333	1758.400000
620.465939	1748.400000
622.799963	1774.800000
625.131372	1786.800000
627.462183	1714.000000
629.792396	1720.400000
632.122012	1750.800000
634.447004	1711.400000
636.777438	1758.800000
639.103251	1760.200000
641.426456	1761.000000
643.751078	1758.800000
646.073094	1768.400000
648.394516	1795.000000
650.713335	1751.400000
653.033571	1772.800000
655.353212	1741.800000
657.670254	1781.600000
659.986703	1803.600000
662.300554	1789.800000
664.615821	1786.800000
666.928491	1827.800000
669.242576	1795.800000
671.552061	1812.800000
673.862962	1865.000000
676.171270	1831.600000
678.478989	1827.600000
680.788124	1860.800000
683.092666	1865.600000
685.396622	1900.600000
687.699991	1913.600000
690.004776	1975.000000
692.304973	1931.200000
694.606586	1963.600000
696.907613	1988.600000
699.204059	1964.000000
701.501920	1990.600000
703.799197	2012.000000
706.095891	1992.800000
708.388009	1999.400000
710.683538	2020.400000
712.974493	2050.800000
715.266863	2075.600000
717.556657	2091.800000
719.845872	2082.400000
722.134507	2092.400000
724.420569	2112.400000
726.708045	2104.600000
728.992951	2103.200000
731.277279	2099.800000
733.559038	2149.200000
735.842211	2121.800000
738.124807	2190.400000
740.402847	2159.000000
742.682301	2239.800000
744.961180	2237.200000
747.239484	2244.000000
749.513237	2237.600000
751.788405	2304.200000
754.062999	2281.000000
756.335034	2268.000000
758.608482	2283.200000
760.879372	2282.800000
763.147706	2328.000000
765.417453	2369.400000
767.684645	2309.000000
769.951268	2354.800000
772.217320	2371.200000
774.480821	2382.600000
776.745734	2381.000000
779.010079	2404.400000
781.269893	2440.600000
783.531121	2443.400000
785.791781	2462.200000
788.049895	2435.000000
790.305464	2479.400000
792.564423	2468.400000
794.816884	2521.600000
797.074712	2487.800000
799.328021	2509.400000
801.578790	2502.200000
803.830971	2510.600000
806.080613	2528.400000
808.331667	2497.800000
810.578210	2387.400000
812.826166	2538.400000
815.071586	2517.800000
817.318419	2508.200000
819.564689	2522.400000
821.806456	2488.600000
824.051605	2586.400000
826.290283	2552.600000
828.532342	2520.800000
830.769903	2576.800000
833.008876	2607.600000
835.245322	2634.200000
837.483179	2579.600000
839.718511	2594.000000
841.951320	2638.200000
844.185539	2670.600000
846.417237	2653.600000
848.648380	2685.800000
850.878968	2762.200000
853.109002	2755.600000
855.338481	2797.000000
857.563480	2846.000000
859.791852	2833.600000
862.015746	2864.400000
864.241051	2984.800000
866.461880	2951.600000
868.686081	3016.000000
870.905809	3031.200000
873.126947	3093.400000
875.347535	3146.600000
877.565614	3211.400000
879.785102	3228.400000
882.000124	3289.400000
884.214598	3277.400000
886.428525	3307.200000
888.641904	3339.600000
890.854737	3330.400000
893.067022	3432.200000
895.276806	3441.200000
897.486044	3377.200000
899.694737	3383.600000
901.900930	3352.000000
904.108533	3346.400000
906.313639	3314.200000
908.518201	3288.000000
910.720268	3313.800000
912.923744	3166.800000
915.124726	3187.600000
917.325166	3134.400000
919.527015	3052.400000
921.722473	2956.600000
923.921289	3026.200000
926.115668	2932.200000
928.313404	2861.400000
930.506704	2730.400000
932.701413	2760.800000
934.893635	2744.400000
937.085320	2655.800000
939.276467	2658.200000
941.465131	2573.800000
943.653259	2550.400000
945.838905	2553.600000
948.027905	2547.400000
950.212480	2594.800000
952.396521	2548.000000
954.583913	2523.400000
956.763000	2540.000000
958.945438	2551.000000
961.127342	2528.600000
963.306771	2533.600000
965.483728	2531.000000
967.662093	2564.800000
969.841865	2563.800000
972.015288	2509.000000
974.192057	2448.200000
976.364419	2557.200000
978.538189	2481.800000
980.707555	2432.200000
982.880265	2494.200000
985.050510	2439.800000
987.220225	2403.800000
989.389412	2393.000000
991.554202	2358.200000
993.722334	2345.800000
995.886070	2264.400000
998.051214	2238.800000
1000.213898	2208.000000
1002.376057	2238.800000
1004.535759	2237.600000
1006.694936	2143.400000
1008.855520	2204.400000
1011.013649	2122.400000
1013.171255	2124.800000
1015.328337	2063.800000
1017.484895	2048.600000
1019.637074	1984.000000
1021.790660	1979.800000
1023.943724	1990.200000
1026.094339	1919.200000
1028.246360	1923.600000
1030.394009	1975.000000
1032.544989	1931.600000
1034.691598	1898.400000
1036.837688	1926.400000
1038.983260	1894.400000
1041.130237	1908.000000
1043.270925	1857.400000
1045.414942	1849.000000
1047.556520	1781.800000
1049.697580	1831.600000
1051.840046	1813.600000
1053.976231	1852.600000
1056.115743	1832.800000
1058.250899	1801.200000
1060.389380	1813.400000
1062.523508	1793.400000
1064.657122	1793.400000
1066.792140	1742.400000
1068.922810	1798.000000
1071.054884	1744.000000
1073.184528	1757.600000
1075.313661	1737.800000
1077.442283	1718.000000
1079.570393	1706.000000
1081.696077	1726.000000
1083.821251	1749.400000
1085.947829	1679.200000
1088.070069	1679.600000
1090.193714	1609.400000
1092.313024	1633.800000
1094.437563	1578.200000
1096.555858	1589.800000
1098.675556	1587.800000
1100.792837	1584.000000
1102.909610	1552.000000
1105.025877	1504.800000
1107.139729	1460.400000
1109.254984	1488.600000
1111.365917	1528.600000
1113.480162	1459.400000
1115.590086	1419.400000
1117.701413	1409.000000
1119.812237	1407.200000
1121.918744	1382.200000
1124.028560	1397.600000
1126.134062	1395.200000
1128.240968	1367.000000
1130.341658	1335.000000
1132.447560	1358.400000
1134.549153	1337.200000
1136.652148	1330.800000
1138.754644	1297.000000
1140.850932	1248.600000
1142.952427	1241.600000
1145.049620	1269.600000
1147.146314	1254.200000
1149.242511	1230.600000
1151.338209	1239.000000
1153.433410	1208.000000
1155.526214	1191.000000
1157.620420	1203.400000
1159.708435	1220.200000
1161.801648	1168.000000
1163.888674	1170.000000
1165.978998	1178.600000
1168.065034	1189.600000
1170.154368	1149.800000
1172.237521	1130.400000
1174.322077	1142.000000
1176.408034	1128.600000
1178.489709	1115.600000
1180.572785	1131.000000
1182.653476	1127.400000
1184.733676	1090.600000
1186.813384	1099.400000
1188.892601	1122.000000
1190.969435	1071.800000
1193.043889	1045.600000
1195.121635	1095.000000
1197.195110	1103.000000
1199.269987	1052.600000
1201.340596	1070.400000
1203.412606	1090.800000
1205.482240	1097.400000
1207.553275	1082.600000
1209.623822	1059.000000
1211.690109	1058.800000
1213.757796	1062.400000
1215.823110	1084.200000
1217.889825	1068.600000
1219.952284	1053.200000
1222.018029	1044.400000
1224.079519	1063.200000
1226.142410	1051.400000
1228.202932	1048.000000
1230.262972	1043.400000
1232.322528	1044.800000
1234.379720	1045.000000
1236.436429	1029.200000
1238.490776	1055.800000
1240.548403	1021.800000
1242.603668	1034.400000
1244.654693	1011.000000
1246.707117	1055.000000
1248.759061	1026.200000
1250.808647	1029.200000
1252.857754	1046.200000
1254.906382	1045.000000
1256.954532	1035.400000
1259.002204	1020.600000
1261.045645	1033.200000
1263.092362	1049.400000
1265.136725	1014.800000
1267.180611	1037.000000
1269.222147	1030.200000
1271.261333	1041.000000
1273.303792	1070.400000
1275.342028	1031.400000
1277.381663	1033.400000
1279.420822	1029.800000
1281.455764	1043.000000
1283.492104	1009.000000
1285.526100	1031.200000
1287.561493	1047.200000
1289.592673	1009.600000
1291.625252	1020.000000
1293.657359	1042.200000
1295.687125	1023.800000
1297.718288	1049.200000
1299.745244	997.200000
1301.773599	1003.800000
1303.797748	1027.600000
1305.825163	1024.200000
1307.848375	1013.600000
1309.872985	1006.600000
1311.895260	1001.400000
1313.918933	1026.000000
1315.940273	1031.000000
1317.961146	1043.000000
1319.981551	1018.800000
1321.997763	1018.800000
1324.015372	986.600000
1326.030653	1033.600000
1328.049193	988.400000
1330.063543	1015.800000
1332.075568	1062.600000
1334.090851	1030.600000
1336.101948	1021.600000
1338.114441	1041.800000
1340.122752	1066.600000
1342.134319	1012.400000
1344.139847	1043.800000
1346.148630	1019.200000
1348.153235	1022.400000
1350.161094	1011.000000
1352.168491	1051.800000
1354.169857	1006.200000
1356.172619	1030.800000
1358.174922	1014.000000
1360.176765	1015.600000
1362.178148	1008.800000
1364.177217	1023.600000
1366.175828	1061.800000
1368.173981	1034.400000
1370.171676	1066.000000
1372.165208	999.600000
1374.160135	1038.400000
1376.154606	1038.600000
1378.148620	1033.400000
1380.140327	1017.000000
1382.131578	990.400000
1384.120524	1024.800000
1386.110865	1005.600000
1388.100752	998.400000
1390.088334	1020.200000
1392.075463	984.400000
1394.060290	996.400000
1396.046512	983.400000
1398.030433	1023.400000
1400.013902	1000.200000
1401.996919	1026.600000
1403.977638	1013.400000
1405.959751	1011.200000
1407.939567	1032.800000
1409.918933	1041.800000
1411.894160	1016.000000
1413.872625	1024.800000
1415.848797	1049.000000
1417.824519	956.800000
1419.799792	1038.600000
1421.772775	1042.600000
1423.745309	1022.200000
1425.717395	1005.000000
1427.689034	1004.600000
1429.656544	991.800000
1431.629128	1006.800000
1433.593906	998.200000
1435.563757	994.000000
1437.529483	1042.400000
1439.496603	1020.000000
1441.461439	985.000000
1443.422155	996.200000
1445.387939	998.400000
1447.347768	992.400000
1449.308991	1000.200000
1451.271605	984.600000
1453.230105	1011.600000
1455.188163	954.800000
1457.145779	996.000000
1459.102952	985.200000
1461.057850	964.800000
1463.014141	973.000000
1464.968157	971.600000
1466.921732	1011.000000
1468.873035	1005.200000
1470.825730	1002.400000
1472.776154	963.600000
1474.726139	1006.600000
1476.675685	1001.600000
1478.622962	999.400000
1480.567971	980.400000
1482.514373	987.800000
1484.460337	993.400000
1486.405864	1020.200000
1488.349125	973.200000
1490.291950	1023.400000
1492.232512	976.400000
1494.174466	1000.200000
1496.114157	977.200000
1498.053413	990.600000
1499.992235	960.600000
1501.928797	969.600000
1503.866750	1004.400000
1505.802444	977.800000
1507.737705	986.000000
1509.670709	1000.200000
1511.603281	1021.400000
1513.535421	1016.400000
1515.467129	1012.200000
1517.396584	1002.600000
1519.327429	982.800000
1521.257842	975.800000
1523.184183	974.200000
1525.111914	1019.000000
1527.037396	985.600000
1528.962448	983.800000
1530.887070	958.600000
1532.811264	977.200000
1534.733211	971.400000
1536.656548	954.200000
1538.577638	961.400000
1540.496484	954.200000
1542.416720	985.600000
1544.334712	946.000000
1546.252278	970.200000
1548.167603	974.800000
1550.084317	975.600000
1551.996975	1004.200000
1553.912838	980.000000
1555.826462	987.600000
1557.737847	979.200000
1559.650622	957.600000
1561.559347	965.600000
1563.469461	932.800000
1565.379152	958.400000
1567.288420	972.600000
1569.195453	925.000000
1571.100254	958.400000
1573.006444	944.000000
1574.910403	951.600000
1576.813940	958.400000
1578.717057	942.400000
1580.617944	941.400000
1582.520220	928.800000
1584.420267	960.600000
1586.321703	994.600000
1588.219104	936.400000
1590.116088	972.400000
1592.012653	932.000000
1593.910605	954.400000
1595.802723	966.000000
1597.698035	938.000000
1599.592928	981.000000
1601.485601	961.200000
1603.377856	944.000000
1605.267892	954.800000
1607.157512	938.800000
1609.046717	953.800000
1610.935506	965.400000
1612.822079	967.200000
1614.710039	925.800000
1616.593982	943.400000
1618.479312	946.800000
1620.364229	951.600000
1622.246932	953.400000
1624.131022	952.800000
1626.011100	921.400000
1627.892566	965.200000
1629.771820	970.400000
1631.652462	916.600000
1633.527299	939.800000
1635.407117	956.000000
1637.282930	933.200000
1639.158334	933.600000
1641.035123	938.200000
1642.906115	952.800000
1644.780290	932.000000
1646.650465	943.000000
1648.523821	958.000000
1650.394974	952.600000
1652.263925	951.800000
1654.134262	951.600000
1656.000606	919.200000
1657.868335	945.200000
1659.733865	918.400000
1661.600781	932.600000
1663.463707	948.400000
1665.328020	915.200000
1667.190136	939.000000
1669.051847	916.600000
1670.914943	903.600000
1672.775845	950.800000
1674.634554	917.000000
1676.492859	901.200000
1678.352548	917.800000
1680.206471	903.000000
1682.063567	929.800000
1683.920259	910.000000
1685.772976	907.600000
1687.628864	915.200000
1689.480778	883.600000
1691.332291	953.800000
1693.183403	933.200000
1695.034114	922.800000
1696.884425	916.200000
1698.732552	918.200000
1700.582063	904.800000
1702.425824	908.200000
1704.274536	911.200000
1706.117501	907.200000
1707.963632	912.800000
1709.805802	952.200000
1711.651137	892.400000
1713.490730	929.800000
1715.331709	923.600000
1717.174070	933.600000
1719.012474	915.800000
1720.852262	909.600000
1722.689875	886.200000
1724.527093	901.400000
1726.362137	897.000000
1728.198564	920.200000
1730.032818	868.800000
1731.866679	894.200000
1733.700145	899.200000
1735.529665	933.600000
1737.362345	876.000000
1739.191079	899.400000
1741.022972	865.600000
1742.850922	898.400000
1744.678480	882.600000
1746.505647	898.400000
1748.332422	906.200000
1750.158805	897.400000
1751.981252	904.800000
1753.806854	925.000000
1755.628520	889.000000
1757.451569	881.200000
1759.272457	903.200000
1761.092955	901.200000
1762.914835	883.000000
1764.731015	901.600000
1766.550347	917.400000
1768.365752	924.400000
1770.184308	863.000000
1771.998938	900.800000
1773.813181	886.200000
1775.627038	875.200000
1777.440508	888.200000
1779.251824	900.600000
1781.064522	920.000000
1782.876834	873.200000
1784.685227	884.800000
1786.495002	870.000000
1788.300861	860.200000
1790.109867	896.000000
1791.914959	917.600000
1793.721432	886.400000
1795.527520	878.400000
1797.329699	874.800000
1799.135021	875.000000
1800.936435	907.800000
1802.739230	905.400000
1804.538118	898.800000
1806.338387	888.600000
1808.138274	876.200000
1809.936019	877.400000
1811.733384	862.600000
1813.530368	898.200000
1815.326972	901.400000
1817.121437	875.000000
1818.917282	893.200000
1820.707471	881.200000
1822.502557	895.000000
1824.291990	873.800000
1826.084561	885.600000
1827.874996	849.400000
1829.663296	897.600000
1831.454732	898.000000
1833.240523	896.200000
1835.027692	884.000000
1836.812731	897.600000
1838.600902	858.200000
1840.385188	881.400000
1842.167345	886.600000
1843.950881	892.600000
1845.732288	875.200000
1847.515073	880.000000
1849.293979	865.400000
1851.074263	893.200000
1852.852422	848.000000
1854.631958	880.400000
1856.409370	857.200000
1858.184659	897.800000
1859.961325	868.600000
1861.735869	887.600000
1863.511790	897.800000
1865.282092	883.600000
1867.055521	867.200000
1868.826830	854.200000
1870.597768	844.800000
1872.370084	913.200000
1874.136786	883.600000
1875.906613	868.000000
1877.672577	868.000000
1879.441665	866.200000
1881.206891	890.200000
1882.971749	855.600000
1884.737983	870.600000
1886.500359	850.200000
1888.262368	835.600000
1890.024010	876.000000
1891.785284	859.200000
1893.546192	883.000000
1895.306732	857.600000
1897.065164	849.000000
1898.823229	840.600000
1900.579187	856.800000
1902.336521	854.000000
1904.093490	829.800000
1905.848352	829.200000
1907.601109	878.800000
1909.353503	868.000000
1911.107273	854.800000
1912.858939	863.000000
1914.608502	847.200000
1916.359442	836.400000
1918.110018	834.600000
1919.856756	857.400000
1921.604869	883.200000
1923.350883	845.200000
1925.098273	823.600000
1926.843564	859.200000
1928.586758	841.000000
1930.331328	880.200000
1932.073801	807.400000
1933.815914	839.200000
1935.557668	816.600000
1937.299061	820.000000
1939.038361	816.800000
1940.777302	844.200000
1942.515884	808.800000
1944.252375	880.400000
1945.988507	840.500000
1947.726015	800.600000
1949.459700	854.400000
1951.194760	842.600000
1952.927731	853.200000
1954.660346	844.400000
1956.392604	840.400000
1958.124506	856.200000
1959.854323	822.800000
1961.582054	873.800000
1963.311160	847.000000
1965.039910	827.600000
1966.766577	844.600000
1968.492890	839.800000
1970.220577	863.000000
1971.942727	839.400000
1973.667978	832.400000
1975.389422	841.800000
1977.113966	840.000000
1978.836431	784.000000
1980.555092	871.600000
1982.276852	853.200000
1983.994811	837.400000
1985.714142	848.600000
1987.429674	835.600000
1989.150026	827.000000
1990.866580	831.000000
1992.579337	805.200000
1994.295190	865.400000
1996.008971	824.200000
1997.722402	855.200000
1999.433762	833.400000
2001.146494	846.000000
2002.855435	825.600000
2004.567470	879.200000
2006.273995	864.000000
2007.983613	861.800000
2009.691163	840.400000
2011.398366	847.000000
2013.103503	826.800000
2014.808293	878.200000
2016.514456	838.000000
2018.216835	867.800000
2019.920587	852.400000
2021.622276	883.800000
2023.323619	830.200000
2025.024618	822.800000
2026.723555	830.400000
2028.423864	843.600000
2030.120397	841.600000
2031.818302	848.400000
2033.514149	861.600000
2035.213081	852.000000
2036.906527	830.400000
2038.601344	834.200000
2040.295818	828.000000
2041.986525	863.800000
2043.680314	828.000000
2045.370338	801.400000
2047.061731	838.800000
2048.751072	861.400000
2050.441784	825.400000
2052.128732	826.200000
2053.815340	849.400000
2055.503319	833.000000
2057.187538	801.400000
2058.873127	814.200000
2060.558377	855.200000
2062.241579	867.600000
2063.926151	816.600000
2065.605259	810.200000
2067.289154	830.400000
2068.967587	822.000000
2070.649098	813.200000
2072.326857	814.800000
2074.004280	828.000000
2075.683072	807.000000
2077.359821	785.600000
2079.034529	806.200000
2080.710607	789.800000
2082.384643	827.400000
2084.058345	785.400000
2085.731711	805.800000
2087.403038	813.600000
2089.074031	832.600000
2090.744690	805.200000
2092.415015	800.000000
2094.085006	819.200000
2095.752960	806.800000
2097.420582	815.800000
2099.086170	834.200000
2100.753126	842.800000
2102.418049	845.000000
2104.082640	782.800000
2105.745199	821.000000
2107.409126	843.800000
2109.071022	795.200000
2110.732587	838.000000
2112.393822	853.400000
2114.053027	834.400000
2115.711903	814.600000
2117.370448	774.800000
2119.028664	792.200000
2120.683157	821.600000
2122.340714	806.800000
2123.997941	825.000000
2125.651448	774.400000
2127.306322	814.600000
2128.957477	831.600000
2130.611695	837.400000
2132.262195	826.400000
2133.914063	794.200000
2135.560522	806.200000
2137.211735	815.200000
2138.859236	801.600000
2140.508103	789.000000
2142.154951	830.600000
2143.801474	784.400000
2145.447671	811.200000
2147.090159	782.200000
2148.735706	806.000000
2150.377546	768.800000
2152.022443	781.000000
2153.663635	783.000000
2155.304503	774.200000
2156.945048	764.600000
2158.583580	800.000000
2160.223478	800.400000
2161.859676	780.800000
2163.497240	762.600000
2165.134482	783.400000
2166.769714	794.600000
2168.404624	814.200000
2170.039213	789.800000
2171.673481	796.400000
2173.304055	794.000000
2174.937681	780.200000
2176.567614	784.800000
2178.198914	789.400000
2179.828208	763.600000
2181.457183	778.600000
2183.085838	794.800000
2184.714174	799.200000
2186.340507	771.600000
2187.966522	782.000000
2189.590536	765.000000
2191.215915	755.400000
2192.839293	796.800000
2194.464036	748.200000
2196.085098	763.000000
2197.705843	788.600000
2199.327952	771.000000
2200.948064	766.200000
2202.566180	772.600000
2204.183980	779.200000
2205.801464	757.600000
2207.418634	783.400000
2209.035487	747.400000
2210.652026	765.200000
2212.266571	777.600000
2213.879125	813.800000
2215.493042	777.800000
2217.104968	799.000000
2218.718257	733.400000
2220.329555	775.600000
2221.938865	756.200000
2223.549537	796.800000
2225.158221	752.600000
2226.766593	792.200000
2228.372978	774.000000
2229.980725	770.400000
2231.586487	775.600000
2233.191937	750.600000
2234.795402	766.000000
2236.400230	752.400000
2238.003074	792.000000
2239.603935	783.400000
2241.206159	763.000000
2242.806401	814.000000
2244.408005	769.000000
2246.005956	754.800000
2247.605270	762.600000
2249.202604	784.000000
2250.799630	769.400000
2252.398017	787.400000
2253.992757	780.000000
2255.585519	773.800000
2257.179644	722.800000
2258.775130	736.600000
2260.366971	760.600000
2261.958506	762.000000
2263.551402	753.200000
2265.138990	775.800000
2266.731273	783.800000
2268.318249	763.800000
2269.908254	769.200000
2271.492954	762.800000
2273.082348	759.400000
2274.666439	746.600000
2276.251892	739.400000
2277.835376	744.800000
2279.421885	756.400000
2281.004761	783.400000
2282.587334	733.000000
2284.169603	753.400000
2285.748242	771.000000
2287.329906	733.600000
2288.907941	748.000000
2290.488999	731.600000
2292.066430	735.100000
2293.641898	738.600000
2295.220388	732.800000
2296.795254	746.000000
2298.369819	743.400000
2299.944083	761.200000
2301.518047	747.800000
2303.091711	732.200000
2304.665075	749.800000
2306.234820	723.400000
2307.804266	757.600000
2309.376730	739.400000
2310.943920	709.800000
2312.514127	721.400000
2314.080721	730.200000
2315.648673	732.400000
2317.214671	732.600000
2318.780371	761.800000
2320.345773	755.600000
2321.909222	745.400000
2323.474030	748.600000
2325.035229	740.200000
2326.599443	729.400000
2328.158396	740.200000
2329.720362	722.400000
2331.280378	732.200000
2332.840098	726.800000
2334.397870	740.000000
2335.955346	711.800000
2337.512528	719.600000
2339.067762	709.000000
2340.622702	726.800000
2342.177349	740.600000
2343.731702	733.200000
2345.285761	774.400000
2346.839527	719.800000
2348.391348	716.800000
2349.941226	716.200000
2351.494113	755.200000
2353.041756	740.000000
2354.592407	711.600000
2356.139468	746.000000
2357.687886	736.800000
2359.236013	747.800000
2360.780551	730.000000
2362.326447	736.800000
2363.870404	703.800000
2365.415719	737.600000
2366.957449	713.800000
2368.500537	763.600000
2370.041688	739.200000
2371.582550	720.800000
2373.123123	731.800000
2374.663407	724.200000
2376.203402	719.800000
2377.739818	726.200000
2379.279236	704.000000
2380.815077	765.600000
2382.352275	764.800000
2383.885897	733.800000
2385.422519	673.000000
2386.957211	730.000000
2388.489972	739.000000
2390.022448	737.200000
2391.552995	706.800000
2393.086540	708.600000
2394.614874	718.000000
2396.144564	720.400000
2397.673969	693.200000
2399.203089	754.000000
2400.731923	712.200000
2402.255553	739.400000
2403.783818	739.600000
2405.306880	724.600000
2406.834577	725.400000
2408.355434	713.400000
2409.880923	719.400000
2411.402853	726.000000
2412.926137	725.400000
2414.447501	723.400000
2415.966945	720.200000
2417.487744	719.000000
2419.006624	669.800000
2420.525223	687.200000
2422.041903	684.000000
2423.559939	713.800000
2425.077693	732.400000
2426.591895	706.800000
2428.105818	710.000000
2429.619460	702.000000
2431.134456	717.800000
2432.645905	682.400000
2434.158707	707.400000
2435.669597	726.600000
2437.180208	701.600000
2438.688907	688.000000
2440.200592	714.800000
2441.708734	666.200000
2443.216598	680.400000
2444.724183	696.600000
2446.228229	666.400000
2447.735259	674.800000
2449.240381	709.000000
2450.745226	694.800000
2452.248164	715.200000
2453.750825	677.400000
2455.253211	685.400000
2456.753690	704.400000
2458.255524	696.000000
2459.755452	676.000000
2461.255105	647.400000
2462.754483	668.800000
2464.251958	668.200000
2465.747531	664.800000
2467.246084	676.600000
2468.741109	690.000000
2470.237486	663.200000
2471.730337	660.600000
2473.224541	705.000000
2474.718471	697.800000
2476.208877	692.400000
2477.702261	658.200000
2479.193747	691.000000
2480.683336	689.600000
2482.172653	658.400000
2483.660074	672.400000
2485.150471	679.600000
2486.637350	661.200000
2488.125580	678.600000
2489.610293	677.600000
2491.094736	657.400000
2492.580531	678.600000
2494.064434	651.000000
2495.549687	663.600000
2497.029807	661.000000
2498.512899	653.800000
2499.994102	661.400000
2501.475035	687.000000
2502.954078	676.800000
2504.432854	678.400000
2505.911361	657.400000
2507.389599	695.000000
2508.867570	613.000000
2510.342035	652.000000
2511.819470	675.200000
2513.293400	689.600000
2514.768682	647.000000
2516.243696	686.600000
2517.715209	680.400000
2519.188073	694.800000
2520.659054	672.200000
2522.131385	647.600000
2523.598602	693.000000
2525.068786	682.000000
2526.537089	700.600000
2528.005126	664.200000
2529.472899	662.400000
2530.940407	689.200000
2532.407651	660.600000
2533.871402	658.400000
2535.336503	695.800000
2536.799727	644.200000
2538.264300	675.600000
2539.725385	673.800000
2541.187819	667.400000
2542.649990	685.000000
2544.108674	661.800000
2545.571931	655.400000
2547.030091	672.600000
2548.489601	696.200000
2549.944016	675.600000
2551.403002	675.000000
2552.860116	693.200000
2554.315358	664.800000
2555.770340	691.400000
2557.223452	655.000000
2558.677913	679.000000
2560.130505	680.400000
2561.582837	648.400000
2563.033301	669.000000
2564.486722	683.200000
2565.935060	668.400000
2567.386353	674.200000
2568.835780	640.000000
2570.281736	682.000000
2571.730646	671.200000
2573.176085	672.400000
2574.622873	693.000000
2576.067797	650.800000
2577.512464	662.400000
2578.958478	684.000000
2580.401025	665.600000
2581.844920	671.400000
2583.285350	637.200000
2584.727128	633.000000
2586.167046	642.000000
2587.608311	648.400000
2589.046114	636.600000
2590.486867	677.000000
2591.922558	643.000000
2593.361197	667.400000
2594.797980	649.600000
2596.232907	652.800000
2597.670781	633.200000
2599.103598	633.200000
2600.537762	636.400000
2601.970071	650.400000
2603.403728	673.800000
2604.835530	660.800000
2606.267080	643.000000
2607.698376	649.200000
2609.127821	652.000000
2610.557013	638.200000
2611.984354	662.800000
2613.413042	652.600000
2614.841477	639.200000
2616.266466	623.400000
2617.692800	665.000000
2619.117287	655.200000
2620.543118	641.600000
2621.965507	670.200000
2623.389240	665.400000
2624.811128	637.200000
2626.232765	653.400000
2627.652558	639.400000
2629.073696	626.200000
2630.494584	609.600000
2631.912033	643.200000
2633.332422	636.400000
2634.749374	608.200000
2636.166078	647.200000
2637.582533	635.800000
2638.998740	643.000000
2640.414699	632.800000
2641.828817	624.400000
2643.242687	630.400000
2644.654718	619.800000
2646.068094	657.000000
2647.478040	652.600000
2648.890922	660.400000
2650.300375	632.400000
2651.709582	625.000000
2653.116953	613.200000
2654.527258	645.000000
2655.935727	621.200000
2657.342362	646.000000
2658.748750	622.000000
2660.153306	628.200000
2661.559205	627.400000
2662.963270	619.800000
2664.367092	630.600000
2665.770669	638.600000
2667.172415	604.000000
2668.575504	656.600000
2669.975175	636.000000
2671.376190	633.600000
2672.773789	642.600000
2674.174317	654.200000
2675.571431	633.800000
2676.969888	635.000000
2678.366517	622.200000
2679.762905	595.400000
2681.159050	659.000000
2682.553369	609.600000
2683.949031	604.000000
2685.341284	620.600000
2686.734879	607.400000
2688.126650	630.000000
2689.519764	594.600000
2690.911053	630.600000
2692.300521	633.800000
2693.689748	625.400000
2695.078735	640.000000
2696.469065	646.000000
2697.854411	575.000000
2699.242680	626.400000
2700.629129	624.600000
2702.015339	604.000000
2703.401310	583.200000
2704.783883	590.200000
2706.167798	611.800000
2707.551474	588.400000
2708.934913	571.200000
2710.314956	634.000000
2711.696341	624.800000
2713.075910	619.000000
2714.456821	633.800000
2715.835917	586.000000
2717.213199	592.600000
2718.591822	602.800000
2719.968631	620.800000
2721.345205	586.400000
2722.721543	568.200000
2724.096069	609.600000
2725.471936	619.400000
2726.844416	603.000000
2728.219813	618.400000
2729.590249	588.800000
2730.962025	632.600000
2732.333568	591.000000
2733.703302	614.000000
2735.074376	572.800000
2736.443643	605.800000
2737.812676	584.400000
2739.179903	609.400000
2740.546896	568.600000
2741.913657	570.800000
2743.280185	605.400000
2744.644909	599.000000
2746.009400	582.000000
2747.373659	583.200000
2748.737687	585.000000
2750.101482	600.000000
2751.461905	622.200000
2752.825237	582.600000
2754.183627	583.600000
2755.544927	612.600000
2756.902857	590.400000
2758.263695	601.200000
2759.622733	577.000000
2760.978403	605.200000
2762.336982	601.000000
2763.692193	602.400000
2765.047175	600.200000
2766.400360	590.800000
2767.756452	597.600000
2769.109180	579.000000
2770.461679	610.800000
2771.813951	594.800000
2773.167560	594.800000
2774.517808	569.600000
2775.866263	626.800000
2777.217622	571.800000
2778.565622	573.200000
2779.914961	594.400000
2781.262507	559.000000
2782.609827	601.600000
2783.956919	563.200000
2785.302221	584.800000
2786.647297	576.600000
2787.992147	576.800000
2789.336771	571.600000
2790.678043	550.800000
2792.020652	586.200000
2793.363037	581.800000
2794.705196	573.000000
2796.044006	546.200000
2797.385716	566.000000
2798.724077	564.000000
2800.063776	590.400000
2801.401689	573.600000
2802.737818	546.600000
2804.073724	575.600000
2805.410967	578.400000
2806.746425	549.400000
2808.081661	573.600000
2809.415115	563.600000
2810.749905	576.800000
2812.081354	575.200000
2813.415699	581.600000
2814.745146	555.000000
2816.075930	574.200000
2817.406492	576.800000
2818.735275	534.400000
2820.065395	559.400000
2821.393736	568.600000
2822.721855	553.800000
2824.048198	590.200000
2825.375876	570.800000
2826.700222	539.800000
2828.025904	541.800000
2829.349810	529.000000
2830.673496	550.800000
2831.998518	521.000000
2833.320211	565.600000
2834.641685	570.000000
2835.962939	551.200000
2837.283975	540.400000
2838.603239	571.600000
2839.923838	547.800000
2841.242665	549.600000
2842.561274	542.800000
2843.878113	545.000000
2845.194734	553.800000
2846.511138	524.400000
2847.825772	543.800000
2849.141741	543.600000
2850.454391	525.000000
2851.768375	539.000000
2853.082143	539.200000
2854.395694	560.200000
2855.707479	554.400000
2857.017497	538.400000
2858.328850	543.400000
2859.636888	514.600000
2860.946260	519.600000
2862.255417	543.000000
2863.564359	543.600000
2864.871538	557.000000
2866.176953	545.200000
2867.483703	550.400000
2868.788691	555.400000
2870.093464	566.000000
2871.396477	553.200000
2872.702370	570.400000
2874.003409	521.800000
2875.305781	538.400000
2876.606395	550.000000
2877.908341	570.200000
2879.210075	514.600000
2880.508505	553.600000
2881.808268	577.600000
2883.106274	516.000000
2884.404068	538.200000
2885.700105	536.400000
2886.997476	526.800000
2888.293092	533.800000
2889.588496	522.000000
2890.883689	557.200000
2892.175585	530.200000
2893.470356	549.800000
2894.761832	546.600000
2896.054640	544.400000
2897.347238	542.400000
2898.636541	526.400000
2899.927178	560.000000
2901.216063	517.800000
2902.506280	532.200000
2903.793206	526.800000
2905.081464	546.400000
2906.367973	544.000000
2907.654273	517.000000
2908.940365	511.200000
2910.224709	553.000000
2911.511925	524.600000
2912.794314	525.800000
2914.078035	529.600000
2915.360009	534.800000
2916.641777	557.200000
2917.921799	506.800000
2919.204691	498.800000
2920.485838	534.400000
2921.763703	520.600000
2923.044437	512.200000
2924.321890	518.200000
2925.599138	496.600000
2926.874643	505.000000
2928.153016	510.000000
2929.426575	526.600000
2930.703001	537.400000
2931.977685	507.200000
2933.250630	519.400000
2934.524906	526.200000
2935.797441	535.800000
2937.069773	499.600000
2938.338832	522.600000
2939.610756	504.400000
2940.880942	497.000000
2942.150924	505.400000
2943.420703	504.600000
2944.688746	512.600000
2945.955052	513.600000
2947.221156	502.400000
2948.488591	483.600000
2949.754290	551.800000
2951.019788	519.000000
2952.285083	509.000000
2953.547113	534.400000
2954.810473	507.600000
2956.073632	513.400000
2957.335058	496.800000
2958.597815	513.200000
2959.858839	523.600000
2961.118133	499.200000
2962.377226	506.400000
2963.636120	499.000000
2964.894812	521.000000
2966.153305	531.600000
2967.410069	477.000000
2968.666634	525.400000
2969.921470	488.000000
2971.177636	486.200000
2972.430547	525.600000
2973.684786	505.000000
2974.938827	496.600000
2976.191142	499.800000
2977.443259	523.000000
2978.693651	512.600000
2979.946898	481.000000
2981.195368	503.000000
2982.446693	507.800000
2983.694768	456.400000
2984.942646	500.000000
2986.190328	485.200000
2987.437812	487.800000
2988.683575	508.000000
2989.929141	500.000000
2991.176036	471.800000
2992.419686	471.800000
2993.664663	490.800000
2994.906398	500.800000
2996.150984	528.400000
2997.393851	512.800000
2998.633477	463.200000
2999.875953	500.600000
3001.115189	488.600000
3002.355753	503.600000
3003.594600	501.400000
3004.833253	466.800000
3006.070190	491.600000
3007.308455	496.400000
3008.545004	472.800000
3009.781360	489.600000
3011.017522	517.800000
3012.251970	483.400000
3013.486225	478.200000
3014.720287	473.000000
3015.952637	489.600000
3017.183275	489.200000
3018.416759	488.000000
3019.648532	521.000000
3020.878593	479.200000
3022.108463	489.400000
3023.336623	525.400000
3024.566110	473.600000
3025.793887	455.200000
3027.021473	485.000000
3028.250385	481.400000
3029.474555	466.400000
3030.701568	522.400000
3031.925358	511.000000
3033.150473	497.200000
3034.373883	489.000000
3035.597102	508.400000
3036.818616	467.200000
3038.042971	474.200000
3039.262591	470.600000
3040.483537	482.200000
3041.704293	498.000000
3042.923347	507.800000
3044.143725	504.200000
3045.360887	483.800000
3046.579374	495.000000
3047.796160	490.000000
3049.012757	483.400000
3050.229167	464.800000
3051.442363	470.400000
3052.658397	485.400000
3053.871219	478.000000
3055.086878	480.200000
3056.297814	478.800000
3057.510076	472.600000
3058.722150	479.600000
3059.934038	480.400000
3061.144229	480.200000
3062.354233	481.400000
3063.564051	475.600000
3064.772173	458.000000
3065.980110	478.200000
3067.186351	476.600000
3068.393917	449.800000
3069.599788	463.100000
3070.805474	476.400000
3072.010976	471.800000
3073.214784	453.600000
3074.419916	471.000000
3075.623355	442.400000
3076.825102	462.200000
3078.026666	455.200000
3079.228046	472.000000
3080.429242	490.000000
3081.628748	472.600000
3082.828071	463.400000
3084.028717	480.600000
3085.227673	463.000000
3086.423434	454.800000
3087.622025	482.800000
3088.817422	459.400000
3090.014143	494.400000
3091.207671	455.400000
3092.404027	470.000000
3093.598696	463.000000
3094.790175	441.000000
3095.985986	433.400000
3097.177102	436.200000
3098.369542	429.600000
3099.558793	438.800000
3100.750871	460.600000
3101.941265	462.200000
3103.128473	446.200000
3104.317003	445.400000
3105.506856	457.600000
3106.693524	464.600000
3107.880013	474.600000
3109.066323	440.600000
3110.253954	463.400000
3111.438403	442.000000
3112.621173	502.600000
3113.806765	455.400000
3114.990678	456.000000
3116.172911	476.400000
3117.354967	449.800000
3118.536844	464.200000
3119.718543	438.200000
3120.898565	439.600000
3122.076910	429.000000
3123.258075	450.000000
3124.436065	491.800000
3125.613878	458.600000
3126.791514	452.800000
3127.967475	452.200000
3129.143260	440.200000
3130.320365	420.400000
3131.495797	422.200000
3132.669555	467.600000
3133.841640	469.200000
3135.015046	447.800000
3136.188277	484.000000
3137.359836	429.000000
3138.532715	468.400000
3139.702427	469.200000
3140.873460	428.800000
3142.042822	438.600000
3143.210515	484.400000
3144.381023	470.200000
3145.546872	445.400000
3146.717031	443.800000
3147.882532	449.200000
3149.047860	435.000000
3150.213014	450.200000
3151.377995	444.400000
3152.544295	429.200000
3153.705942	474.800000
3154.868910	473.600000
3156.031705	454.000000
3157.194326	437.600000
3158.355283	441.400000
3159.516068	424.800000
3160.676680	443.600000
3161.835628	433.200000
3162.994405	441.400000
3164.153009	421.000000
3165.311442	449.600000
3166.469703	458.200000
3167.626303	431.000000
3168.781241	458.800000
3169.937498	443.000000
3171.092094	448.800000
3172.246520	444.200000
3173.399285	452.600000
3174.551881	405.600000
3175.704307	453.200000
3176.856562	456.000000
3178.008648	427.000000
3179.157587	408.600000
3180.309333	429.600000
3181.459422	437.600000
3182.607853	424.400000
3183.756116	395.800000
3184.904210	426.800000
3186.052135	426.400000
3187.198404	411.000000
3188.344505	470.600000
3189.488952	441.800000
3190.633230	453.200000
3191.777341	451.200000
3192.922770	444.800000
3194.065060	437.200000
3195.207182	446.400000
3196.349138	433.000000
3197.490926	369.800000
3198.632547	447.200000
3199.771033	422.400000
3200.910836	449.400000
3202.051956	420.200000
3203.189943	441.800000
3204.326279	411.800000
3205.462451	436.000000
3206.599939	463.000000
3207.735779	392.200000
3208.872936	409.400000
3210.005480	424.800000
3211.142305	416.400000
3212.274520	441.600000
3213.408051	412.200000
3214.541417	381.000000
3215.671657	439.400000
3216.804694	405.000000
3217.934605	401.400000
3219.065832	418.800000
3220.193934	431.600000
3221.324834	416.600000
3222.454089	395.400000
3223.581701	389.200000
3224.706190	429.000000
3225.834955	429.600000
3226.960598	413.800000
3228.086078	407.800000
3229.209917	421.200000
3230.336551	429.400000
3231.458587	433.200000
3232.581939	421.200000
3233.705128	381.400000
3234.828156	403.000000
3235.949544	419.400000
3237.070771	385.000000
3238.190359	431.800000
3239.309786	382.600000
3240.427576	431.400000
3241.548157	383.600000
3242.665625	418.400000
3243.782932	442.600000
3244.900079	403.400000
3246.015589	425.200000
3247.132415	425.800000
3248.246130	390.000000
3249.362636	440.400000
3250.477506	379.800000
3251.589268	432.600000
3252.700871	374.400000
3253.813789	432.000000
3254.926547	418.800000
3256.036199	410.200000
3257.147166	412.400000
3258.257974	398.400000
3259.367150	418.200000
3260.474695	380.600000
3261.583555	415.600000
3262.692256	430.000000
3263.797855	397.200000
3264.904769	419.600000
3266.010053	432.200000
3267.116651	412.200000
3268.220149	464.000000
3269.324961	417.400000
3270.429616	430.800000
3271.531173	400.800000
3272.632573	422.600000
3273.735287	424.800000
3274.837845	424.000000
3275.937306	414.600000
3277.039551	450.800000
3278.138700	416.600000
3279.236224	414.200000
3280.333594	406.200000
3281.433745	387.600000
3282.530804	442.800000
3283.627707	420.400000
3284.724455	397.000000
3285.816644	406.400000
3286.913083	392.600000
3288.007899	395.000000
3289.102560	402.800000
3290.195600	418.600000
3291.288486	412.600000
3292.379751	412.000000
3293.472329	396.400000
3294.563287	357.800000
3295.652625	432.800000
3296.741810	403.200000
3297.832307	384.000000
3298.919721	394.400000
3300.006981	399.200000
3301.095554	364.400000
3302.183974	438.200000
3303.267848	403.600000
3304.355963	397.800000
3305.440996	414.200000
3306.524414	382.600000
3307.609144	427.400000
3308.692258	421.800000
3309.776684	404.000000
3310.858033	385.400000
3311.940693	392.400000
3313.021738	397.600000
3314.102633	397.600000
3315.181915	392.800000
3316.261046	375.600000
3317.341489	380.200000
3318.418857	392.800000
3319.497537	395.600000
3320.574605	430.800000
3321.651523	384.600000
3322.726831	386.800000
3323.801989	401.600000
3324.878458	414.800000
3325.951857	398.200000
3327.025106	402.400000
3328.099667	392.200000
3329.172619	407.200000
3330.243962	402.600000
3331.316616	388.800000
3332.386203	375.600000
3333.457101	407.400000
3334.526393	399.200000
3335.596994	373.800000
3336.665989	366.000000
3337.733379	398.600000
3338.799163	368.800000
3339.869173	390.400000
3340.936120	407.800000
3342.000005	399.600000
3343.066657	368.000000
3344.131706	395.800000
3345.195151	399.000000
3346.258450	389.600000
3347.321602	382.800000
3348.384608	398.200000
3349.447468	367.000000
3350.508725	372.400000
3351.566926	375.000000
3352.629348	399.400000
3353.688714	370.200000
3354.747934	368.200000
3355.808463	385.600000
3356.864484	371.200000
3357.923268	399.600000
3358.977545	400.600000
3360.034586	385.400000
3361.090028	393.000000
3362.146780	379.400000
3363.201933	386.000000
3364.255489	406.400000
3365.307448	404.400000
3366.362170	359.600000
3367.413842	404.000000
3368.465370	362.600000
3369.518208	378.800000
3370.567998	369.400000
3371.619097	404.000000
3372.667149	389.000000
3373.717962	377.200000
3374.765729	400.000000
3375.813354	368.000000
3376.860837	379.800000
3377.906727	408.000000
3378.953925	364.600000
3379.998080	404.600000
3381.044995	401.400000
3382.090317	349.800000
3383.132598	377.000000
3384.174738	373.400000
3385.218187	394.400000
3386.261494	369.800000
3387.303211	389.400000
3388.344788	375.800000
3389.386223	364.800000
3390.426070	373.600000
3391.464328	381.000000
3392.503894	417.600000
3393.543320	357.000000
3394.581158	375.400000
3395.617409	399.400000
3396.653520	389.000000
3397.690939	369.600000
3398.725325	397.000000
3399.761019	372.200000
3400.796573	383.600000
3401.829095	367.400000
3402.864371	361.600000
3403.896617	385.400000
3404.928723	398.400000
3405.959247	348.800000
3406.991077	376.400000
3408.022769	412.200000
3409.051433	389.200000
3410.079960	374.800000
3411.109793	359.000000
3412.139489	381.800000
3413.166159	337.800000
3414.194135	385.200000
3415.219087	395.600000
3416.246790	342.600000
3417.271468	372.400000
3418.297453	355.800000
3419.321859	378.000000
3420.346128	383.800000
3421.368818	361.600000
3422.391372	383.600000
3423.415232	368.400000
3424.436072	362.400000
3425.456776	397.800000
3426.478786	365.800000
3427.497778	353.400000
3428.516635	360.800000
3429.536798	367.000000
3430.553944	368.200000
