-118.277064	41.050000
-115.607463	40.103297
-112.940798	39.748352
-110.274885	39.861738
-107.611905	40.320030
-104.947494	40.999800
-102.286014	41.777622
-99.623105	40.656643
-96.965303	43.781119
-94.306070	43.736364
-91.647586	43.780420
-88.992027	44.642657
-86.335039	46.918881
-83.683148	47.792308
-81.029828	49.049650
-78.379427	46.502797
-75.727598	46.323077
-73.080859	44.768531
-70.432690	45.349650
-67.785265	41.600000
-65.140753	45.416084
-62.494812	43.590909
-59.853954	42.888112
-57.211665	40.230070
-54.572286	40.979021
-51.931478	40.099301
-49.291409	41.101399
-46.656414	40.104895
-44.019989	40.709091
-41.386468	40.133566
-38.751517	43.504895
-36.121633	43.505594
-33.488155	50.038462
-30.859740	49.061538
-28.232059	51.497203
-25.602950	48.297203
-22.978897	37.104895
-20.351254	-12.410490
-17.728666	-107.660839
-15.106808	-42.514685
-12.485681	304.487413
-9.865285	787.616783
-7.247776	1181.475524
-4.628839	1446.409091
-2.012788	1580.380420
0.602536	1582.377622
3.217131	1457.743357
5.828845	1206.062937
8.441986	840.647552
11.050095	391.127273
13.661784	-18.281119
16.268443	-162.180420
18.876530	-73.179021
21.483893	34.846853
24.086231	54.860140
26.692147	56.735664
29.293042	54.289510
31.895364	56.297902
34.492668	59.275524
37.093548	60.751049
39.689414	64.241958
42.286707	61.162238
44.883281	61.749650
47.474846	59.189510
50.067839	58.990210
52.657972	57.244755
55.249531	60.046154
57.838231	56.860140
60.428359	55.172028
63.013487	57.420979
65.600043	61.285315
68.185884	60.259441
70.768872	63.798601
73.353287	63.766434
75.930572	65.669930
78.511424	64.923776
81.089427	70.527273
83.666720	69.427972
86.245440	72.658042
88.819177	68.367832
91.394341	69.243357
93.966662	66.847552
96.538276	70.426573
99.107049	69.215385
101.677249	75.202797
104.244610	78.056643
106.813398	84.197203
109.379349	90.572028
111.942464	104.476224
114.509137	119.397203
117.066587	149.660140
119.629723	192.016783
122.187900	275.102098
124.749631	420.034266
127.306405	668.527273
129.864605	1047.951049
132.417853	1572.902797
134.970402	2226.383916
137.526503	2970.236364
140.077655	3744.472727
142.628110	4501.630769
145.177867	5181.346853
147.724805	5725.716084
150.271048	6121.818881
152.818716	6373.269930
155.365688	6509.935664
157.907724	6555.613986
160.449068	6572.483217
162.989718	6579.033566
165.531793	6580.783217
168.071058	6592.903497
170.607513	6601.321678
173.143278	6605.123077
175.680468	6614.065035
178.216967	6604.092308
180.750660	6607.123776
183.281549	6607.020979
185.811750	6608.721678
188.343376	6606.993007
190.872202	6628.334965
193.398228	6647.118881
195.923568	6654.820280
198.450333	6678.113986
200.974302	6680.253147
203.497585	6670.939860
206.020184	6668.698601
208.539990	6655.176224
211.059113	6656.502098
213.577553	6642.242657
216.097418	6632.760140
218.610280	6638.848951
221.126674	6643.000000
223.642387	6648.400699
226.153209	6658.517483
228.665456	6676.718881
231.174920	6679.873427
233.683706	6681.243357
236.191814	6687.249650
238.701346	6698.526573
241.205997	6716.755245
243.709972	6725.974126
246.215371	6735.645455
248.715895	6751.853147
251.219942	6756.402098
253.717019	6764.464336
256.217618	6777.605594
258.715446	6779.224476
261.212601	6781.981818
263.709084	6785.686713
266.200703	6792.724476
268.695841	6786.591608
271.188214	6772.220280
273.679916	6773.076923
276.168855	6753.792308
278.659217	6743.871329
281.146818	6728.062937
283.631659	6712.573427
286.120014	6704.565035
288.601431	6698.899301
291.086361	6708.077622
293.566445	6723.572028
296.050042	6729.304895
298.528797	6719.405594
301.008974	6713.921678
303.486400	6722.426573
305.963162	6721.647552
308.439260	6729.579720
310.912610	6748.446154
313.385299	6766.843357
315.857326	6792.394406
318.328691	6817.703497
320.797313	6837.332168
323.265275	6868.702098
325.734660	6867.653846
328.199222	6864.646154
330.667287	6860.467832
333.130533	6855.451049
335.593122	6860.732867
338.055053	6865.431469
340.516328	6875.135664
342.974869	6870.746853
345.434832	6879.411888
347.892063	6864.727273
350.348639	6849.618182
352.804560	6850.031469
355.257753	6820.258741
357.712368	6806.179021
360.162181	6793.662937
362.615490	6785.013287
365.064000	6793.681119
367.511860	6794.208392
369.961141	6797.158741
372.405629	6794.363636
374.851539	6796.990909
377.296800	6787.314685
379.739342	6786.824476
382.181236	6786.652448
384.622482	6778.469231
387.061013	6777.969231
389.500966	6768.675524
391.938205	6763.986014
394.372732	6757.253846
396.810747	6753.619580
399.243985	6758.201399
401.678645	6753.945455
404.108532	6749.683916
406.541904	6759.850350
408.970506	6765.672727
411.398466	6773.952448
413.827847	6781.957343
416.252464	6791.051049
418.678501	6796.537063
421.103899	6802.721678
423.528656	6802.454545
425.948654	6814.840559
428.370074	6820.943357
430.788797	6833.302797
433.208941	6850.231469
435.626390	6865.212587
438.045259	6873.479021
440.461435	6880.665035
442.872864	6886.769930
445.287769	6896.936364
447.699984	6897.967133
450.111565	6891.058741
452.522513	6884.268531
454.930773	6882.160140
457.338402	6880.496503
459.745398	6886.432168
462.151762	6892.172028
464.555445	6889.974825
466.958497	6899.905594
469.360919	6894.555944
471.762711	6891.962238
474.161825	6893.767133
476.562359	6889.323776
478.962264	6885.278322
481.357447	6883.248252
483.756095	6872.560140
486.150024	6860.740559
488.543327	6840.835664
490.936004	6833.581818
493.328056	6828.395804
495.721527	6826.302797
498.110285	6816.565035
500.496377	6809.243357
502.883889	6806.319580
505.270777	6808.403497
507.655002	6809.608392
510.040646	6814.036364
512.423627	6806.008392
514.803948	6801.105594
517.185688	6805.634965
519.564770	6809.396503
521.945269	6817.246853
524.323111	6825.879720
526.698298	6837.896503
529.072867	6843.692308
531.448855	6855.974825
533.822189	6857.324476
536.196942	6857.499301
538.567008	6857.950350
540.936459	6857.117483
543.307329	6854.932168
545.673517	6864.397902
548.041124	6853.109091
550.406085	6852.248951
552.770434	6855.025175
555.134169	6861.225175
557.499322	6861.298601
559.859803	6862.076923
562.221701	6853.154545
564.580960	6856.206294
566.937580	6851.438462
569.297646	6858.586014
571.651020	6857.086014
574.007839	6859.496503
576.362023	6853.672727
578.715598	6842.870629
581.068565	6839.403497
583.418901	6830.307692
585.770654	6808.846154
588.115729	6801.539860
590.466269	6799.669231
592.810136	6793.078322
595.159464	6777.968531
597.504143	6789.125874
599.846198	6792.507692
602.189670	6800.230070
604.530519	6806.883217
606.870765	6808.516084
609.208391	6813.079021
611.549452	6812.276923
613.885876	6801.930769
616.223716	6806.051748
618.558938	6799.564336
620.891545	6794.553147
623.225569	6792.881119
625.556978	6809.116783
627.887789	6816.406993
630.218002	6833.302098
632.547618	6845.588112
634.872610	6855.734266
637.203044	6857.634266
639.528856	6859.140559
641.852062	6860.049650
644.176684	6865.850350
646.498700	6854.813287
648.820122	6856.425874
651.138941	6855.386014
653.459176	6850.179021
655.778818	6856.638462
658.095859	6860.163636
660.412309	6858.605594
662.726160	6868.540559
665.041426	6869.993706
667.354096	6871.660839
669.668181	6868.498601
671.977667	6863.432168
674.288567	6849.972028
676.596875	6844.206993
678.904595	6834.658042
681.213730	6821.604196
683.518272	6829.539860
685.822228	6832.765035
688.125597	6828.603497
690.430381	6837.606993
692.730579	6836.674825
695.032192	6829.915385
697.333219	6820.165035
699.629665	6816.640559
701.927525	6809.402797
704.224803	6814.023077
706.521496	6812.397203
708.813614	6820.857343
711.109143	6827.208392
713.400099	6836.931469
715.692469	6831.665035
717.982263	6834.983916
720.271478	6839.330070
722.560113	6844.698601
724.846175	6851.669231
727.133651	6864.863636
729.418557	6870.137762
731.702884	6882.566434
733.984644	6885.076923
736.267817	6899.409091
738.550413	6902.506993
740.828453	6908.738462
743.107907	6908.932168
745.386786	6914.416783
747.665090	6926.664336
749.938843	6946.283217
752.214011	6956.906993
754.488605	6973.431469
756.760640	6973.710490
759.034088	6960.921678
761.304978	6962.169930
763.573312	6960.348252
765.843059	6956.127972
768.110251	6942.360140
770.376873	6928.763636
772.642926	6929.107692
774.906427	6928.846154
777.171340	6936.700000
779.435685	6953.012587
781.695499	6972.547552
783.956727	6985.276224
786.217387	6984.117483
788.475500	7003.887413
790.731070	7012.860140
792.990029	7005.654545
795.242490	6996.513986
797.500318	6989.325874
799.753627	6980.844755
802.004395	6966.832867
804.256576	6953.768531
806.506219	6955.239860
808.757273	6951.674825
811.003816	6951.629371
813.251772	6947.128671
815.497192	6949.906993
817.744025	6947.446154
819.990295	6931.071329
822.232062	6937.985315
824.477211	6945.936364
826.715888	6936.182517
828.957948	6927.113287
831.195509	6921.788112
833.434481	6928.194406
835.670928	6933.860140
837.908785	6932.167832
840.144117	6938.046853
842.376925	6943.716084
844.611145	6942.453147
846.842843	6947.413986
849.073986	6958.738462
851.304574	6960.426573
853.534608	6946.262238
855.764087	6949.886014
857.989086	6953.332867
860.217458	6953.020280
862.441352	6945.995105
864.666656	6936.499301
866.887485	6938.811189
869.111687	6952.053147
871.331415	6962.714685
873.552553	6981.505594
875.773141	6997.520979
877.991220	7009.069231
880.210708	7015.794406
882.425730	7028.913986
884.640204	7020.113287
886.854131	7007.906993
889.067510	6990.190909
891.280343	6975.745455
893.492628	6964.868531
895.702412	6951.873427
897.911650	6934.862937
900.120342	6923.851748
902.326536	6917.383916
904.534139	6912.378322
906.739245	6903.462937
908.943807	6896.102098
911.145874	6886.558042
913.349350	6886.734266
915.550332	6893.086014
917.750772	6900.683217
919.952621	6901.523077
922.148079	6900.081818
924.346895	6903.017483
926.541274	6916.334965
928.739010	6916.672028
930.932310	6920.566434
933.127018	6923.849650
935.319241	6935.263636
937.510926	6934.819580
939.702073	6937.932867
941.890737	6950.851049
944.078864	6961.514685
946.264511	6974.416783
948.453511	6986.099301
950.638086	6996.595804
952.822127	7006.617483
955.009518	7008.707692
957.188606	7024.906993
959.371044	7047.821678
961.552947	7063.267133
963.732377	7064.575524
965.909334	7080.918182
968.087699	7103.524476
970.267470	7107.997203
972.440893	7121.054545
974.617663	7129.740559
976.790025	7136.794406
978.963795	7132.572727
981.133161	7140.158042
983.305871	7148.696503
985.476115	7148.979021
987.645831	7142.807692
989.815018	7141.746853
991.979808	7138.467133
994.147940	7144.668531
996.311676	7137.873427
998.476820	7152.896503
1000.639504	7162.446853
1002.801663	7166.102098
1004.961364	7165.049650
1007.120542	7173.861538
1009.281126	7170.349650
1011.439255	7166.882517
1013.596860	7156.627972
1015.753942	7144.485315
1017.910501	7133.719580
1020.062680	7130.835664
1022.216266	7125.747552
1024.369330	7140.608392
1026.519945	7144.315385
1028.671966	7155.388112
1030.819615	7159.195804
1032.970594	7173.706993
1035.117204	7167.625874
1037.263294	7172.055944
1039.408866	7166.352448
1041.555842	7162.537762
1043.696531	7164.912587
1045.840548	7158.240559
1047.982126	7159.925175
1050.123186	7162.259441
1052.265651	7157.607692
1054.401837	7161.023077
1056.541349	7160.455944
1058.676505	7172.610490
1060.814986	7172.250350
1062.949114	7184.640559
1065.082728	7197.845455
1067.217746	7208.216084
1069.348415	7225.526573
1071.480490	7235.867832
1073.610134	7240.265734
1075.739267	7246.601399
1077.867889	7256.043357
1079.995999	7260.583217
1082.121683	7271.132867
1084.246857	7283.395804
1086.373434	7290.958741
1088.495675	7295.914685
1090.619320	7308.042657
1092.738630	7309.623776
1094.863169	7309.979021
1096.981464	7327.510490
1099.101162	7327.178322
1101.218442	7336.177622
1103.335216	7338.465035
1105.451483	7342.114685
1107.565335	7344.073427
1109.680590	7351.344056
1111.791523	7351.562238
1113.905768	7356.362937
1116.015692	7363.045455
1118.127019	7358.812587
1120.237843	7351.504196
1122.344350	7361.155944
1124.454166	7343.554545
1126.559668	7344.172028
1128.666574	7338.300699
1130.767264	7345.774825
1132.873165	7335.659441
1134.974758	7332.388811
1137.077754	7311.747552
1139.180249	7309.462238
1141.276538	7303.893706
1143.378033	7299.690210
1145.475226	7289.902797
1147.571920	7293.254545
1149.668117	7296.181119
1151.763815	7310.287413
1153.859016	7324.056643
1155.951820	7335.010490
1158.046026	7337.867133
1160.134041	7345.174825
1162.227254	7336.348951
1164.314279	7343.586014
1166.404604	7339.476923
1168.490640	7331.213986
1170.579974	7321.830070
1172.663127	7325.007692
1174.747683	7328.527972
1176.833639	7336.411888
1178.915315	7339.308392
1180.998391	7343.257343
1183.079082	7356.358741
1185.159282	7368.444755
1187.238990	7380.272727
1189.318207	7405.837762
1191.395041	7416.888112
1193.469495	7425.334266
1195.547241	7439.268531
1197.620716	7457.500699
1199.695593	7465.048252
1201.766202	7470.758042
1203.838212	7470.399301
1205.907846	7473.989510
1207.978881	7478.025175
1210.049428	7484.219580
1212.115715	7492.327273
1214.183401	7499.693007
1216.248716	7506.095804
1218.315431	7523.943357
1220.377890	7537.961538
1222.443635	7546.924476
1224.505125	7543.267133
1226.568015	7557.209091
1228.628538	7576.595804
1230.688578	7588.318182
1232.748134	7602.130070
1234.805326	7618.109790
1236.862035	7619.682517
1238.916382	7632.416783
1240.974009	7659.258741
1243.029274	7683.742657
1245.080298	7708.169930
1247.132723	7728.246154
1249.184667	7751.940559
1251.234253	7791.581818
1253.283360	7818.067133
1255.331988	7826.989510
1257.380138	7836.248252
1259.427810	7845.867832
1261.471251	7844.294406
1263.517967	7853.287413
1265.562331	7873.041958
1267.606217	7882.767133
1269.647753	7915.716783
1271.686939	7943.716084
1273.729397	7973.565035
1275.767634	8018.444056
1277.807268	8060.431469
1279.846428	8112.086014
1281.881370	8156.823077
1283.917710	8206.594406
1285.951705	8263.350350
1287.987099	8334.902098
1290.018279	8423.679021
1292.050858	8498.137063
1294.082964	8600.381119
1296.112730	8716.673427
1298.143894	8833.386014
1300.170850	9004.149650
1302.199204	9190.837063
1304.223354	9421.639860
1306.250769	9660.924476
1308.273981	9916.612587
1310.298591	10106.351748
1312.320866	10011.518881
1314.344539	10760.467832
1316.365879	14488.158042
1318.386752	20471.754545
1320.407157	27967.402797
1322.423369	36240.431469
1324.440978	44629.134266
1326.456259	52733.065734
1328.474799	61757.083916
1330.489149	67095.931469
1332.501174	67729.681119
1334.516457	63656.704196
1336.527554	55789.418182
1338.540047	46540.666434
1340.548358	37863.357343
1342.559925	29129.406294
1344.565453	21034.358042
1346.574235	14302.272727
1348.578841	9706.451748
1350.586700	7977.509091
1352.594097	9222.435664
1354.595462	9203.248951
1356.598225	9025.935664
1358.600528	8821.579021
1360.602370	8627.897203
1362.603754	8454.726573
1364.602823	8337.490909
1366.601434	8250.134965
1368.599587	8171.124476
1370.597282	8099.397203
1372.590813	8055.616783
1374.585741	8000.283217
1376.580212	7956.116783
1378.574226	7908.595804
1380.565933	7874.132168
1382.557184	7834.072727
1384.546130	7799.851049
1386.536471	7776.932168
1388.526357	7765.471329
1390.513940	7751.878322
1392.501069	7759.477622
1394.485896	7767.688811
1396.472118	7786.519580
1398.456039	7798.743357
1400.439508	7807.826573
1402.422525	7803.539161
1404.403244	7805.158741
1406.385357	7802.653846
1408.365173	7802.447552
1410.344539	7806.262937
1412.319766	7797.245455
1414.298231	7796.050350
1416.274403	7801.751748
1418.250125	7817.839860
1420.225398	7829.810490
1422.198381	7846.709091
1424.170915	7857.464336
1426.143001	7873.859441
1428.114639	7883.667832
1430.082150	7894.874126
1432.054734	7905.879720
1434.019512	7913.441259
1435.989363	7921.043357
1437.955089	7925.266434
1439.922209	7929.260839
1441.887045	7940.097902
1443.847761	7934.417483
1445.813545	7928.096503
1447.773374	7927.434965
1449.734596	7921.540559
1451.697211	7907.571329
1453.655711	7896.967133
1455.613769	7885.195804
1457.571384	7871.876923
1459.528558	7867.560140
1461.483456	7860.769231
1463.439746	7853.950350
1465.393762	7837.859441
1467.347338	7824.354545
1469.298641	7818.338462
1471.251336	7823.343357
1473.201760	7815.806993
1475.151745	7798.592308
1477.101291	7793.962238
1479.048567	7786.227972
1480.993577	7778.364336
1482.939979	7771.324476
1484.885943	7769.365035
1486.831470	7767.627972
1488.774731	7763.993706
1490.717556	7771.163636
1492.658118	7766.766434
1494.600072	7778.242657
1496.539763	7781.132168
1498.479019	7789.256643
1500.417841	7808.894406
1502.354403	7816.682517
1504.292355	7827.990210
1506.228050	7833.455245
1508.163311	7862.510490
1510.096315	7885.409091
1512.028887	7902.687413
1513.961027	7911.388811
1515.892735	7907.308392
1517.822190	7924.312587
1519.753034	7915.010490
1521.683448	7929.412587
1523.609789	7932.036364
1525.537520	7926.464336
1527.463001	7927.149650
1529.388053	7928.525175
1531.312676	7934.898601
1533.236870	7940.525874
1535.158817	7940.854545
1537.082153	7940.107692
1539.003244	7935.139161
1540.922090	7939.196503
1542.842326	7934.580420
1544.760318	7940.674825
1546.677884	7935.772727
1548.593209	7928.313287
1550.509922	7913.000000
1552.422581	7893.448252
1554.338444	7875.471329
1556.252068	7866.523077
1558.163453	7842.134266
1560.076227	7835.462937
1561.984953	7826.306993
1563.895067	7837.793706
1565.804758	7847.130769
1567.714026	7837.860839
1569.621059	7825.602797
1571.525860	7817.834266
1573.432050	7794.286014
1575.336009	7786.679720
1577.239546	7783.273427
1579.142662	7771.593706
1581.043550	7758.561538
1582.945826	7754.718182
1584.845873	7741.903497
1586.747309	7741.241958
1588.644710	7731.753846
1590.541694	7721.644755
1592.438259	7712.990909
1594.336211	7716.025175
1596.228329	7713.718881
1598.123641	7727.951049
1600.018534	7719.593706
1601.911207	7716.600000
1603.803462	7708.002098
1605.693498	7702.824476
1607.583118	7693.199301
1609.472323	7689.565035
1611.361112	7684.737762
1613.247685	7698.630769
1615.135645	7695.683916
1617.019588	7693.779021
1618.904918	7700.781818
1620.789835	7703.027972
1622.672538	7694.488811
1624.556628	7696.419580
1626.436706	7698.830070
1628.318171	7707.676224
1630.197426	7702.968531
1632.078067	7700.460140
1633.952905	7701.420280
1635.832723	7704.012587
1637.708536	7695.739860
1639.583940	7692.238462
1641.460729	7693.372727
1643.331721	7693.844755
1645.205896	7697.176923
1647.076071	7694.668531
1648.949427	7702.691608
1650.820580	7709.010490
1652.689531	7701.327273
1654.559868	7707.382517
1656.426211	7695.163636
1658.293941	7688.719580
1660.159471	7675.068531
1662.026386	7653.511888
1663.889313	7635.926573
1665.753625	7630.218182
1667.615742	7616.950350
1669.477453	7612.886713
1671.340549	7616.230070
1673.201451	7623.775524
1675.060159	7637.503497
1676.918465	7661.051049
1678.778154	7651.700699
1680.632077	7658.025175
1682.489173	7657.513986
1684.345865	7655.121678
1686.198582	7652.941259
1688.054470	7648.435664
1689.906384	7648.119580
1691.757897	7652.107692
1693.609009	7643.090909
1695.459720	7642.271329
1697.310031	7648.031469
1699.158158	7664.877622
1701.007668	7654.656643
1702.851430	7665.737063
1704.700142	7670.216783
1706.543107	7675.514685
1708.389238	7676.456643
1710.231408	7685.790909
1712.076742	7693.491608
1713.916336	7697.359441
1715.757314	7689.132867
1717.599676	7688.012587
1719.438080	7688.561538
1721.277868	7706.300699
1723.115481	7688.465734
1724.952698	7689.174825
1726.787742	7676.219580
1728.624169	7673.805594
1730.458424	7669.828671
1732.292285	7661.476923
1734.125751	7666.913986
1735.955271	7674.501399
1737.787950	7677.220280
1739.616685	7689.620280
1741.448578	7690.698601
1743.276528	7700.403497
1745.104086	7693.923776
1746.931253	7704.013287
1748.758028	7701.603497
1750.584411	7700.725175
1752.406858	7705.045455
1754.232459	7703.965734
1756.054126	7717.698601
1757.877175	7723.540559
1759.698063	7724.030070
1761.518561	7726.855944
1763.340441	7729.566434
1765.156621	7736.348951
1766.975953	7742.152448
1768.791358	7750.341259
1770.609914	7743.993706
1772.424544	7747.703497
1774.238787	7758.476224
1776.052644	7773.846154
1777.866114	7781.469231
1779.677430	7790.339860
1781.490128	7786.230769
1783.302439	7799.658741
1785.110833	7801.248951
1786.920608	7793.379021
1788.726467	7788.581818
1790.535473	7774.938462
1792.340565	7763.569231
1794.147037	7770.462937
1795.953126	7781.745455
1797.755305	7800.946853
1799.560627	7797.275524
1801.362041	7812.893007
1803.164835	7819.797902
1804.963724	7826.113287
1806.763992	7807.302098
1808.563880	7803.464336
1810.361625	7797.665734
1812.158990	7786.148252
1813.955974	7775.933566
1815.752578	7769.357343
1817.547043	7768.523776
1819.342888	7773.486014
1821.133077	7768.844755
1822.928163	7784.497203
1824.717596	7787.067133
1826.510167	7778.100699
1828.300602	7776.590210
1830.088902	7789.020979
1831.880338	7788.953846
1833.666129	7794.600000
1835.453298	7787.078322
1837.238337	7781.616783
1839.026508	7785.240559
1840.810794	7790.747552
1842.592951	7781.795105
1844.376487	7790.872727
1846.157894	7793.125175
1847.940679	7795.476224
1849.719585	7803.241958
1851.499869	7814.904895
1853.278028	7831.909790
1855.057564	7853.091608
1856.834976	7868.086014
1858.610264	7873.819580
1860.386931	7880.925175
1862.161475	7898.724476
1863.937396	7895.042657
1865.707698	7917.738462
1867.481127	7920.596503
1869.252436	7933.086713
1871.023374	7938.330070
1872.795689	7952.479720
1874.562392	7963.288112
1876.332219	7970.537063
1878.098183	7986.836364
1879.867271	7990.681818
1881.632497	7998.536364
1883.397355	8006.862937
1885.163589	7997.106294
1886.925965	7997.846154
1888.687974	8002.153846
1890.449616	8015.351748
1892.210890	8019.250350
1893.971798	8001.568531
1895.732338	7988.502797
1897.490770	7993.712587
1899.248835	7994.402797
1901.004793	8002.439860
1902.762127	7997.081818
1904.519095	7994.084615
1906.273958	8000.302797
1908.026715	8001.576923
1909.779109	8014.629371
1911.532879	8017.919580
1913.284545	8024.071329
1915.034108	8019.190210
1916.785048	8037.286713
1918.535624	8064.041259
1920.282362	8079.995105
1922.030475	8102.218182
1923.776489	8106.116783
1925.523879	8123.824476
1927.269170	8138.650350
1929.012364	8146.417483
1930.756934	8137.253147
1932.499407	8143.428671
1934.241520	8151.951049
1935.983274	8162.513986
1937.724667	8178.753147
1939.463967	8192.530070
1941.202908	8199.885315
1942.941490	8204.755944
1944.677980	8212.411189
1946.414113	8231.467133
1948.151620	8244.572727
1949.885306	8262.844755
1951.620366	8282.192308
1953.353337	8301.577622
1955.085952	8324.804895
1956.818210	8350.286014
1958.550112	8366.842657
1960.279928	8376.695105
1962.007660	8391.914685
1963.736766	8410.676923
1965.465516	8422.932867
1967.192183	8432.229371
1968.918496	8445.143357
1970.646182	8452.252448
1972.368333	8469.118182
1974.093584	8481.319580
1975.815028	8517.234965
1977.539572	8527.597203
1979.262037	8538.469231
1980.980698	8557.373427
1982.702458	8585.601399
1984.420416	8609.374825
1986.139748	8631.262937
1987.855279	8638.574825
1989.575632	8652.407692
1991.292186	8654.255245
1993.004943	8670.300000
1994.720796	8684.321678
1996.434577	8696.821678
1998.148008	8694.209091
1999.859367	8703.741958
2001.572100	8724.997902
2003.281041	8745.269930
2004.993076	8770.173427
2006.699601	8796.753147
2008.409219	8794.874825
2010.116769	8811.796503
2011.823972	8822.545455
2013.529109	8815.569930
2015.233899	8815.014685
2016.940061	8813.400000
2018.642441	8822.339860
2020.346193	8828.727273
2022.047882	8831.276224
2023.749225	8839.008392
2025.450223	8849.037762
2027.149161	8864.287413
2028.849470	8876.855245
2030.546003	8892.013287
2032.243908	8902.660839
2033.939755	8908.181818
2035.638687	8943.478322
2037.332133	8965.810490
2039.026950	8983.972028
2040.721424	8997.034266
2042.412130	8997.253846
2044.105920	8997.019580
2045.795943	8989.425874
2047.487337	8975.513986
2049.176678	8959.399301
2050.867389	8924.082517
2052.554338	8910.387413
2054.240946	8889.202797
2055.928925	8892.623077
2057.613144	8889.649650
2059.298733	8880.796503
2060.983983	8885.130070
2062.667185	8883.200000
2064.351757	8869.292308
2066.030865	8873.732168
2067.714759	8862.139161
2069.393193	8854.324476
2071.074704	8852.581119
2072.752463	8864.974126
2074.429886	8874.377622
2076.108678	8896.019580
2077.785427	8907.807692
2079.460135	8908.455944
2081.136212	8908.500699
2082.810249	8909.130070
2084.483950	8901.016783
2086.157316	8921.009091
2087.828644	8921.986713
2089.499637	8927.039860
2091.170296	8937.386713
2092.840621	8953.459441
2094.510611	8972.508392
2096.178566	9001.838462
2097.846188	9020.939161
2099.511776	9050.449650
2101.178732	9069.989510
2102.843655	9090.270629
2104.508245	9112.918182
2106.170804	9149.711888
2107.834732	9168.057343
2109.496628	9178.846154
2111.158193	9185.093706
2112.819428	9195.231469
2114.478633	9209.342657
2116.137509	9237.710490
2117.796054	9240.808392
2119.454270	9247.105594
2121.108763	9248.552448
2122.766320	9254.246853
2124.423547	9265.425874
2126.077054	9285.435664
2127.731928	9291.048951
2129.383083	9298.864336
2131.037301	9311.549650
2132.687801	9323.383217
2134.339669	9344.489510
2135.986128	9357.212587
2137.637341	9366.903497
2139.284842	9385.939860
2140.933709	9408.552448
2142.580557	9412.691608
2144.227080	9414.203497
2145.873277	9421.912587
2147.515765	9410.492308
2149.161312	9406.308392
2150.803152	9398.925874
2152.448049	9389.103497
2154.089241	9393.397902
2155.730109	9393.060839
2157.370654	9408.246154
2159.009186	9422.189510
2160.649084	9426.913287
2162.285282	9413.734965
2163.922846	9412.306993
2165.560088	9424.183916
2167.195320	9428.446853
2168.830230	9439.302098
2170.464819	9454.930070
2172.099087	9475.646154
2173.729661	9511.083916
2175.363286	9529.857343
2176.993220	9553.460140
2178.624520	9579.210490
2180.253814	9583.439860
2181.882789	9569.039860
2183.511444	9566.374126
2185.139780	9561.758042
2186.766113	9551.789510
2188.392128	9534.601399
2190.016142	9537.600000
2191.641521	9536.193706
2193.264899	9553.068531
2194.889642	9559.156643
2196.510703	9569.985315
2198.131449	9577.266434
2199.753558	9568.471329
2201.373670	9575.978322
2202.991786	9582.041958
2204.609586	9582.494406
2206.227070	9590.508392
2207.844239	9594.010490
2209.461093	9631.727273
2211.077632	9654.686713
2212.692177	9693.272727
2214.304731	9719.497203
2215.918648	9735.964336
2217.530573	9748.283217
2219.143863	9768.874126
2220.755161	9798.872028
2222.364471	9809.772028
2223.975143	9822.582517
2225.583827	9846.475524
2227.192199	9873.125874
2228.798583	9904.504895
2230.406331	9920.213986
2232.012092	9950.795804
2233.617543	9966.688811
2235.221008	9972.871329
2236.825836	9986.565035
2238.428680	9999.207692
2240.029541	10012.820280
2241.631765	10027.468531
2243.232007	10047.673427
2244.833611	10068.894406
2246.431562	10088.006294
2248.030876	10123.743357
2249.628210	10152.755944
2251.225236	10189.448252
2252.823623	10206.762937
2254.418362	10224.927972
2256.011125	10244.250350
2257.605249	10251.547552
2259.200736	10271.144755
2260.792577	10284.357343
2262.384112	10294.341259
2263.977008	10300.214685
2265.564595	10315.274126
2267.156879	10338.802797
2268.743855	10335.101399
2270.333860	10333.450350
2271.918560	10325.316084
2273.507954	10316.600000
2275.092045	10300.631469
2276.677498	10288.654545
2278.260982	10296.850350
2279.847491	10294.830769
2281.430367	10307.283217
2283.012939	10329.757692
2284.595209	10358.302098
2286.173848	10370.191259
2287.755512	10369.393007
2289.333547	10375.823427
2290.914605	10395.930769
2292.492036	10389.647203
2294.067504	10383.057343
2295.645994	10374.601748
2297.220859	10374.434266
2298.795425	10369.819231
2300.369689	10361.936364
2301.943653	10372.539510
2303.517317	10385.148252
2305.090680	10384.467133
2306.660425	10394.716084
2308.229871	10412.625874
2309.802336	10438.841259
2311.369526	10437.420979
2312.939733	10469.953846
2314.506327	10478.059441
2316.074279	10501.708392
2317.640277	10539.786014
2319.205977	10563.636364
2320.771379	10607.195105
2322.334828	10648.384615
2323.899636	10686.179021
2325.460835	10721.320979
2327.025049	10746.008392
2328.584002	10771.923077
2330.145968	10786.749650
2331.705984	10822.596503
2333.265704	10839.093706
2334.823475	10864.048951
2336.380952	10897.232867
2337.938133	10909.179021
2339.493368	10932.497203
2341.048308	10961.911888
2342.602955	10975.220280
2344.157308	10983.165734
2345.711367	11006.055944
2347.265133	11019.098601
2348.816954	11016.335664
2350.366832	11019.365734
2351.919718	11017.180420
2353.467362	11023.381119
2355.018013	11017.798601
2356.565074	11025.555245
2358.113492	11036.876923
2359.661618	11046.671329
2361.206157	11052.471329
2362.752053	11079.748252
2364.296010	11126.200699
2365.841325	11148.095804
2367.383055	11155.681119
2368.926143	11170.760839
2370.467294	11192.530070
2372.008156	11212.468531
2373.548729	11236.388112
2375.089013	11263.775524
2376.629008	11273.895804
2378.165424	11282.730070
2379.704842	11307.220979
2381.240683	11331.317483
2382.777880	11362.677622
2384.311503	11377.971329
2385.848125	11400.101399
2387.382817	11412.674825
2388.915578	11436.318182
2390.448054	11467.812587
2391.978601	11502.032867
2393.512146	11514.772028
2395.040480	11532.114685
2396.570170	11553.619580
2398.099575	11582.298601
2399.628695	11611.624476
2401.157529	11643.032168
2402.681159	11674.010490
2404.209424	11696.393706
2405.732486	11721.967832
2407.260183	11763.865035
2408.781039	11810.621678
2410.306529	11850.013287
2411.828459	11891.982517
2413.351743	11927.548951
2414.873107	11947.248252
2416.392551	11975.520979
2417.913350	11994.129371
2419.432230	12000.487413
2420.950828	12003.800000
2422.467509	12005.798601
2423.985545	12022.830070
2425.503299	12044.008392
2427.017501	12074.676224
2428.531423	12117.601399
2430.045066	12148.439860
2431.560062	12174.908392
2433.071511	12202.225874
2434.584313	12231.254545
2436.095203	12247.653147
2437.605813	12261.869930
2439.114512	12289.018182
2440.626198	12320.479720
2442.134340	12333.061538
2443.642203	12345.834266
2445.149789	12380.323077
2446.653835	12416.794406
2448.160865	12452.790210
2449.665987	12506.397203
2451.170832	12552.556643
2452.673770	12592.304895
2454.176431	12630.491608
2455.678816	12654.597902
2457.179296	12687.250350
2458.681129	12701.657343
2460.181058	12695.561538
2461.680711	12696.348951
2463.180089	12703.589510
2464.677564	12705.516084
2466.173137	12719.743357
2467.671690	12728.922378
2469.166715	12714.565734
2470.663092	12727.302797
2472.155943	12710.260140
2473.650146	12692.468531
2475.144077	12677.560839
2476.634483	12664.399301
2478.127867	12655.875524
2479.619353	12652.707692
2481.108942	12656.449650
2482.598259	12679.339860
2484.085680	12701.243357
2485.576077	12705.309091
2487.062955	12714.374126
2488.551186	12732.645455
2490.035899	12732.660140
2491.520342	12747.488811
2493.006137	12754.601399
2494.490039	12766.795105
2495.975293	12777.361538
2497.455413	12788.006294
2498.938505	12802.753846
2500.419708	12801.061538
2501.900640	12783.897203
2503.379684	12764.160839
2504.858460	12729.823077
2506.336967	12695.371329
2507.815205	12685.792308
2509.293176	12674.337762
2510.767641	12653.393007
2512.245075	12654.179021
2513.719006	12651.549650
2515.194288	12643.323077
2516.669302	12647.369231
2518.140815	12646.313986
2519.613679	12643.396503
2521.084660	12638.337762
2522.556991	12622.043357
2524.024208	12621.313287
2525.494392	12624.925175
2526.962694	12611.856643
2528.430732	12597.152448
2529.898505	12595.498601
2531.366013	12599.290210
2532.833257	12589.870629
2534.297008	12615.423776
2535.762109	12630.485315
2537.225333	12653.465035
2538.689906	12673.548252
2540.150991	12703.803497
2541.613425	12738.518881
2543.075596	12757.456643
2544.534280	12763.715385
2545.997537	12777.017483
2547.455697	12797.103497
2548.915206	12815.714685
2550.369622	12820.098601
2551.828608	12831.230070
2553.285721	12845.842657
2554.740964	12863.663636
2556.195946	12865.557343
2557.649058	12891.552448
2559.103519	12901.744755
2560.556111	12902.297902
2562.008443	12899.735664
2563.458907	12926.885315
2564.912327	12945.561538
2566.360665	12947.953147
2567.811959	12970.315385
2569.261386	12979.918881
2570.707342	13016.788811
2572.156252	13039.616084
2573.601691	13061.326573
2575.048479	13084.225874
2576.493403	13090.625175
2577.938070	13097.358741
2579.384084	13106.030070
2580.826631	13111.880420
2582.270526	13098.220979
2583.710956	13095.330769
2585.152734	13101.501399
2586.592652	13109.759441
2588.033917	13132.453147
2589.471720	13164.550350
2590.912473	13182.489510
2592.348163	13208.176923
2593.786803	13225.804196
2595.223586	13251.539161
2596.658512	13290.539161
2598.096387	13313.719580
2599.529204	13342.153147
2600.963368	13364.122378
2602.395677	13385.189510
2603.829334	13400.117483
2605.261136	13419.519580
2606.692686	13422.004895
2608.123982	13403.269231
2609.553427	13402.909091
2610.982619	13397.584615
2612.409960	13416.645455
2613.838648	13436.680420
2615.267083	13448.723077
2616.692072	13479.965035
2618.118406	13492.899301
2619.542892	13531.242657
2620.968724	13544.355245
2622.391112	13561.825175
2623.814846	13554.883217
2625.236734	13547.441259
2626.658371	13549.153147
2628.078164	13554.762238
2629.499301	13566.625874
2630.920189	13557.650350
2632.337639	13568.248951
2633.758028	13574.952448
2635.174980	13578.458042
2636.591684	13594.352448
2638.008139	13605.011189
2639.424346	13604.722378
2640.840304	13611.490210
2642.254422	13605.165734
2643.668293	13614.397203
2645.080324	13638.793706
2646.493700	13664.977622
2647.903646	13678.607692
2649.316528	13686.772727
2650.725981	13704.330769
2652.135188	13720.700699
2653.542559	13742.876923
2654.952864	13775.650350
2656.361333	13796.704196
2657.767967	13846.851049
2659.174356	13866.716783
2660.578911	13906.248951
2661.984810	13955.944755
2663.388876	14015.563636
2664.792698	14052.211888
2666.196275	14056.293007
2667.598021	14057.110490
2669.001110	14016.283916
2670.400781	13975.769231
2671.801796	13933.476224
2673.199395	13876.688811
2674.599923	13835.034266
2675.997037	13781.332867
2677.395494	13741.751748
2678.792123	13744.376923
2680.188511	13740.174825
2681.584656	13730.488811
2682.978975	13720.753147
2684.374637	13701.234266
2685.766889	13679.943357
2687.160485	13674.007692
2688.552256	13657.932168
2689.945369	13636.579720
2691.336659	13635.530769
2692.726126	13634.921678
2694.115354	13622.459441
2695.504341	13640.318182
2696.894671	13623.219580
2698.280016	13638.718881
2699.668286	13657.811888
2701.054735	13671.646853
2702.440945	13694.676224
2703.826916	13717.883217
2705.209489	13717.932168
2706.593404	13743.700000
2707.977080	13771.709091
2709.360519	13787.925874
2710.740562	13799.874126
2712.121947	13826.016783
2713.501516	13848.827972
2714.882427	13889.936364
2716.261523	13927.482517
2717.638805	13944.229371
2719.017428	13975.162238
2720.394237	13994.292308
2721.770811	14026.186014
2723.147149	14063.555944
2724.521675	14103.213986
2725.897542	14111.767832
2727.270022	14142.257343
2728.645419	14168.526573
2730.015854	14188.464336
2731.387631	14204.291608
2732.759174	14217.774126
2734.128908	14217.969231
2735.499982	14236.846154
2736.869249	14249.644755
2738.238282	14258.939161
2739.605508	14277.115385
2740.972502	14291.052448
2742.339263	14293.885315
2743.705791	14330.083916
2745.070515	14347.105594
2746.435006	14368.104895
2747.799265	14399.450350
2749.163293	14432.753147
2750.527088	14465.490909
2751.887510	14483.837762
2753.250843	14497.838462
2754.609233	14506.689510
2755.970533	14516.393007
2757.328462	14502.223077
2758.689301	14488.576923
2760.048339	14482.088112
2761.404009	14467.497203
2762.762588	14476.553846
2764.117799	14498.004196
2765.472781	14533.346154
2766.825966	14555.782517
2768.182058	14570.232867
2769.534786	14614.225874
2770.887285	14644.018881
2772.239557	14656.809091
2773.593166	14669.369930
2774.943414	14672.041958
2776.291869	14676.384615
2777.643228	14696.669930
2778.991228	14705.365035
2780.340567	14718.879720
2781.688113	14736.676923
2783.035432	14728.102098
2784.382525	14719.988811
2785.727827	14738.026573
2787.072903	14736.820979
2788.417753	14737.334965
2789.762377	14758.064336
2791.103648	14781.676923
2792.446258	14815.158741
2793.788643	14871.780420
2795.130802	14904.910490
2796.469612	14942.532168
2797.811322	14990.783916
2799.149683	15018.202797
2800.489382	15047.051748
2801.827295	15084.275524
2803.163424	15105.994406
2804.499330	15130.962937
2805.836572	15162.730769
2807.172031	15207.081818
2808.507267	15228.402797
2809.840721	15294.058741
2811.175511	15334.264336
2812.506960	15349.839161
2813.841305	15374.114685
2815.170752	15394.372028
2816.501536	15416.146853
2817.832098	15434.281818
2819.160881	15467.457343
2820.491001	15505.612587
2821.819341	15538.300699
2823.147461	15559.562238
2824.473804	15562.997203
2825.801482	15597.702098
2827.125828	15583.056643
2828.451510	15576.212587
2829.775416	15560.712587
2831.099102	15559.351748
2832.424124	15544.591608
2833.745817	15557.716783
2835.067290	15578.430070
2836.388545	15606.341958
2837.709581	15617.865035
2839.028845	15618.546154
2840.349444	15627.199301
2841.668271	15615.268531
2842.986880	15607.306294
2844.303719	15606.118881
2845.620340	15576.032168
2846.936743	15575.355944
2848.251378	15568.755245
2849.567347	15598.227972
2850.879997	15613.754545
2852.193981	15646.472727
2853.507749	15673.551049
2854.821300	15694.889510
2856.133084	15745.474825
2857.443103	15762.790210
2858.754456	15786.123776
2860.062493	15802.689510
2861.371866	15826.304895
2862.681023	15879.068531
2863.989965	15917.678322
2865.297144	15968.816084
2866.602559	15999.916084
2867.909309	16038.074126
2869.214297	16054.780420
2870.519070	16072.891608
2871.822083	16132.106993
2873.127976	16132.968531
2874.429015	16154.679720
2875.731387	16194.603497
2877.032000	16227.011189
2878.333947	16258.602797
2879.635681	16269.612587
2880.934111	16282.274126
2882.233874	16260.829371
2883.531880	16241.789510
2884.829674	16219.842657
2886.125711	16224.191608
2887.423082	16230.618881
2888.718697	16236.569930
2890.014102	16264.281119
2891.309295	16286.541958
2892.601190	16303.920280
2893.895962	16321.595105
2895.187438	16332.374825
2896.480246	16327.420979
2897.772844	16310.168531
2899.062147	16324.546154
2900.352783	16341.466434
2901.641669	16368.067832
2902.931886	16403.390909
2904.218812	16424.587413
2905.507070	16441.558741
2906.793579	16459.506294
2908.079879	16488.828671
2909.365971	16501.120280
2910.650315	16501.419580
2911.937531	16487.456643
2913.219920	16512.455245
2914.503641	16522.144056
2915.785615	16534.793007
2917.067383	16565.338462
2918.347405	16584.367832
2919.630297	16578.469930
2920.911444	16584.976923
2922.189309	16610.077622
2923.470043	16628.644056
2924.747496	16611.415385
2926.024744	16600.307692
2927.300249	16596.334965
2928.578622	16606.713986
2929.852181	16601.734266
2931.128606	16594.516084
2932.403291	16601.175524
2933.676236	16600.765035
2934.950511	16615.651049
2936.223047	16623.246853
2937.495379	16645.554545
2938.764438	16651.439161
2940.036362	16624.300699
2941.306548	16624.954545
2942.576530	16635.141259
2943.846309	16656.571329
2945.114351	16675.140559
2946.380658	16694.297902
2947.646762	16724.576224
2948.914197	16746.497203
2950.179896	16773.495804
2951.445393	16811.448252
2952.710689	16813.680420
2953.972719	16814.862238
2955.236079	16809.292308
2956.499238	16806.751748
2957.760664	16812.271329
2959.023420	16850.894406
2960.284445	16881.841958
2961.543739	16910.283916
2962.802832	16943.491608
2964.061725	16964.281119
2965.320418	16979.104196
2966.578911	17016.877622
2967.835675	17022.762937
2969.092240	17057.682517
2970.347076	17080.411189
2971.603242	17095.081818
2972.856152	17121.539860
2974.110392	17178.565035
2975.364433	17194.867832
2976.616748	17214.728671
2977.868865	17249.090210
2979.119257	17261.067832
2980.372504	17270.779021
2981.620974	17288.078322
2982.872298	17312.147552
2984.120374	17311.222378
2985.368252	17318.607692
2986.615933	17335.428671
2987.863418	17347.869231
2989.109181	17368.310490
2990.354747	17362.970629
2991.601642	17392.088112
2992.845291	17418.106993
2994.090269	17441.872727
2995.332004	17453.750350
2996.576590	17461.376923
2997.819457	17490.832867
2999.059082	17498.932867
3000.301559	17527.523077
3001.540795	17534.565035
3002.781359	17561.053147
3004.020206	17572.885315
3005.258859	17571.481818
3006.495796	17602.211189
3007.734061	17622.952448
3008.970610	17632.621678
3010.206966	17641.709091
3011.443128	17660.748252
3012.677576	17688.263636
3013.911831	17705.584615
3015.145893	17717.865035
3016.378243	17760.825874
3017.608881	17800.083217
3018.842365	17805.424476
3020.074138	17835.312587
3021.304199	17880.630769
3022.534069	17902.032867
3023.762229	17917.360839
3024.991716	17930.613287
3026.219493	17939.755944
3027.447079	17943.161538
3028.675991	17958.497203
3029.900161	17968.173427
3031.127174	18018.748252
3032.350964	18022.007692
3033.576079	18029.148252
3034.799488	18066.316084
3036.022708	18081.374825
3037.244222	18097.106294
3038.468577	18124.862937
3039.688197	18144.636364
3040.909143	18147.142657
3042.129899	18153.146154
3043.348952	18193.738462
3044.569331	18222.769930
3045.786493	18273.398601
3047.004980	18314.406993
3048.221766	18339.284615
3049.438363	18366.292308
3050.654773	18385.453846
3051.867969	18416.743357
3053.084003	18429.548252
3054.296825	18417.186713
3055.512484	18403.648951
3056.723420	18407.543357
3057.935682	18426.147552
3059.147756	18458.398601
3060.359644	18479.601399
3061.569834	18500.871329
3062.779839	18513.060839
3063.989657	18548.186014
3065.197779	18578.310490
3066.405715	18618.482517
3067.611957	18660.379021
3068.819523	18672.469231
3070.025394	18708.411189
3071.231080	18732.410490
3072.436582	18757.045455
3073.640390	18789.128671
3074.845522	18788.395804
3076.048961	18781.995804
3077.250708	18799.407692
3078.452272	18801.657343
3079.653652	18811.918881
3080.854848	18826.513287
3082.054354	18843.723776
3083.253676	18826.392308
3084.454322	18855.267133
3085.653279	18864.040559
3086.849040	18868.673427
3088.047631	18883.341958
3089.243028	18886.856643
3090.439749	18883.532867
3091.633277	18888.927273
3092.829633	18887.274825
3094.024302	18914.100699
3095.215781	18912.067832
3096.411591	18899.135664
3097.602708	18906.583916
3098.795148	18918.707692
3099.984399	18929.545455
3101.176477	18936.802098
3102.366871	18956.592308
3103.554078	18973.568531
3104.742609	18985.867133
3105.932462	19003.485315
3107.119130	19011.630070
3108.305619	19027.639860
3109.491928	19009.604895
3110.679560	19006.763636
3111.864009	19014.339161
3113.046778	18999.061538
3114.232371	19016.178322
3115.416283	19006.548951
3116.598517	19013.918182
3117.780573	19044.062238
3118.962450	19071.858741
3120.144149	19079.910490
3121.324171	19088.828671
3122.502516	19101.625874
3123.683681	19120.014685
3124.861671	19154.379720
3126.039484	19160.043357
3127.217120	19156.356643
3128.393081	19159.764336
3129.568866	19144.846853
3130.745971	19171.334965
3131.921403	19184.516783
3133.095161	19209.847552
3134.267246	19196.686014
3135.440652	19197.715385
3136.613883	19234.221678
3137.785442	19279.731469
3138.958321	19325.879021
3140.128033	19359.673427
3141.299066	19379.579021
3142.468428	19394.448252
3143.636121	19406.630769
3144.806629	19433.214685
3145.972478	19425.311189
3147.142637	19442.432168
3148.308138	19435.028671
3149.473466	19435.451049
3150.638620	19454.633566
3151.803601	19450.537762
3152.969901	19429.206294
3154.131548	19383.629371
3155.294516	19336.842657
3156.457311	19266.762937
3157.619932	19185.167832
3158.780889	19115.232867
3159.941674	19060.025175
3161.102286	19023.696503
3162.261234	19004.147552
3163.420010	19008.130769
3164.578615	18995.794406
3165.737048	19001.395804
3166.895309	19009.447552
3168.051909	19020.732867
3169.206846	19034.003497
3170.363104	19028.400699
3171.517700	19041.012587
3172.672126	19081.118881
3173.824891	19109.581818
3174.977487	19143.970629
3176.129913	19192.732867
3177.282168	19239.780420
3178.434254	19260.731469
3179.583193	19308.791608
3180.734939	19346.401399
3181.885028	19381.468531
3183.033459	19429.857343
3184.181722	19490.511888
3185.329816	19589.638462
3186.477741	19696.454545
3187.624010	19759.653147
3188.770111	19838.564336
3189.914558	19880.851748
3191.058836	19919.677622
3192.202947	19927.420280
3193.348376	19930.476923
3194.490666	19916.800699
3195.632788	19919.830070
3196.774744	19909.253147
3197.916532	19915.146154
3199.058153	19937.511189
3200.196638	19947.766434
3201.336442	19971.496503
3202.477562	19997.310490
3203.615548	20018.227972
3204.751885	20036.222378
3205.888056	20062.261538
3207.025545	20085.944056
3208.161385	20122.931469
3209.298542	20135.588811
3210.431086	20128.287413
3211.567911	20120.054545
3212.700125	20089.760839
3213.833657	20044.446154
3214.967023	20009.513287
3216.097262	19941.480420
3217.230300	19870.837762
3218.360210	19791.646154
3219.491438	19729.330070
3220.619540	19685.970629
3221.750440	19679.069930
3222.879695	19656.616783
3224.007307	19676.064336
3225.131796	19676.967832
3226.260561	19713.898601
3227.386204	19741.399301
3228.511684	19790.660140
3229.635523	19828.422378
3230.762157	19852.918881
3231.884192	19873.406993
3233.007544	19899.539860
3234.130734	19923.711888
3235.253762	19947.202098
3236.375150	19945.931469
3237.496377	19967.790210
3238.615965	19987.971329
3239.735392	20062.041958
3240.853182	20121.792308
3241.973763	20234.693706
3243.091231	20321.675524
3244.208538	20442.242657
3245.325684	20550.387413
3246.441195	20650.486713
3247.558021	20716.162238
3248.671736	20788.124476
3249.788242	20844.672727
3250.903112	20879.880420
3252.014874	20903.762937
3253.126477	20939.832168
3254.239395	20938.506993
3255.352153	20985.336364
3256.461805	20995.220979
3257.572772	21049.418182
3258.683580	21072.432168
3259.792756	21099.718182
3260.900301	21143.454545
3262.009161	21226.920280
3263.117862	21295.236364
3264.223461	21347.727273
3265.330375	21386.113986
3266.435659	21437.320979
3267.542257	21441.377622
3268.645755	21479.847552
3269.750567	21480.323077
3270.855222	21502.509091
3271.956779	21509.886014
3273.058179	21538.486713
3274.160893	21567.188811
3275.263450	21618.483217
3276.362912	21633.009091
3277.465156	21654.413986
3278.564306	21676.436364
3279.661830	21697.493706
3280.759200	21700.532867
3281.859351	21694.672028
3282.956409	21674.390909
3284.053313	21685.828671
3285.150061	21669.177622
3286.242250	21687.548252
3287.338689	21694.095804
3288.433505	21686.846154
3289.528166	21713.006294
3290.621206	21755.318182
3291.714092	21803.976224
3292.805357	21826.730769
3293.897935	21849.634266
3294.988893	21863.762238
3296.078231	21879.814685
3297.167416	21903.511888
3298.257913	21878.236364
3299.345326	21901.881119
3300.432587	21915.852448
3301.521160	21942.813986
3302.609580	22001.006294
3303.693453	22044.953147
3304.781568	22083.629371
3305.866602	22105.852448
3306.950020	22165.912587
3308.034750	22203.111189
3309.117864	22254.632867
3310.202290	22288.976923
3311.283638	22326.222378
3312.366298	22356.227972
3313.447344	22381.611888
3314.528239	22405.864336
3315.607521	22413.050350
3316.686652	22438.593007
3317.767095	22449.944056
3318.844463	22448.932867
3319.923143	22483.572028
3321.000211	22494.904196
3322.077129	22534.890909
3323.152437	22573.796503
3324.227595	22610.590909
3325.304064	22636.492308
3326.377462	22682.851049
3327.450712	22701.790210
3328.525273	22722.300699
3329.598224	22736.370629
3330.669568	22714.243357
3331.742222	22708.115385
3332.811809	22704.759441
3333.882707	22683.766434
3334.951998	22644.908392
3336.022600	22640.118182
3337.091595	22594.928671
3338.158985	22603.615385
3339.224768	22592.264336
3340.294778	22554.761538
3341.361725	22552.324476
3342.425610	22544.717483
3343.492263	22544.766434
3344.557312	22560.255245
3345.620757	22566.220979
3346.684055	22565.273427
3347.747208	22574.639161
3348.810214	22592.461538
3349.873073	22594.746853
3350.934331	22604.157343
3351.992532	22611.465734
3353.054954	22627.932168
3354.114319	22683.574825
3355.173540	22724.888811
3356.234069	22792.595804
3357.290089	22858.965035
3358.348874	22912.376224
3359.403151	22976.115385
3360.460192	23052.109091
3361.515634	23092.841259
3362.572385	23155.119580
3363.627539	23176.333566
3364.681095	23195.916084
3365.733054	23223.388811
3366.787776	23252.919580
3367.839448	23251.574126
3368.890976	23278.307692
3369.943814	23296.153147
3370.993604	23313.006294
3372.044703	23337.595804
3373.092755	23381.628671
3374.143568	23414.469231
3375.191335	23457.626573
3376.238960	23497.961538
3377.286443	23518.369930
3378.332332	23550.063636
3379.379531	23562.536364
3380.423686	23565.696503
3381.470600	23579.526573
3382.515923	23584.037063
3383.558204	23587.570629
3384.600344	23585.800699
3385.643793	23608.651748
3386.687100	23604.683217
3387.728817	23612.161538
3388.770394	23652.146154
3389.811829	23674.362238
3390.851676	23687.400699
3391.889934	23719.762238
3392.929500	23765.401399
3393.968926	23775.307692
3395.006764	23790.448951
3396.043015	23801.944056
3397.079126	23827.239161
3398.116545	23870.678322
3399.150931	23863.110490
3400.186625	23883.067133
3401.222179	23909.673427
3402.254701	23941.290909
3403.289977	23951.757343
3404.322222	23984.517483
3405.354329	24011.244755
3406.384853	24025.753846
3407.416683	24045.506294
3408.448375	24066.481818
3409.477039	24094.495804
3410.505566	24118.060140
3411.535399	24103.988112
3412.565095	24134.390909
3413.591765	24159.328671
3414.619741	24193.150350
3415.644693	24217.353846
3416.672396	24271.228671
3417.697074	24303.630769
3418.723059	24336.255944
3419.747465	24372.988811
3420.771733	24364.286713
3421.794424	24359.559441
3422.816978	24325.818182
3423.840838	24296.143357
3424.861678	24247.591608
3425.882382	24195.987413
3426.904392	24157.106494
3427.923384	24140.492907
3428.942241	24155.690709
3429.962404	24212.243956
3430.979549	24319.696703
