-118.277064	77.854121
-115.607463	81.857143
-112.940798	85.327423
-110.274885	88.239261
-107.611905	90.566958
-104.947494	92.284815
-102.286014	93.367133
-99.623105	94.311189
-96.965303	91.302098
-94.306070	93.697203
-91.647586	89.716084
-88.992027	89.758042
-86.335039	87.566434
-83.683148	89.777622
-81.029828	87.882517
-78.379427	88.527273
-75.727598	90.412587
-73.080859	92.156643
-70.432690	92.170629
-67.785265	91.561538
-65.140753	90.734266
-62.494812	92.200699
-59.853954	90.092308
-57.211665	91.365035
-54.572286	90.863636
-51.931478	92.195804
-49.291409	93.754545
-46.656414	91.980420
-44.019989	94.712587
-41.386468	97.597902
-38.751517	96.286713
-36.121633	100.076923
-33.488155	98.390210
-30.859740	100.236364
-28.232059	100.920280
-25.602950	96.556643
-22.978897	67.497203
-20.351254	-26.432168
-17.728666	-226.403497
-15.106808	-126.977622
-12.485681	570.164336
-9.865285	1542.378322
-7.247776	2326.129371
-4.628839	2858.961538
-2.012788	3129.255944
0.602536	3146.149650
3.217131	2904.716783
5.828845	2412.601399
8.441986	1689.931469
11.050095	803.210490
13.661784	-29.186014
16.268443	-332.640559
18.876530	-138.316783
21.483893	79.014685
24.086231	108.994406
26.692147	108.448951
29.293042	106.014685
31.895364	103.532867
34.492668	100.616783
37.093548	103.749650
39.689414	106.232168
42.286707	106.200699
44.883281	107.590210
47.474846	112.026573
50.067839	110.141259
52.657972	110.425175
55.249531	113.054545
57.838231	115.943357
60.428359	114.708392
63.013487	116.888112
65.600043	115.467832
68.185884	120.460140
70.768872	122.182517
73.353287	128.039161
75.930572	130.291608
78.511424	132.312587
81.089427	133.712587
83.666720	135.158741
86.245440	136.045455
88.819177	137.695105
91.394341	133.353147
93.966662	136.915385
96.538276	136.432867
99.107049	140.553147
101.677249	145.722378
104.244610	154.444755
106.813398	163.911888
109.379349	179.605594
111.942464	203.946154
114.509137	238.416084
117.066587	291.820979
119.629723	379.637762
122.187900	536.708392
124.749631	838.182517
127.306405	1320.160839
129.864605	2080.767133
132.417853	3105.047552
134.970402	4407.686713
137.526503	5881.476923
140.077655	7426.586014
142.628110	8926.039860
145.177867	10284.354545
147.724805	11378.999301
150.271048	12194.201399
152.818716	12714.786014
155.365688	12999.553846
157.907724	13098.747552
160.449068	13143.947552
162.989718	13128.318881
165.531793	13125.762937
168.071058	13108.274126
170.607513	13110.799301
173.143278	13113.218881
175.680468	13119.016084
178.216967	13117.976923
180.750660	13125.782517
183.281549	13125.347552
185.811750	13131.622378
188.343376	13127.759441
190.872202	13144.302098
193.398228	13145.109091
195.923568	13151.506294
198.450333	13158.549650
200.974302	13176.741958
203.497585	13166.583217
206.020184	13151.479021
208.539990	13145.906294
211.059113	13145.824476
213.577553	13141.055944
216.097418	13141.874825
218.610280	13148.986713
221.126674	13156.555245
223.642387	13171.241958
226.153209	13199.990909
228.665456	13217.669231
231.174920	13235.024476
233.683706	13239.600699
236.191814	13254.534266
238.701346	13274.428671
241.205997	13302.863636
243.709972	13301.420979
246.215371	13314.500000
248.715895	13324.823077
251.219942	13327.152448
253.717019	13335.021678
256.217618	13344.706993
258.715446	13327.439860
261.212601	13318.599301
263.709084	13308.590210
266.200703	13312.087413
268.695841	13287.904895
271.188214	13271.663636
273.679916	13249.947552
276.168855	13231.886713
278.659217	13206.441958
281.146818	13195.917483
283.631659	13158.419580
286.120014	13151.146154
288.601431	13138.631469
291.086361	13154.242657
293.566445	13163.024476
296.050042	13183.310490
298.528797	13184.439860
301.008974	13202.081119
303.486400	13201.571329
305.963162	13195.552448
308.439260	13191.213287
310.912610	13219.967832
313.385299	13232.209790
315.857326	13277.409790
318.328691	13312.363636
320.797313	13345.593007
323.265275	13367.160839
325.734660	13381.274825
328.199222	13388.894406
330.667287	13384.793007
333.130533	13371.570629
335.593122	13365.620280
338.055053	13356.804895
340.516328	13372.623077
342.974869	13363.784615
345.434832	13367.574126
347.892063	13357.561538
350.348639	13347.160140
352.804560	13337.460839
355.257753	13317.695804
357.712368	13299.232168
360.162181	13280.093007
362.615490	13263.254545
365.064000	13233.062238
367.511860	13215.444056
369.961141	13205.399301
372.405629	13186.651049
374.851539	13179.047552
377.296800	13168.895804
379.739342	13173.176923
382.181236	13162.716084
384.622482	13158.808392
387.061013	13151.834965
389.500966	13145.030769
391.938205	13129.496503
394.372732	13111.497203
396.810747	13123.500699
399.243985	13111.537063
401.678645	13096.758741
404.108532	13102.553147
406.541904	13111.799301
408.970506	13112.464336
411.398466	13116.846154
413.827847	13126.083916
416.252464	13136.899301
418.678501	13148.431469
421.103899	13157.325175
423.528656	13174.732168
425.948654	13202.042657
428.370074	13213.957343
430.788797	13242.519580
433.208941	13270.229371
435.626390	13280.355944
438.045259	13289.430070
440.461435	13300.260140
442.872864	13304.853147
445.287769	13301.968531
447.699984	13305.711189
450.111565	13315.726573
452.522513	13320.236364
454.930773	13321.218881
457.338402	13332.090210
459.745398	13335.353846
462.151762	13330.063636
464.555445	13320.482517
466.958497	13311.462238
469.360919	13289.934965
471.762711	13282.223077
474.161825	13266.351049
476.562359	13259.348951
478.962264	13246.276224
481.357447	13225.355245
483.756095	13212.367133
486.150024	13203.944755
488.543327	13180.270629
490.936004	13170.928671
493.328056	13147.000699
495.721527	13119.474825
498.110285	13098.716783
500.496377	13085.881818
502.883889	13064.440559
505.270777	13056.554545
507.655002	13045.604895
510.040646	13046.805594
512.423627	13046.950350
514.803948	13058.158042
517.185688	13070.720280
519.564770	13103.265035
521.945269	13117.844056
524.323111	13129.174126
526.698298	13144.387413
529.072867	13153.601399
531.448855	13171.649650
533.822189	13179.709091
536.196942	13173.862238
538.567008	13170.444755
540.936459	13155.602797
543.307329	13155.130769
545.673517	13151.638462
548.041124	13146.812587
550.406085	13138.823776
552.770434	13139.011189
555.134169	13135.951049
557.499322	13155.051748
559.859803	13158.113986
562.221701	13152.081119
564.580960	13154.225874
566.937580	13157.922378
569.297646	13146.053846
571.651020	13124.099301
574.007839	13110.766434
576.362023	13086.932168
578.715598	13073.114685
581.068565	13050.032867
583.418901	13016.279021
585.770654	13004.460140
588.115729	12981.422378
590.466269	12984.122378
592.810136	12985.599301
595.159464	12990.956643
597.504143	12997.142657
599.846198	12992.237762
602.189670	12993.254545
604.530519	12986.631469
606.870765	12980.828671
609.208391	12961.335664
611.549452	12943.612587
613.885876	12938.643357
616.223716	12951.612587
618.558938	12957.258741
620.891545	12968.363636
623.225569	12985.918182
625.556978	13005.797203
627.887789	12998.864336
630.218002	13007.782517
632.547618	13016.751748
634.872610	13020.597902
637.203044	13016.444755
639.528856	13013.468531
641.852062	13013.250350
644.176684	13024.212587
646.498700	13026.893706
648.820122	13040.177622
651.138941	13051.830070
653.459176	13044.465035
655.778818	13034.655245
658.095859	13028.966434
660.412309	13026.447552
662.726160	13033.283916
665.041426	13037.662238
667.354096	13029.150350
669.668181	13029.283916
671.977667	13042.066434
674.288567	13045.171329
676.596875	13054.446853
678.904595	13056.409790
681.213730	13030.395105
683.518272	13019.062238
685.822228	12996.966434
688.125597	12991.312587
690.430381	12976.236364
692.730579	12972.705594
695.032192	12949.872028
697.333219	12940.213986
699.629665	12923.466434
701.927525	12912.326573
704.224803	12922.739860
706.521496	12932.232867
708.813614	12932.018182
711.109143	12938.420280
713.400099	12929.756643
715.692469	12934.097203
717.982263	12931.587413
720.271478	12955.276923
722.560113	12970.185315
724.846175	12980.016783
727.133651	12981.681119
729.418557	13007.367133
731.702884	13013.238462
733.984644	13040.672727
736.267817	13042.613287
738.550413	13056.600000
740.828453	13052.411189
743.107907	13066.495804
745.386786	13070.206294
747.665090	13083.240559
749.938843	13092.824476
752.214011	13096.569231
754.488605	13099.993706
756.760640	13094.993007
759.034088	13082.774825
761.304978	13108.555944
763.573312	13118.083916
765.843059	13132.997902
768.110251	13127.734266
770.376873	13144.660140
772.642926	13139.740559
774.906427	13139.741259
777.171340	13157.743357
779.435685	13171.155245
781.695499	13175.393007
783.956727	13173.123077
786.217387	13161.221678
788.475500	13166.181119
790.731070	13163.301399
792.990029	13129.717483
795.242490	13109.264336
797.500318	13101.289510
799.753627	13076.658042
802.004395	13060.480420
804.256576	13074.658741
806.506219	13064.016084
808.757273	13063.662238
811.003816	13051.402797
813.251772	13027.767133
815.497192	13020.851049
817.744025	13013.332867
819.990295	12995.135664
822.232062	12994.775524
824.477211	12998.809790
826.715888	13006.741259
828.957948	12987.452448
831.195509	12995.641259
833.434481	12997.393706
835.670928	12999.107692
837.908785	12992.988112
840.144117	12984.647552
842.376925	12997.962937
844.611145	12992.040559
846.842843	12999.971329
849.073986	13012.041958
851.304574	13019.700000
853.534608	13021.590909
855.764087	13020.976224
857.989086	13034.242657
860.217458	13049.205594
862.441352	13056.523776
864.666656	13055.186014
866.887485	13060.985315
869.111687	13085.032867
871.331415	13083.430070
873.552553	13085.372028
875.773141	13085.888811
877.991220	13086.974825
880.210708	13091.675524
882.425730	13096.893007
884.640204	13092.097902
886.854131	13079.065734
889.067510	13060.111888
891.280343	13038.810490
893.492628	13040.191608
895.702412	13019.039860
897.911650	12993.165035
900.120342	12966.852448
902.326536	12954.134965
904.534139	12960.714685
906.739245	12956.291608
908.943807	12942.469231
911.145874	12937.015385
913.349350	12932.479021
915.550332	12946.709091
917.750772	12961.332867
919.952621	12963.917483
922.148079	12967.274825
924.346895	12959.592308
926.541274	12976.709790
928.739010	12974.740559
930.932310	12972.744056
933.127018	12979.171329
935.319241	12979.654545
937.510926	12983.746853
939.702073	12995.253846
941.890737	13022.105594
944.078864	13038.106993
946.264511	13061.391608
948.453511	13098.171329
950.638086	13111.951748
952.822127	13141.055944
955.009518	13152.224476
957.188606	13174.071329
959.371044	13210.067832
961.552947	13228.455944
963.732377	13254.020979
965.909334	13278.546853
968.087699	13318.401399
970.267470	13328.744755
972.440893	13356.226573
974.617663	13369.038462
976.790025	13378.753147
978.963795	13379.943357
981.133161	13377.547552
983.305871	13372.347552
985.476115	13362.267832
987.645831	13359.269930
989.815018	13368.857343
991.979808	13366.390909
994.147940	13373.439161
996.311676	13357.665734
998.476820	13365.978322
1000.639504	13374.012587
1002.801663	13394.039860
1004.961364	13409.525175
1007.120542	13402.362238
1009.281126	13400.541958
1011.439255	13379.623077
1013.596860	13368.293007
1015.753942	13349.178322
1017.910501	13319.216084
1020.062680	13308.432867
1022.216266	13294.596503
1024.369330	13293.425874
1026.519945	13308.723776
1028.671966	13331.295804
1030.819615	13333.212587
1032.970594	13344.063636
1035.117204	13353.926573
1037.263294	13348.237762
1039.408866	13349.225175
1041.555842	13345.109790
1043.696531	13352.896503
1045.840548	13358.818881
1047.982126	13362.409790
1050.123186	13377.779021
1052.265651	13363.651748
1054.401837	13372.199301
1056.541349	13360.980420
1058.676505	13374.088811
1060.814986	13384.751748
1062.949114	13407.083217
1065.082728	13436.552448
1067.217746	13459.395105
1069.348415	13483.523077
1071.480490	13497.976923
1073.610134	13533.890909
1075.739267	13563.473427
1077.867889	13564.063636
1079.995999	13582.947552
1082.121683	13607.555245
1084.246857	13624.399301
1086.373434	13644.565734
1088.495675	13663.673427
1090.619320	13686.746853
1092.738630	13674.461538
1094.863169	13669.256643
1096.981464	13689.258042
1099.101162	13701.228671
1101.218442	13695.906294
1103.335216	13691.563636
1105.451483	13688.634965
1107.565335	13705.050350
1109.680590	13695.386014
1111.791523	13669.437063
1113.905768	13671.874825
1116.015692	13670.793706
1118.127019	13650.271329
1120.237843	13653.188112
1122.344350	13662.041958
1124.454166	13645.546853
1126.559668	13651.296503
1128.666574	13666.625874
1130.767264	13672.058042
1132.873165	13665.032168
1134.974758	13663.707692
1137.077754	13632.645455
1139.180249	13633.499301
1141.276538	13607.349650
1143.378033	13599.264336
1145.475226	13585.670629
1147.571920	13574.846154
1149.668117	13579.509790
1151.763815	13604.939860
1153.859016	13628.379021
1155.951820	13629.241259
1158.046026	13629.547552
1160.134041	13644.436364
1162.227254	13640.655245
1164.314279	13640.822378
1166.404604	13634.900699
1168.490640	13639.854545
1170.579974	13637.822378
1172.663127	13642.320280
1174.747683	13672.515385
1176.833639	13692.683916
1178.915315	13713.939860
1180.998391	13719.749650
1183.079082	13731.234965
1185.159282	13757.206294
1187.238990	13758.412587
1189.318207	13751.033566
1191.395041	13771.263636
1193.469495	13776.217483
1195.547241	13803.974126
1197.620716	13809.079720
1199.695593	13841.241958
1201.766202	13856.276224
1203.838212	13880.698601
1205.907846	13898.996503
1207.978881	13916.076923
1210.049428	13934.846154
1212.115715	13922.917483
1214.183401	13932.668531
1216.248716	13972.744056
1218.315431	13994.332168
1220.377890	14018.513986
1222.443635	14018.411888
1224.505125	14046.671329
1226.568015	14062.931469
1228.628538	14097.000000
1230.688578	14126.572028
1232.748134	14150.186014
1234.805326	14167.259441
1236.862035	14177.706294
1238.916382	14203.314685
1240.974009	14233.711189
1243.029274	14265.681119
1245.080298	14284.679021
1247.132723	14315.448252
1249.184667	14356.101399
1251.234253	14396.646154
1253.283360	14445.402098
1255.331988	14477.983217
1257.380138	14515.105594
1259.427810	14542.958741
1261.471251	14582.349650
1263.517967	14603.579021
1265.562331	14640.204895
1267.606217	14678.855944
1269.647753	14729.386713
1271.686939	14812.116084
1273.729397	14873.926573
1275.767634	14953.740559
1277.807268	15028.900699
1279.846428	15119.430769
1281.881370	15220.486713
1283.917710	15328.934965
1285.951705	15449.538462
1287.987099	15569.529371
1290.018279	15720.035664
1292.050858	15879.720979
1294.082964	16095.127972
1296.112730	16336.813986
1298.143894	16599.025175
1300.170850	16928.088112
1302.199204	17328.093007
1304.223354	17815.817483
1306.250769	18356.841958
1308.273981	18947.527273
1310.298591	19580.930070
1312.320866	21659.490909
1314.344539	25807.317483
1316.365879	31413.048951
1318.386752	37891.332867
1320.407157	44655.888112
1322.423369	51176.995804
1324.440978	56951.954545
1326.456259	61559.684615
1328.474799	64812.048252
1330.489149	67998.693706
1332.501174	68353.221678
1334.516457	65839.230769
1336.527554	61963.227273
1338.540047	56989.615385
1340.548358	50737.888112
1342.559925	43745.142657
1344.565453	36519.888811
1346.574235	29625.925874
1348.578841	23666.198601
1350.586700	19275.779021
1352.594097	17086.109091
1354.595462	17389.672028
1356.598225	17020.720280
1358.600528	16605.423077
1360.602370	16220.543357
1362.603754	15888.179021
1364.602823	15622.102797
1366.601434	15426.194406
1368.599587	15258.693706
1370.597282	15099.546853
1372.590813	14976.086014
1374.585741	14885.611189
1376.580212	14807.172028
1378.574226	14742.646154
1380.565933	14685.011888
1382.557184	14633.780420
1384.546130	14568.435664
1386.536471	14524.705594
1388.526357	14488.302797
1390.513940	14443.143357
1392.501069	14414.913287
1394.485896	14392.040559
1396.472118	14403.304895
1398.456039	14414.541958
1400.439508	14410.343357
1402.422525	14425.848252
1404.403244	14440.930769
1406.385357	14441.293706
1408.365173	14448.869231
1410.344539	14453.355944
1412.319766	14447.919580
1414.298231	14464.379720
1416.274403	14477.362238
1418.250125	14500.236364
1420.225398	14516.395105
1422.198381	14527.951748
1424.170915	14541.576224
1426.143001	14564.264336
1428.114639	14587.809790
1430.082150	14612.220979
1432.054734	14622.911888
1434.019512	14626.934266
1435.989363	14636.320280
1437.955089	14649.207692
1439.922209	14651.469930
1441.887045	14651.562937
1443.847761	14646.026573
1445.813545	14634.964336
1447.773374	14639.686014
1449.734596	14639.393706
1451.697211	14649.548951
1453.655711	14652.345455
1455.613769	14622.356643
1457.571384	14607.737063
1459.528558	14600.632168
1461.483456	14591.058042
1463.439746	14571.031469
1465.393762	14532.713986
1467.347338	14501.410490
1469.298641	14477.376923
1471.251336	14467.109091
1473.201760	14445.363636
1475.151745	14413.669231
1477.101291	14394.179021
1479.048567	14362.225874
1480.993577	14362.081818
1482.939979	14370.417483
1484.885943	14376.053846
1486.831470	14359.004196
1488.774731	14343.845455
1490.717556	14355.383916
1492.658118	14357.041259
1494.600072	14365.060839
1496.539763	14370.002098
1498.479019	14388.878322
1500.417841	14415.644056
1502.354403	14424.242657
1504.292355	14451.360140
1506.228050	14458.563636
1508.163311	14477.999301
1510.096315	14496.032867
1512.028887	14512.492308
1513.961027	14531.425175
1515.892735	14539.595105
1517.822190	14582.582517
1519.753034	14608.013986
1521.683448	14635.784615
1523.609789	14645.085315
1525.537520	14650.468531
1527.463001	14655.388811
1529.388053	14648.191608
1531.312676	14640.665734
1533.236870	14657.358741
1535.158817	14661.322378
1537.082153	14657.660839
1539.003244	14666.934266
1540.922090	14685.917483
1542.842326	14685.798601
1544.760318	14671.691608
1546.677884	14657.383916
1548.593209	14645.384615
1550.509922	14628.867133
1552.422581	14591.655245
1554.338444	14569.893706
1556.252068	14542.211189
1558.163453	14511.801399
1560.076227	14490.881119
1561.984953	14484.211189
1563.895067	14475.590210
1565.804758	14469.950350
1567.714026	14455.649650
1569.621059	14432.921678
1571.525860	14426.235664
1573.432050	14427.723077
1575.336009	14401.833566
1577.239546	14411.378322
1579.142662	14382.618182
1581.043550	14390.493007
1582.945826	14397.551049
1584.845873	14403.755944
1586.747309	14401.409790
1588.644710	14378.674825
1590.541694	14362.702797
1592.438259	14343.901399
1594.336211	14332.197902
1596.228329	14326.699301
1598.123641	14311.893007
1600.018534	14314.038462
1601.911207	14299.288811
1603.803462	14285.156643
1605.693498	14282.242657
1607.583118	14271.067832
1609.472323	14264.699301
1611.361112	14266.984615
1613.247685	14280.705594
1615.135645	14279.442657
1617.019588	14277.302797
1618.904918	14289.054545
1620.789835	14298.200699
1622.672538	14304.778322
1624.556628	14286.082517
1626.436706	14277.344755
1628.318171	14274.222378
1630.197426	14263.293007
1632.078067	14268.729371
1633.952905	14286.788112
1635.832723	14265.286014
1637.708536	14250.160140
1639.583940	14258.069231
1641.460729	14257.766434
1643.331721	14256.202797
1645.205896	14267.631469
1647.076071	14251.484615
1648.949427	14242.269930
1650.820580	14229.702797
1652.689531	14219.916783
1654.559868	14224.954545
1656.426211	14215.248252
1658.293941	14202.180420
1660.159471	14201.879021
1662.026386	14194.788112
1663.889313	14190.394406
1665.753625	14188.037063
1667.615742	14190.006993
1669.477453	14181.341259
1671.340549	14168.590909
1673.201451	14151.290210
1675.060159	14153.527972
1676.918465	14168.467832
1678.778154	14141.026573
1680.632077	14142.035664
1682.489173	14138.779720
1684.345865	14131.918881
1686.198582	14140.886713
1688.054470	14162.475524
1689.906384	14167.633566
1691.757897	14175.916783
1693.609009	14168.657343
1695.459720	14171.006993
1697.310031	14194.384615
1699.158158	14193.489510
1701.007668	14163.243357
1702.851430	14170.209091
1704.700142	14177.731469
1706.543107	14183.919580
1708.389238	14198.197902
1710.231408	14219.151748
1712.076742	14203.580420
1713.916336	14189.137063
1715.757314	14190.157343
1717.599676	14197.662238
1719.438080	14200.453846
1721.277868	14205.546154
1723.115481	14203.798601
1724.952698	14224.249650
1726.787742	14232.592308
1728.624169	14250.889510
1730.458424	14257.555245
1732.292285	14247.124476
1734.125751	14237.109091
1735.955271	14236.267832
1737.787950	14233.564336
1739.616685	14238.042657
1741.448578	14245.567832
1743.276528	14259.616783
1745.104086	14258.169231
1746.931253	14279.288112
1748.758028	14295.706294
1750.584411	14309.197203
1752.406858	14310.940559
1754.232459	14302.706294
1756.054126	14320.173427
1757.877175	14325.640559
1759.698063	14315.225874
1761.518561	14311.125175
1763.340441	14312.295804
1765.156621	14322.900000
1766.975953	14328.727273
1768.791358	14354.002098
1770.609914	14366.488811
1772.424544	14367.483916
1774.238787	14386.574825
1776.052644	14389.374825
1777.866114	14404.725175
1779.677430	14413.286713
1781.490128	14413.582517
1783.302439	14409.002797
1785.110833	14412.086014
1786.920608	14425.273427
1788.726467	14419.951049
1790.535473	14431.027273
1792.340565	14431.927972
1794.147037	14441.958741
1795.953126	14463.518881
1797.755305	14483.282517
1799.560627	14498.077622
1801.362041	14527.104895
1803.164835	14531.873427
1804.963724	14515.681818
1806.763992	14489.733566
1808.563880	14484.168531
1810.361625	14457.869930
1812.158990	14452.232867
1813.955974	14440.506993
1815.752578	14448.700699
1817.547043	14465.800699
1819.342888	14493.297203
1821.133077	14505.055245
1822.928163	14533.730070
1824.717596	14525.906993
1826.510167	14513.062238
1828.300602	14498.790210
1830.088902	14502.051049
1831.880338	14493.675524
1833.666129	14504.060140
1835.453298	14507.472028
1837.238337	14520.200000
1839.026508	14524.932867
1840.810794	14540.277622
1842.592951	14545.519580
1844.376487	14569.705594
1846.157894	14575.541958
1847.940679	14594.336364
1849.719585	14618.088811
1851.499869	14640.880420
1853.278028	14658.762238
1855.057564	14688.890210
1856.834976	14701.166434
1858.610264	14694.523776
1860.386931	14690.357343
1862.161475	14712.723077
1863.937396	14718.379021
1865.707698	14748.383916
1867.481127	14765.236364
1869.252436	14789.350350
1871.023374	14831.414685
1872.795689	14855.873427
1874.562392	14872.746853
1876.332219	14898.216084
1878.098183	14902.669930
1879.867271	14899.024476
1881.632497	14908.006294
1883.397355	14919.953846
1885.163589	14922.160839
1886.925965	14926.318182
1888.687974	14940.117483
1890.449616	14943.660839
1892.210890	14955.407692
1893.971798	14961.958741
1895.732338	14951.020280
1897.490770	14954.980420
1899.248835	14952.710490
1901.004793	14952.237063
1902.762127	14950.232867
1904.519095	14956.568531
1906.273958	14979.618182
1908.026715	14974.344056
1909.779109	14983.699301
1911.532879	14992.071329
1913.284545	15011.564336
1915.034108	15030.460839
1916.785048	15043.427273
1918.535624	15058.163636
1920.282362	15079.302098
1922.030475	15098.894406
1923.776489	15123.972727
1925.523879	15148.122378
1927.269170	15176.418182
1929.012364	15182.388811
1930.756934	15207.516084
1932.499407	15248.665734
1934.241520	15290.165035
1935.983274	15324.910490
1937.724667	15362.393706
1939.463967	15383.216084
1941.202908	15414.101399
1942.941490	15422.574825
1944.677980	15448.733566
1946.414113	15480.130070
1948.151620	15491.635664
1949.885306	15515.733566
1951.620366	15541.880420
1953.353337	15568.146853
1955.085952	15618.655245
1956.818210	15636.237762
1958.550112	15668.946154
1960.279928	15694.325175
1962.007660	15725.016084
1963.736766	15745.591608
1965.465516	15789.463636
1967.192183	15829.618182
1968.918496	15844.842657
1970.646182	15877.376923
1972.368333	15905.015385
1974.093584	15946.369930
1975.815028	15992.534965
1977.539572	15995.910490
1979.262037	16025.916783
1980.980698	16053.058741
1982.702458	16089.104895
1984.420416	16103.976224
1986.139748	16129.018881
1987.855279	16150.625874
1989.575632	16164.095804
1991.292186	16193.858741
1993.004943	16226.765035
1994.720796	16264.041958
1996.434577	16296.627273
1998.148008	16313.176923
1999.859367	16355.035664
2001.572100	16402.179021
2003.281041	16446.286713
2004.993076	16477.609790
2006.699601	16515.926573
2008.409219	16528.190909
2010.116769	16545.765035
2011.823972	16573.613287
2013.529109	16573.254545
2015.233899	16577.066434
2016.940061	16580.372028
2018.642441	16583.734266
2020.346193	16607.085315
2022.047882	16609.241958
2023.749225	16631.000699
2025.450223	16659.099301
2027.149161	16683.010490
2028.849470	16715.577622
2030.546003	16736.383916
2032.243908	16758.325874
2033.939755	16767.655245
2035.638687	16794.627972
2037.332133	16821.160140
2039.026950	16832.868531
2040.721424	16839.439860
2042.412130	16827.972028
2044.105920	16836.579720
2045.795943	16837.952448
2047.487337	16850.363636
2049.176678	16854.414685
2050.867389	16816.602098
2052.554338	16813.485315
2054.240946	16802.392308
2055.928925	16800.427273
2057.613144	16768.772727
2059.298733	16741.627273
2060.983983	16712.774126
2062.667185	16667.239860
2064.351757	16650.049650
2066.030865	16652.580420
2067.714759	16660.101399
2069.393193	16657.346853
2071.074704	16673.137762
2072.752463	16709.850350
2074.429886	16744.713986
2076.108678	16776.187413
2077.785427	16793.946154
2079.460135	16823.251748
2081.136212	16813.530769
2082.810249	16812.921678
2084.483950	16827.952448
2086.157316	16844.308392
2087.828644	16850.281818
2089.499637	16862.076224
2091.170296	16874.544056
2092.840621	16889.705594
2094.510611	16914.694406
2096.178566	16944.231469
2097.846188	16984.604196
2099.511776	17028.171329
2101.178732	17071.093706
2102.843655	17142.665734
2104.508245	17207.538462
2106.170804	17265.114685
2107.834732	17322.195105
2109.496628	17372.180420
2111.158193	17407.470629
2112.819428	17437.966434
2114.478633	17449.711189
2116.137509	17476.949650
2117.796054	17499.263636
2119.454270	17524.641958
2121.108763	17544.054545
2122.766320	17575.827273
2124.423547	17591.202098
2126.077054	17618.377622
2127.731928	17647.806294
2129.383083	17650.862238
2131.037301	17667.046154
2132.687801	17674.770629
2134.339669	17698.774126
2135.986128	17705.934965
2137.637341	17732.816084
2139.284842	17752.007692
2140.933709	17763.185315
2142.580557	17787.494406
2144.227080	17801.750350
2145.873277	17835.397902
2147.515765	17830.281818
2149.161312	17827.604196
2150.803152	17843.086014
2152.448049	17856.303497
2154.089241	17868.260839
2155.730109	17870.008392
2157.370654	17902.511888
2159.009186	17903.665035
2160.649084	17915.560140
2162.285282	17926.957343
2163.922846	17942.569231
2165.560088	17976.141958
2167.195320	17989.057343
2168.830230	18035.518881
2170.464819	18058.078322
2172.099087	18085.208392
2173.729661	18119.030070
2175.363286	18164.146154
2176.993220	18192.816783
2178.624520	18200.856643
2180.253814	18215.439161
2181.882789	18203.849650
2183.511444	18216.846154
2185.139780	18226.794406
2186.766113	18211.888112
2188.392128	18212.103497
2190.016142	18205.372727
2191.641521	18196.383217
2193.264899	18215.773427
2194.889642	18224.295804
2196.510703	18230.634266
2198.131449	18219.391608
2199.753558	18235.997902
2201.373670	18241.244056
2202.991786	18258.123776
2204.609586	18263.304196
2206.227070	18285.750350
2207.844239	18325.234266
2209.461093	18385.511189
2211.077632	18425.841958
2212.692177	18487.034965
2214.304731	18517.469231
2215.918648	18567.779720
2217.530573	18613.019580
2219.143863	18672.695804
2220.755161	18704.913986
2222.364471	18727.555944
2223.975143	18766.915385
2225.583827	18812.958741
2227.192199	18854.417483
2228.798583	18913.283916
2230.406331	18957.136364
2232.012092	19016.081818
2233.617543	19049.888811
2235.221008	19103.525874
2236.825836	19164.505594
2238.428680	19216.522378
2240.029541	19243.365734
2241.631765	19295.324476
2243.232007	19342.681818
2244.833611	19373.988811
2246.431562	19414.241958
2248.030876	19480.620280
2249.628210	19533.667832
2251.225236	19606.511189
2252.823623	19634.251049
2254.418362	19674.629371
2256.011125	19705.641259
2257.605249	19728.992308
2259.200736	19731.568531
2260.792577	19766.412587
2262.384112	19772.720979
2263.977008	19791.462238
2265.564595	19812.000699
2267.156879	19848.408392
2268.743855	19869.370629
2270.333860	19899.600699
2271.918560	19898.311189
2273.507954	19895.102098
2275.092045	19876.072727
2276.677498	19860.425874
2278.260982	19875.734965
2279.847491	19881.688811
2281.430367	19895.709790
2283.012939	19916.597203
2284.595209	19934.418182
2286.173848	19960.462238
2287.755512	19963.670629
2289.333547	19993.562937
2290.914605	20000.649650
2292.492036	19979.562238
2294.067504	19980.381818
2295.645994	19972.109790
2297.220859	20010.313986
2298.795425	20006.437762
2300.369689	20028.365035
2301.943653	20047.086014
2303.517317	20067.546853
2305.090680	20087.797203
2306.660425	20099.068531
2308.229871	20154.523077
2309.802336	20197.779021
2311.369526	20221.391608
2312.939733	20289.520280
2314.506327	20348.396503
2316.074279	20424.206294
2317.640277	20483.302797
2319.205977	20547.662937
2320.771379	20614.317483
2322.334828	20675.647552
2323.899636	20728.058042
2325.460835	20772.866434
2327.025049	20842.255245
2328.584002	20892.099301
2330.145968	20925.162238
2331.705984	20981.836364
2333.265704	21022.209790
2334.823475	21051.013986
2336.380952	21110.465734
2337.938133	21161.662238
2339.493368	21226.387413
2341.048308	21275.542657
2342.602955	21304.047552
2344.157308	21340.235664
2345.711367	21391.222378
2347.265133	21404.975524
2348.816954	21414.183916
2350.366832	21400.241958
2351.919718	21399.265035
2353.467362	21408.634965
2355.018013	21442.976923
2356.565074	21470.833566
2358.113492	21502.985315
2359.661618	21536.337063
2361.206157	21581.011888
2362.752053	21624.103497
2364.296010	21655.399301
2365.841325	21678.272727
2367.383055	21701.923077
2368.926143	21713.297203
2370.467294	21749.411189
2372.008156	21776.556643
2373.548729	21838.688112
2375.089013	21866.234266
2376.629008	21902.958741
2378.165424	21958.170629
2379.704842	22018.233566
2381.240683	22037.116084
2382.777880	22082.797203
2384.311503	22119.993706
2385.848125	22173.928671
2387.382817	22214.546853
2388.915578	22284.796503
2390.448054	22354.002797
2391.978601	22429.053846
2393.512146	22448.285315
2395.040480	22513.390909
2396.570170	22583.047552
2398.099575	22660.764336
2399.628695	22732.083916
2401.157529	22790.006993
2402.681159	22831.493007
2404.209424	22911.784615
2405.732486	22963.603497
2407.260183	23040.746154
2408.781039	23088.328671
2410.306529	23139.211888
2411.828459	23186.151748
2413.351743	23261.880420
2414.873107	23305.576224
2416.392551	23363.211189
2417.913350	23390.714685
2419.432230	23406.124476
2420.950828	23434.093007
2422.467509	23493.229371
2423.985545	23539.196503
2425.503299	23588.774126
2427.017501	23640.288112
2428.531423	23712.620280
2430.045066	23772.689510
2431.560062	23827.428671
2433.071511	23851.381818
2434.584313	23899.521678
2436.095203	23939.972727
2437.605813	23977.862937
2439.114512	24038.190210
2440.626198	24109.576224
2442.134340	24146.183916
2443.642203	24189.861538
2445.149789	24261.411888
2446.653835	24316.217483
2448.160865	24385.306294
2449.665987	24471.202098
2451.170832	24540.602797
2452.673770	24624.665734
2454.176431	24719.374825
2455.678816	24785.040559
2457.179296	24878.462937
2458.681129	24913.434965
2460.181058	24949.045455
2461.680711	24980.083916
2463.180089	25005.351049
2464.677564	25001.274825
2466.173137	24995.679720
2467.671690	24995.426573
2469.166715	24930.209091
2470.663092	24904.774825
2472.155943	24865.644056
2473.650146	24841.218881
2475.144077	24818.142657
2476.634483	24783.349650
2478.127867	24772.172028
2479.619353	24779.639161
2481.108942	24814.451049
2482.598259	24870.676923
2484.085680	24900.397203
2485.576077	24948.316084
2487.062955	24963.843357
2488.551186	25007.037762
2490.035899	25019.076224
2491.520342	25070.654545
2493.006137	25061.286713
2494.490039	25066.474126
2495.975293	25075.700000
2497.455413	25090.930070
2498.938505	25097.070629
2500.419708	25113.920280
2501.900640	25101.891608
2503.379684	25096.172028
2504.858460	25053.069930
2506.336967	25010.833566
2507.815205	24978.348951
2509.293176	24958.231469
2510.767641	24904.116084
2512.245075	24892.097902
2513.719006	24890.373427
2515.194288	24854.479720
2516.669302	24854.744755
2518.140815	24842.691608
2519.613679	24815.823077
2521.084660	24802.475524
2522.556991	24772.844755
2524.024208	24738.644755
2525.494392	24713.007692
2526.962694	24691.206294
2528.430732	24662.700699
2529.898505	24661.984615
2531.366013	24687.865734
2532.833257	24690.999301
2534.297008	24768.193007
2535.762109	24795.504196
2537.225333	24861.465035
2538.689906	24934.023077
2540.150991	25015.755245
2541.613425	25085.930769
2543.075596	25145.007692
2544.534280	25187.301399
2545.997537	25191.741259
2547.455697	25218.695105
2548.915206	25237.000000
2550.369622	25245.672028
2551.828608	25269.053147
2553.285721	25263.639860
2554.740964	25260.600000
2556.195946	25254.172727
2557.649058	25305.142657
2559.103519	25324.065035
2560.556111	25335.397902
2562.008443	25348.007692
2563.458907	25358.851748
2564.912327	25388.025874
2566.360665	25411.712587
2567.811959	25478.325175
2569.261386	25500.569930
2570.707342	25551.406294
2572.156252	25582.295105
2573.601691	25637.730070
2575.048479	25702.087413
2576.493403	25751.694406
2577.938070	25781.086713
2579.384084	25788.260839
2580.826631	25783.878322
2582.270526	25761.727972
2583.710956	25769.465035
2585.152734	25801.772727
2586.592652	25804.648951
2588.033917	25860.513986
2589.471720	25911.520280
2590.912473	25958.958741
2592.348163	26025.362937
2593.786803	26096.105594
2595.223586	26139.538462
2596.658512	26198.180420
2598.096387	26253.508392
2599.529204	26287.168531
2600.963368	26303.369930
2602.395677	26338.735664
2603.829334	26355.401399
2605.261136	26383.870629
2606.692686	26389.946154
2608.123982	26396.298601
2609.553427	26398.611888
2610.982619	26407.780420
2612.409960	26456.716084
2613.838648	26485.045455
2615.267083	26527.122378
2616.692072	26565.293007
2618.118406	26604.082517
2619.542892	26682.121678
2620.968724	26701.186014
2622.391112	26716.754545
2623.814846	26714.369930
2625.236734	26714.769930
2626.658371	26697.573427
2628.078164	26702.789510
2629.499301	26743.667832
2630.920189	26707.835664
2632.337639	26741.065734
2633.758028	26744.423077
2635.174980	26787.569231
2636.591684	26820.965035
2638.008139	26823.255944
2639.424346	26822.474825
2640.840304	26836.530769
2642.254422	26837.624476
2643.668293	26838.314685
2645.080324	26885.348252
2646.493700	26943.706294
2647.903646	26969.116783
2649.316528	27009.619580
2650.725981	27034.427273
2652.135188	27088.439161
2653.542559	27119.553147
2654.952864	27165.744056
2656.361333	27204.258042
2657.767967	27296.068531
2659.174356	27333.813986
2660.578911	27434.151748
2661.984810	27597.790909
2663.388876	27721.756643
2664.792698	27827.316084
2666.196275	27869.419580
2667.598021	27876.986014
2669.001110	27810.029371
2670.400781	27694.430070
2671.801796	27580.213986
2673.199395	27436.392308
2674.599923	27354.598601
2675.997037	27252.066434
2677.395494	27189.095105
2678.792123	27153.779720
2680.188511	27093.565734
2681.584656	27081.367133
2682.978975	27069.093706
2684.374637	27016.700000
2685.766889	26995.458741
2687.160485	26965.323776
2688.552256	26939.804196
2689.945369	26932.537063
2691.336659	26977.541958
2692.726126	26995.642657
2694.115354	26988.472028
2695.504341	27008.277622
2696.894671	27021.152448
2698.280016	27075.868531
2699.668286	27110.891608
2701.054735	27099.606294
2702.440945	27154.361538
2703.826916	27146.334965
2705.209489	27153.067133
2706.593404	27194.498601
2707.977080	27229.857343
2709.360519	27277.736364
2710.740562	27318.972727
2712.121947	27346.726573
2713.501516	27397.351049
2714.882427	27453.966434
2716.261523	27507.531469
2717.638805	27546.933566
2719.017428	27614.931469
2720.394237	27655.903497
2721.770811	27736.803497
2723.147149	27810.981119
2724.521675	27890.437762
2725.897542	27955.685315
2727.270022	27985.215385
2728.645419	28000.775524
2730.015854	28049.116783
2731.387631	28077.476224
2732.759174	28096.544056
2734.128908	28128.061538
2735.499982	28164.595804
2736.869249	28181.440559
2738.238282	28199.460140
2739.605508	28252.230070
2740.972502	28297.232867
2742.339263	28324.231469
2743.705791	28346.275524
2745.070515	28387.413287
2746.435006	28454.823776
2747.799265	28495.357343
2749.163293	28541.134965
2750.527088	28619.669930
2751.887510	28660.614685
2753.250843	28652.364336
2754.609233	28674.063636
2755.970533	28706.051049
2757.328462	28695.717483
2758.689301	28689.512587
2760.048339	28661.268531
2761.404009	28685.063636
2762.762588	28699.025175
2764.117799	28715.228671
2765.472781	28768.602797
2766.825966	28829.507692
2768.182058	28864.572727
2769.534786	28931.711189
2770.887285	29011.377622
2772.239557	29048.202098
2773.593166	29070.050350
2774.943414	29084.853147
2776.291869	29106.016783
2777.643228	29166.595105
2778.991228	29168.876224
2780.340567	29175.906294
2781.688113	29192.912587
2783.035432	29195.050350
2784.382525	29179.439161
2785.727827	29211.939860
2787.072903	29207.123077
2788.417753	29215.409790
2789.762377	29249.972028
2791.103648	29307.129371
2792.446258	29395.068531
2793.788643	29489.119580
2795.130802	29575.395804
2796.469612	29676.462937
2797.811322	29772.802098
2799.149683	29834.853846
2800.489382	29866.238462
2801.827295	29937.678322
2803.163424	29959.890909
2804.499330	30014.545455
2805.836572	30071.941259
2807.172031	30162.358741
2808.507267	30189.760839
2809.840721	30279.419580
2811.175511	30391.616084
2812.506960	30465.760140
2813.841305	30528.927972
2815.170752	30573.190909
2816.501536	30643.867832
2817.832098	30701.644755
2819.160881	30729.706993
2820.491001	30790.718182
2821.819341	30846.369930
2823.147461	30893.279021
2824.473804	30899.640559
2825.801482	30944.938462
2827.125828	30935.807692
2828.451510	30922.911189
2829.775416	30915.062937
2831.099102	30918.726573
2832.424124	30908.043357
2833.745817	30918.413287
2835.067290	30913.652448
2836.388545	30960.467832
2837.709581	30971.473427
2839.028845	30969.022378
2840.349444	30971.381119
2841.668271	30943.515385
2842.986880	30921.938462
2844.303719	30963.630769
2845.620340	30954.705594
2846.936743	30968.382517
2848.251378	30978.106993
2849.567347	31025.497902
2850.879997	31049.065734
2852.193981	31114.850350
2853.507749	31134.597203
2854.821300	31169.376923
2856.133084	31230.895804
2857.443103	31270.151748
2858.754456	31353.288811
2860.062493	31459.423776
2861.371866	31516.100699
2862.681023	31599.259441
2863.989965	31673.358741
2865.297144	31734.877622
2866.602559	31810.151748
2867.909309	31893.732168
2869.214297	31934.304196
2870.519070	31986.079720
2871.822083	32070.813287
2873.127976	32088.397902
2874.429015	32172.088811
2875.731387	32212.185315
2877.032000	32233.657343
2878.333947	32266.814685
2879.635681	32282.633566
2880.934111	32306.371329
2882.233874	32296.548951
2883.531880	32291.400699
2884.829674	32278.430769
2886.125711	32301.737762
2887.423082	32326.017483
2888.718697	32349.483217
2890.014102	32403.994406
2891.309295	32418.875524
2892.601190	32452.700699
2893.895962	32489.693007
2895.187438	32520.651049
2896.480246	32520.068531
2897.772844	32494.672028
2899.062147	32530.334965
2900.352783	32563.249650
2901.641669	32583.527273
2902.931886	32609.531469
2904.218812	32659.832168
2905.507070	32692.725874
2906.793579	32734.327273
2908.079879	32784.468531
2909.365971	32820.438462
2910.650315	32840.583916
2911.937531	32861.936364
2913.219920	32930.626573
2914.503641	32984.411189
2915.785615	33006.541958
2917.067383	33040.063636
2918.347405	33068.820979
2919.630297	33087.683217
2920.911444	33093.081119
2922.189309	33156.523776
2923.470043	33160.721678
2924.747496	33144.595804
2926.024744	33126.306993
2927.300249	33122.916084
2928.578622	33129.507692
2929.852181	33117.811888
2931.128606	33122.878322
2932.403291	33147.272028
2933.676236	33171.862238
2934.950511	33189.609790
2936.223047	33219.000699
2937.495379	33270.803497
2938.764438	33263.479720
2940.036362	33258.389510
2941.306548	33246.524476
2942.576530	33241.814685
2943.846309	33258.730769
2945.114351	33276.555944
2946.380658	33312.354545
2947.646762	33359.271329
2948.914197	33394.149650
2950.179896	33385.274825
2951.445393	33437.359441
2952.710689	33450.234965
2953.972719	33482.876224
2955.236079	33508.260140
2956.499238	33534.733566
2957.760664	33570.377622
2959.023420	33610.642657
2960.284445	33667.353147
2961.543739	33727.383916
2962.802832	33782.734266
2964.061725	33812.539161
2965.320418	33835.247552
2966.578911	33927.053846
2967.835675	33955.376224
2969.092240	34015.211189
2970.347076	34058.083217
2971.603242	34089.421678
2972.856152	34127.034266
2974.110392	34174.581119
2975.364433	34197.683217
2976.616748	34226.465734
2977.868865	34278.899301
2979.119257	34327.404895
2980.372504	34378.004196
2981.620974	34434.143357
2982.872298	34474.029371
2984.120374	34515.546853
2985.368252	34580.888811
2986.615933	34599.148252
2987.863418	34634.695105
2989.109181	34635.206993
2990.354747	34645.567133
2991.601642	34690.558741
2992.845291	34734.497203
2994.090269	34782.935664
2995.332004	34806.567133
2996.576590	34825.509790
2997.819457	34875.846154
2999.059082	34904.398601
3000.301559	34967.790909
3001.540795	34945.322378
3002.781359	34993.427972
3004.020206	35007.468531
3005.258859	35046.161538
3006.495796	35091.660839
3007.734061	35115.574825
3008.970610	35154.848951
3010.206966	35190.964336
3011.443128	35246.932168
3012.677576	35316.062937
3013.911831	35366.828671
3015.145893	35428.934266
3016.378243	35493.474126
3017.608881	35555.992308
3018.842365	35576.579021
3020.074138	35621.736364
3021.304199	35667.020979
3022.534069	35706.605594
3023.762229	35739.937762
3024.991716	35778.546853
3026.219493	35820.483916
3027.447079	35867.281119
3028.675991	35937.197203
3029.900161	35957.500699
3031.127174	36002.721678
3032.350964	35994.735664
3033.576079	36009.275524
3034.799488	36047.850350
3036.022708	36069.468531
3037.244222	36081.707692
3038.468577	36107.869930
3039.688197	36159.297902
3040.909143	36201.343357
3042.129899	36267.453846
3043.348952	36345.965734
3044.569331	36394.179021
3045.786493	36466.490210
3047.004980	36545.207692
3048.221766	36589.219580
3049.438363	36631.300699
3050.654773	36673.350350
3051.867969	36710.935664
3053.084003	36758.609091
3054.296825	36770.420280
3055.512484	36769.740559
3056.723420	36781.405594
3057.935682	36799.028671
3059.147756	36856.509091
3060.359644	36869.277622
3061.569834	36901.076923
3062.779839	36925.386014
3063.989657	36992.777622
3065.197779	37045.567832
3066.405715	37102.095105
3067.611957	37159.435664
3068.819523	37167.716783
3070.025394	37221.965734
3071.231080	37267.890210
3072.436582	37312.569231
3073.640390	37384.286713
3074.845522	37420.626573
3076.048961	37471.101399
3077.250708	37519.858741
3078.452272	37545.713287
3079.653652	37559.927273
3080.854848	37589.260140
3082.054354	37596.495105
3083.253676	37564.530769
3084.454322	37601.920979
3085.653279	37598.025874
3086.849040	37601.050350
3088.047631	37614.834266
3089.243028	37618.227972
3090.439749	37610.148951
3091.633277	37589.548252
3092.829633	37612.913986
3094.024302	37657.652448
3095.215781	37689.124476
3096.411591	37664.565734
3097.602708	37686.890210
3098.795148	37731.031469
3099.984399	37763.648951
3101.176477	37767.141958
3102.366871	37796.781818
3103.554078	37819.763636
3104.742609	37850.153147
3105.932462	37877.797203
3107.119130	37918.195105
3108.305619	37942.733566
3109.491928	37932.195105
3110.679560	37907.864336
3111.864009	37922.242657
3113.046778	37916.869930
3114.232371	37961.402797
3115.416283	37949.004196
3116.598517	38009.927972
3117.780573	38052.425175
3118.962450	38110.891608
3120.144149	38150.762937
3121.324171	38181.394406
3122.502516	38202.456643
3123.683681	38197.434965
3124.861671	38211.756643
3126.039484	38216.799301
3127.217120	38212.534965
3128.393081	38222.403497
3129.568866	38180.120979
3130.745971	38217.286713
3131.921403	38203.098601
3133.095161	38249.200699
3134.267246	38280.101399
3135.440652	38323.469231
3136.613883	38393.987413
3137.785442	38486.925874
3138.958321	38589.544056
3140.128033	38680.956643
3141.299066	38727.285315
3142.468428	38758.220280
3143.636121	38774.905594
3144.806629	38780.367133
3145.972478	38760.873427
3147.142637	38785.655944
3148.308138	38790.506993
3149.473466	38799.474825
3150.638620	38805.202098
3151.803601	38810.738462
3152.969901	38747.855944
3154.131548	38653.658042
3155.294516	38553.459441
3156.457311	38436.512587
3157.619932	38268.978322
3158.780889	38143.665734
3159.941674	38055.495105
3161.102286	38009.944056
3162.261234	37977.404196
3163.420010	37980.533566
3164.578615	37977.569231
3165.737048	37983.655944
3166.895309	37990.023077
3168.051909	38020.379720
3169.206846	38065.728671
3170.363104	38063.869231
3171.517700	38083.804895
3172.672126	38153.235664
3173.824891	38160.354545
3174.977487	38232.441958
3176.129913	38276.935664
3177.282168	38373.411888
3178.434254	38416.062937
3179.583193	38498.665734
3180.734939	38614.081119
3181.885028	38719.053846
3183.033459	38839.839860
3184.181722	38974.655245
3185.329816	39159.499301
3186.477741	39330.424476
3187.624010	39415.595105
3188.770111	39553.913986
3189.914558	39614.439860
3191.058836	39721.469930
3192.202947	39742.760140
3193.348376	39776.291608
3194.490666	39796.463636
3195.632788	39788.573427
3196.774744	39804.718182
3197.916532	39839.300000
3199.058153	39860.032867
3200.196638	39888.423077
3201.336442	39891.127273
3202.477562	39934.511888
3203.615548	39961.474825
3204.751885	40004.781818
3205.888056	40044.664336
3207.025545	40086.835664
3208.161385	40177.019580
3209.298542	40189.518182
3210.431086	40221.254545
3211.567911	40225.974825
3212.700125	40163.571329
3213.833657	40100.957343
3214.967023	39996.739161
3216.097262	39888.978322
3217.230300	39756.916783
3218.360210	39602.871329
3219.491438	39480.430769
3220.619540	39427.789510
3221.750440	39407.513986
3222.879695	39345.103497
3224.007307	39352.766434
3225.131796	39384.848951
3226.260561	39395.065734
3227.386204	39456.130769
3228.511684	39535.144755
3229.635523	39608.661538
3230.762157	39659.446853
3231.884192	39679.833566
3233.007544	39722.077622
3234.130734	39785.217483
3235.253762	39819.239161
3236.375150	39841.952448
3237.496377	39885.835664
3238.615965	39978.028671
3239.735392	40096.330070
3240.853182	40224.177622
3241.973763	40409.778322
3243.091231	40559.642657
3244.208538	40779.514685
3245.325684	40950.636364
3246.441195	41140.018182
3247.558021	41314.082517
3248.671736	41484.346853
3249.788242	41603.737762
3250.903112	41685.547552
3252.014874	41788.593706
3253.126477	41825.472727
3254.239395	41801.433566
3255.352153	41866.188112
3256.461805	41877.097203
3257.572772	41960.353846
3258.683580	41974.120280
3259.792756	42048.501399
3260.900301	42124.465035
3262.009161	42224.167133
3263.117862	42297.286014
3264.223461	42400.327972
3265.330375	42500.925175
3266.435659	42548.147552
3267.542257	42596.207692
3268.645755	42696.367133
3269.750567	42720.541958
3270.855222	42780.944056
3271.956779	42815.230769
3273.058179	42871.625874
3274.160893	42890.649650
3275.263450	42947.805594
3276.362912	42976.312587
3277.465156	43047.895105
3278.564306	43105.491608
3279.661830	43128.294406
3280.759200	43161.448252
3281.859351	43210.116783
3282.956409	43174.993706
3284.053313	43186.318182
3285.150061	43177.241259
3286.242250	43188.479720
3287.338689	43215.331469
3288.433505	43211.625874
3289.528166	43270.146853
3290.621206	43347.035664
3291.714092	43396.857343
3292.805357	43402.561538
3293.897935	43450.615385
3294.988893	43501.222378
3296.078231	43496.694406
3297.167416	43552.965734
3298.257913	43561.839860
3299.345326	43597.197902
3300.432587	43635.071329
3301.521160	43673.506294
3302.609580	43746.706993
3303.693453	43796.339161
3304.781568	43863.790909
3305.866602	43887.028671
3306.950020	44003.434965
3308.034750	44094.639860
3309.117864	44199.302098
3310.202290	44278.159441
3311.283638	44331.393706
3312.366298	44369.961538
3313.447344	44403.074126
3314.528239	44429.381818
3315.607521	44446.381119
3316.686652	44519.702098
3317.767095	44592.835664
3318.844463	44603.982517
3319.923143	44697.032168
3321.000211	44750.816783
3322.077129	44815.955944
3323.152437	44856.688811
3324.227595	44889.348951
3325.304064	44908.069930
3326.377462	44955.078322
3327.450712	44972.530070
3328.525273	45017.041259
3329.598224	45049.179720
3330.669568	45046.839860
3331.742222	45052.395105
3332.811809	45096.207692
3333.882707	45074.500000
3334.951998	45047.577622
3336.022600	45035.225175
3337.091595	44964.464336
3338.158985	44944.443357
3339.224768	44928.813986
3340.294778	44873.781119
3341.361725	44853.734965
3342.425610	44828.402098
3343.492263	44850.265734
3344.557312	44873.779021
3345.620757	44896.777622
3346.684055	44895.939860
3347.747208	44930.458042
3348.810214	44940.290909
3349.873073	44948.645455
3350.934331	44966.872727
3351.992532	44977.258042
3353.054954	45028.110490
3354.114319	45127.225874
3355.173540	45199.300000
3356.234069	45313.099301
3357.290089	45442.694406
3358.348874	45525.544755
3359.403151	45646.500699
3360.460192	45743.588112
3361.515634	45801.203497
3362.572385	45903.167832
3363.627539	45931.285315
3364.681095	45973.016084
3365.733054	46036.573427
3366.787776	46084.025874
3367.839448	46087.075524
3368.890976	46133.421678
3369.943814	46206.607692
3370.993604	46244.804895
3372.044703	46319.202098
3373.092755	46387.628671
3374.143568	46447.858741
3375.191335	46522.421678
3376.238960	46571.416783
3377.286443	46609.511189
3378.332332	46636.290210
3379.379531	46628.465734
3380.423686	46632.302797
3381.470600	46662.227972
3382.515923	46680.002098
3383.558204	46705.356643
3384.600344	46725.091608
3385.643793	46783.444755
3386.687100	46767.366434
3387.728817	46793.085315
3388.770394	46850.221678
3389.811829	46887.810490
3390.851676	46928.766434
3391.889934	46973.909790
3392.929500	47068.774126
3393.968926	47115.747552
3395.006764	47155.148951
3396.043015	47179.237762
3397.079126	47196.855944
3398.116545	47256.000000
3399.150931	47222.406993
3400.186625	47263.290210
3401.222179	47303.481818
3402.254701	47370.939860
3403.289977	47400.925175
3404.322222	47477.564336
3405.354329	47558.016783
3406.384853	47610.425874
3407.416683	47665.507692
3408.448375	47693.611888
3409.477039	47742.560140
3410.505566	47779.764336
3411.535399	47741.071329
3412.565095	47773.827273
3413.591765	47811.300000
3414.619741	47896.125874
3415.644693	47899.049650
3416.672396	48011.851049
3417.697074	48080.743357
3418.723059	48136.167133
3419.747465	48184.041958
3420.771733	48197.679021
3421.794424	48222.196503
3422.816978	48112.414685
3423.840838	48042.506294
3424.861678	47963.619580
3425.882382	47875.480220
3426.904392	47808.168432
3427.923384	47776.307992
3428.942241	47794.522677
3429.962404	47877.436264
3430.979549	48039.672527
