-118.155753	-9.682967
-115.486152	-4.676923
-112.819487	-1.508791
-110.153575	0.182617
-107.490594	0.758492
-104.826183	0.580020
-102.164703	0.008392
-99.501794	-0.632168
-96.843992	2.755245
-94.184759	2.774825
-91.526275	0.723077
-88.870716	-4.005594
-86.213728	-2.448951
-83.561837	-4.692308
-80.908517	-1.450350
-78.258117	-5.619580
-75.606287	-0.984615
-72.959548	-0.499301
-70.311379	1.061538
-67.663954	2.818182
-65.019442	8.093706
-62.373501	4.502098
-59.732643	0.281119
-57.090354	-6.630769
-54.450975	-4.230769
-51.810167	1.488112
-49.170098	4.405594
-46.535103	0.952448
-43.898678	2.927273
-41.265157	4.011189
-38.630206	5.071329
-36.000322	8.516084
-33.366844	16.527273
-30.738429	15.251748
-28.110748	18.728671
-25.481639	13.531469
-22.857586	-12.946853
-20.229944	-123.896503
-17.607355	-359.786014
-14.985497	-254.717483
-12.364370	573.629371
-9.743974	1750.688112
-7.126465	2702.019580
-4.507528	3347.987413
-1.891477	3679.837762
0.723846	3698.963636
3.338442	3411.960839
5.950156	2819.023776
8.563297	1944.882517
11.171405	869.500699
13.783095	-136.423776
16.389754	-528.695105
18.997841	-294.443357
21.605204	-21.495105
24.207542	15.413986
26.813458	11.916084
29.414353	12.489510
32.016675	11.976224
34.613979	10.766434
37.214859	9.952448
39.810725	10.593007
42.408018	7.718881
45.004592	7.827972
47.596157	9.297902
50.189150	10.429371
52.779282	4.339860
55.370842	0.766434
57.959542	-3.155245
60.549670	-0.980420
63.134798	0.546853
65.721354	0.058741
68.307195	2.665734
70.890183	3.553846
73.474598	-0.798601
76.051883	1.130070
78.632735	-0.032168
81.210738	-3.381818
83.788031	-7.904895
86.366750	-5.234965
88.940488	-8.552448
91.515652	-5.499301
94.087973	-3.987413
96.659587	-1.195804
99.228360	-0.833566
101.798560	-1.254545
104.365921	-1.956643
106.934709	2.123077
109.500659	3.565035
112.063775	8.897902
114.630448	12.352448
117.187898	18.019580
119.751034	17.739860
122.309211	24.937063
124.870942	33.597203
127.427716	61.490909
129.985916	93.904895
132.539164	139.594406
135.091713	194.960839
137.647814	263.165035
140.198966	325.827972
142.749420	394.055944
145.299178	458.341259
147.846116	505.253147
150.392358	536.913287
152.940027	552.987413
155.486999	560.225175
158.029035	560.990210
160.570378	556.566434
163.111029	546.620979
165.653104	537.204196
168.192369	535.363636
170.728824	526.974825
173.264589	529.710490
175.801779	532.871329
178.338277	534.055944
180.871971	529.805594
183.402860	529.227972
185.933061	529.643357
188.464687	526.704895
190.993513	530.855944
193.519539	527.293706
196.044879	527.351049
198.571644	530.502098
201.095613	529.658741
203.618896	528.627972
206.141495	529.384615
208.661301	527.742657
211.180424	524.853147
213.698864	528.600000
216.218728	522.279720
218.731591	518.586014
221.247985	515.258741
223.763698	517.426573
226.274520	521.734266
228.786767	526.500699
231.296231	529.489510
233.805017	534.725874
236.313125	539.016783
238.822657	546.351049
241.327308	553.647552
243.831283	555.332867
246.336682	553.481119
248.837206	555.267133
251.341253	557.774825
253.838330	564.588811
256.338929	567.725874
258.836757	573.363636
261.333912	572.411189
263.830394	577.946853
266.322014	577.015385
268.817152	580.051748
271.309525	575.643357
273.801227	572.834965
276.290166	573.465734
278.780528	573.826573
281.268129	573.258741
283.752970	573.969231
286.241325	578.033566
288.722742	583.897902
291.207672	582.531469
293.687756	586.956643
296.171353	586.005594
298.650108	587.060140
301.130285	588.723077
303.607711	595.213986
306.084473	601.534266
308.560571	622.416783
311.033921	653.439161
313.506610	695.379021
315.978637	735.267133
318.450002	765.054545
320.918624	779.549650
323.386586	782.644755
325.855971	770.786014
328.320533	748.876923
330.788598	721.806993
333.251844	690.247552
335.714433	656.425175
338.176364	639.275524
340.637639	636.569231
343.096180	640.331469
345.556143	641.302098
348.013374	642.802797
350.469950	648.167832
352.925871	650.679720
355.379064	654.486713
357.833679	653.765035
360.283492	651.082517
362.736801	647.525874
365.185311	639.476923
367.633171	635.212587
370.082452	636.474126
372.526940	636.001399
374.972850	631.777622
377.418111	638.065734
379.860653	644.527273
382.302547	646.846154
384.743793	651.269930
387.182324	652.896503
389.622277	651.907692
392.059516	651.806993
394.494043	647.441958
396.932058	648.748252
399.365296	645.412587
401.799956	643.629371
404.229843	634.951049
406.663215	635.307692
409.091816	630.876923
411.519777	633.225175
413.949158	635.587413
416.373775	643.265734
418.799812	650.225175
421.225210	656.118881
423.649967	657.293706
426.069965	662.443357
428.491385	659.598601
430.910108	659.608392
433.330252	653.869930
435.747701	651.558042
438.166570	645.784615
440.582746	642.372028
442.994175	638.615385
445.409080	634.707692
447.821295	631.268531
450.232876	630.692308
452.643823	633.923077
455.052084	636.816783
457.459713	638.335664
459.866709	640.174825
462.273073	641.123077
464.676756	638.920280
467.079808	635.441958
469.482230	627.639161
471.884022	622.660140
474.283136	618.134266
476.683670	616.348252
479.083575	623.138462
481.478757	624.504895
483.877406	626.499301
486.271335	627.514685
488.664638	623.374825
491.057315	611.593007
493.449367	593.679720
495.842838	570.851748
498.231596	548.584615
500.617688	528.878322
503.005200	512.398601
505.392088	487.004196
507.776313	471.509091
510.161957	453.032168
512.544938	445.342657
514.925259	434.612587
517.306999	424.388811
519.686080	410.661538
522.066580	403.707692
524.444422	393.827972
526.819609	391.330070
529.194178	385.546853
531.570166	384.825175
533.943500	377.941259
536.318253	382.075524
538.688319	379.583217
541.057770	379.647552
543.428640	373.688112
545.794828	372.011189
548.162435	369.383217
550.527396	371.025175
552.891744	368.369231
555.255480	366.993007
557.620633	365.744056
559.981114	367.662937
562.343012	365.944056
564.702271	368.587413
567.058891	362.604196
569.418957	360.724476
571.772331	349.079720
574.129150	347.665734
576.483334	341.004196
578.836909	337.907692
581.189876	332.218182
583.540212	328.703497
585.891964	328.525874
588.237040	329.283916
590.587580	329.288112
592.931447	332.606993
595.280775	329.689510
597.625454	334.100699
599.967509	332.965035
602.310981	340.727273
604.651830	342.457343
606.992076	343.095105
609.329702	338.667133
611.670763	335.475524
614.007187	329.939860
616.345027	324.437762
618.680249	318.002797
621.012856	315.793007
623.346880	312.183217
625.678289	311.232168
628.009100	307.679720
630.339313	309.974825
632.668929	310.349650
634.993921	310.834965
637.324355	313.083916
639.650167	313.829371
641.973373	309.111888
644.297995	307.675524
646.620011	305.889510
648.941433	304.099301
651.260252	299.900699
653.580487	298.204196
655.900129	294.937063
658.217170	295.791608
660.533620	296.579021
662.847471	302.934266
665.162737	306.432168
667.475407	306.005594
669.789492	298.190210
672.098978	294.454545
674.409878	287.769231
676.718186	281.883916
679.025906	281.034965
681.335041	282.208392
683.639583	280.674126
685.943539	280.162238
688.246908	278.145455
690.551692	279.916084
692.851890	271.427972
695.153503	269.262937
697.454530	263.172028
699.750976	263.865734
702.048836	263.544056
704.346114	266.471329
706.642807	271.020979
708.934925	273.695105
711.230454	276.188811
713.521410	279.395804
715.813780	278.423776
718.103574	282.386014
720.392789	273.013986
722.681423	277.051748
724.967486	276.766434
727.254962	278.213986
729.539868	275.790210
731.824195	276.551049
734.105955	275.731469
736.389128	275.681119
738.671724	275.474126
740.949764	277.342657
743.229218	272.551049
745.508097	272.353846
747.786400	269.646154
750.060154	277.464336
752.335322	274.335664
754.609916	276.899301
756.881951	276.496503
759.155399	283.787413
761.426289	288.465734
763.694622	298.218182
765.964370	300.976224
768.231562	303.405594
770.498184	300.330070
772.764237	304.474126
775.027738	305.766434
777.292651	309.261538
779.556996	306.851748
781.816810	307.655944
784.078038	306.268531
786.338698	309.353846
788.596811	308.714685
790.852380	309.499301
793.111340	301.998601
795.363801	298.916084
797.621629	298.604196
799.874938	299.836364
802.125706	296.106294
804.377887	298.016783
806.627530	294.552448
808.878584	286.240559
811.125127	284.630769
813.373083	283.693706
815.618503	280.065734
817.865336	281.057343
820.111606	276.904895
822.353373	278.748252
824.598522	277.503497
826.837199	279.980420
829.079259	276.633566
831.316820	271.833566
833.555792	261.822378
835.792238	257.489510
838.030096	257.250350
840.265428	259.616783
842.498236	264.358042
844.732456	267.118881
846.964154	267.002797
849.195297	271.071329
851.425885	271.460140
853.655919	276.453147
855.885398	270.711888
858.110397	262.464336
860.338769	255.549650
862.562663	257.745455
864.787967	258.206993
867.008796	257.948252
869.232997	260.876923
871.452725	257.320280
873.673864	260.313287
875.894452	263.825175
878.112531	266.896503
880.332019	269.429371
882.547041	266.187413
884.761515	265.311888
886.975442	266.559441
889.188821	271.676923
891.401654	272.758042
893.613939	271.753846
895.823723	272.030769
898.032961	269.692308
900.241653	269.369231
902.447847	272.420979
904.655450	269.977622
906.860556	268.760839
909.065118	266.020979
911.267185	269.850350
913.470661	269.170629
915.671643	271.391608
917.872083	274.302098
920.073932	272.934266
922.269390	272.120280
924.468206	276.008392
926.662585	273.376224
928.860321	275.834965
931.053621	272.458741
933.248329	276.667133
935.440552	277.469930
937.632237	280.541259
939.823384	277.646154
942.012048	279.356643
944.200175	283.149650
946.385822	281.516084
948.574821	287.205594
950.759397	290.546853
952.943438	289.086713
955.130829	291.492308
957.309917	296.325874
959.492354	303.959441
961.674258	305.026573
963.853688	310.993007
966.030645	313.560839
968.209010	321.436364
970.388781	330.453147
972.562204	336.316084
974.738973	343.690909
976.911336	345.135664
979.085106	349.128671
981.254472	349.475524
983.427182	352.137063
985.597426	353.148252
987.767142	354.972028
989.936329	355.117483
992.101119	357.331469
994.269251	364.303497
996.432987	369.478322
998.598131	372.314685
1000.760815	374.405594
1002.922974	376.194406
1005.082675	382.188811
1007.241853	379.118881
1009.402437	379.485315
1011.560566	379.942657
1013.718171	380.953846
1015.875253	381.841958
1018.031812	388.462937
1020.183991	399.365035
1022.337577	402.331469
1024.490640	406.254545
1026.641256	405.600000
1028.793277	410.302098
1030.940925	414.569231
1033.091905	413.675524
1035.238515	417.567832
1037.384605	419.173427
1039.530177	418.553846
1041.677153	424.276923
1043.817842	428.074126
1045.961859	437.548252
1048.103437	438.651748
1050.244497	440.321678
1052.386962	442.630769
1054.523148	444.268531
1056.662660	445.160839
1058.797816	451.462937
1060.936297	453.665734
1063.070425	452.446154
1065.204039	450.597203
1067.339057	454.906294
1069.469726	448.949650
1071.601801	444.969231
1073.731445	436.633566
1075.860578	430.630769
1077.989200	423.420979
1080.117310	411.731469
1082.242994	404.100699
1084.368168	400.500699
1086.494745	389.797203
1088.616986	383.841958
1090.740631	381.646154
1092.859941	379.920280
1094.984480	371.495105
1097.102775	369.464336
1099.222473	367.565035
1101.339753	371.359441
1103.456527	377.173427
1105.572794	378.479720
1107.686646	378.053147
1109.801901	373.036364
1111.912834	364.058741
1114.027078	356.118881
1116.137003	349.481119
1118.248330	344.883916
1120.359154	341.370629
1122.465661	341.258741
1124.575477	340.497902
1126.680979	349.408392
1128.787885	355.563636
1130.888574	355.051748
1132.994476	352.906294
1135.096069	345.917483
1137.199065	338.741259
1139.301560	330.349650
1141.397849	329.567832
1143.499344	329.303497
1145.596537	334.239161
1147.693231	335.117483
1149.789428	336.261538
1151.885126	340.036364
1153.980327	335.822378
1156.073131	335.806993
1158.167337	332.095105
1160.255352	328.493706
1162.348565	325.794406
1164.435590	325.809790
1166.525915	330.184615
1168.611951	335.016783
1170.701285	340.205594
1172.784438	338.619580
1174.868994	335.822378
1176.954950	330.165035
1179.036625	323.267133
1181.119702	322.619580
1183.200393	314.006993
1185.280593	312.889510
1187.360301	314.345455
1189.439518	319.289510
1191.516352	322.078322
1193.590806	325.865734
1195.668552	324.304895
1197.742027	325.257343
1199.816904	324.356643
1201.887513	318.723077
1203.959523	315.797203
1206.029157	317.485315
1208.100192	316.416783
1210.170739	320.620979
1212.237025	321.233566
1214.304712	323.625175
1216.370027	322.246154
1218.436742	323.682517
1220.499201	322.261538
1222.564946	319.528671
1224.626436	313.320280
1226.689326	310.721678
1228.749849	309.474126
1230.809889	318.439161
1232.869445	324.278322
1234.926637	322.711888
1236.983346	321.598601
1239.037693	320.932867
1241.095320	319.400000
1243.150585	319.822378
1245.201609	315.026573
1247.254033	312.572028
1249.305978	308.865734
1251.355564	312.132867
1253.404671	316.246154
1255.453299	328.127273
1257.501449	331.679720
1259.549121	336.030769
1261.592562	339.184615
1263.639278	342.227972
1265.683642	343.104895
1267.727528	341.721678
1269.769064	337.079720
1271.808250	338.373427
1273.850708	332.232168
1275.888945	334.095105
1277.928579	341.289510
1279.967739	342.695105
1282.002681	349.471329
1284.039021	360.909091
1286.073016	368.572028
1288.108410	369.574825
1290.139590	370.676923
1292.172169	369.174825
1294.204275	369.050350
1296.234041	374.034965
1298.265205	375.826573
1300.292161	388.022378
1302.320515	399.444755
1304.344665	408.215385
1306.372080	425.131469
1308.395292	441.415385
1310.419902	452.104895
1312.442177	462.693706
1314.465850	477.611189
1316.487190	495.117483
1318.508063	513.725874
1320.528468	531.972028
1322.544679	540.604196
1324.562289	558.454545
1326.577570	568.300699
1328.596110	576.763636
1330.610460	586.753846
1332.622485	593.717483
1334.637768	595.290909
1336.648865	602.714685
1338.661358	605.820979
1340.669669	609.780420
1342.681236	603.822378
1344.686764	593.606993
1346.695546	576.513287
1348.700152	567.563636
1350.708011	551.960839
1352.715407	537.489510
1354.716773	519.672727
1356.719536	503.559441
1358.721839	486.169231
1360.723681	470.551049
1362.725065	456.138462
1364.724134	440.606993
1366.722745	423.244755
1368.720898	408.927273
1370.718593	397.781818
1372.712124	388.825175
1374.707052	381.324476
1376.701523	378.146853
1378.695537	366.587413
1380.687244	365.211189
1382.678495	360.275524
1384.667441	359.247552
1386.657782	355.853147
1388.647668	349.179021
1390.635251	339.274126
1392.622380	333.623776
1394.607207	331.048951
1396.593429	333.725874
1398.577350	336.124476
1400.560819	340.946853
1402.543836	339.153846
1404.524555	346.581818
1406.506668	348.191608
1408.486484	348.597203
1410.465850	341.537063
1412.441077	332.330070
1414.419542	320.944056
1416.395714	317.538462
1418.371436	311.489510
1420.346709	312.060140
1422.319691	311.372028
1424.292226	312.980420
1426.264312	316.773427
1428.235950	322.388811
1430.203461	323.935664
1432.176045	323.546853
1434.140823	320.741259
1436.110674	317.765035
1438.076400	318.643357
1440.043520	319.632168
1442.008356	312.096503
1443.969072	314.404196
1445.934856	317.348252
1447.894685	316.054545
1449.855907	312.751049
1451.818522	312.881119
1453.777022	312.246154
1455.735080	307.344056
1457.692695	304.149650
1459.649869	306.420979
1461.604767	308.788811
1463.561057	312.134266
1465.515073	310.671329
1467.468649	315.474126
1469.419952	316.474126
1471.372647	313.903497
1473.323071	310.128671
1475.273056	314.079720
1477.222601	310.356643
1479.169878	308.092308
1481.114888	308.395804
1483.061290	308.812587
1485.007254	307.602797
1486.952780	307.338462
1488.896042	306.047552
1490.838867	306.265734
1492.779429	306.560839
1494.721382	305.186014
1496.661074	304.744056
1498.600330	310.274126
1500.539152	314.511888
1502.475714	324.351049
1504.413666	332.131469
1506.349361	337.377622
1508.284622	339.832168
1510.217626	342.016783
1512.150198	340.525874
1514.082338	336.158042
1516.014046	330.627972
1517.943501	321.216783
1519.874345	321.008392
1521.804759	323.969231
1523.731100	331.427972
1525.658831	339.289510
1527.584312	342.588811
1529.509364	350.553846
1531.433987	357.247552
1533.358181	366.000000
1535.280128	368.751049
1537.203464	372.959441
1539.124555	379.475524
1541.043401	383.064336
1542.963637	390.468531
1544.881629	404.594406
1546.799195	418.695105
1548.714519	430.986014
1550.631233	444.819580
1552.543892	465.001399
1554.459755	481.840559
1556.373379	502.132867
1558.284764	516.895105
1560.197538	532.788811
1562.106263	541.570629
1564.016378	544.365035
1565.926069	550.542657
1567.835336	558.731469
1569.742370	558.500699
1571.647171	560.558042
1573.553361	557.956643
1575.457319	551.556643
1577.360857	542.559441
1579.263973	540.836364
1581.164861	529.723077
1583.067137	522.464336
1584.967184	504.338462
1586.868620	494.760839
1588.766021	489.665734
1590.663005	480.632168
1592.559570	470.707692
1594.457522	462.790210
1596.349640	453.639161
1598.244952	446.356643
1600.139845	438.121678
1602.032517	439.723077
1603.924773	428.334266
1605.814809	424.930070
1607.704429	414.023776
1609.593634	411.258741
1611.482423	405.876923
1613.368996	394.711888
1615.256955	380.765035
1617.140899	374.823776
1619.026229	367.938462
1620.911146	360.572028
1622.793849	350.883916
1624.677938	345.230769
1626.558017	333.472727
1628.439482	330.906294
1630.318737	320.220979
1632.199378	318.461538
1634.074215	314.888112
1635.954034	309.250350
1637.829847	305.072727
1639.705251	304.141259
1641.582040	295.159441
1643.453032	291.283916
1645.327206	287.450350
1647.197382	286.939860
1649.070738	282.822378
1650.941891	280.202797
1652.810842	278.545455
1654.681179	280.461538
1656.547522	284.629371
1658.415252	286.359441
1660.280782	286.455944
1662.147697	282.419580
1664.010624	277.370629
1665.874936	275.958042
1667.737053	273.330070
1669.598764	271.907692
1671.461860	270.742657
1673.322762	269.344056
1675.181470	269.482517
1677.039775	270.573427
1678.899465	273.267133
1680.753388	268.923077
1682.610483	269.132867
1684.467176	269.181818
1686.319893	270.451748
1688.175781	269.413986
1690.027695	265.268531
1691.879208	267.009790
1693.730320	269.514685
1695.581031	270.769231
1697.431342	271.292308
1699.279469	270.644755
1701.128979	268.211189
1702.972741	264.973427
1704.821453	269.572028
1706.664418	270.679720
1708.510549	273.255944
1710.352719	273.250350
1712.198053	272.016783
1714.037647	273.823776
1715.878625	270.661538
1717.720986	268.295105
1719.559391	258.914685
1721.399179	258.257343
1723.236792	255.201399
1725.074009	252.060140
1726.909053	251.468531
1728.745480	254.535664
1730.579735	257.786014
1732.413596	261.909091
1734.247062	263.679720
1736.076582	266.054545
1737.909261	263.134266
1739.737996	259.110490
1741.569889	255.373427
1743.397839	259.412587
1745.225397	255.963636
1747.052564	259.095105
1748.879338	259.027972
1750.705722	260.830769
1752.528169	261.928671
1754.353770	264.467133
1756.175437	262.352448
1757.998486	265.531469
1759.819374	262.583217
1761.639872	260.443357
1763.461752	259.822378
1765.277932	260.513287
1767.097264	258.944056
1768.912669	259.549650
1770.731225	252.255944
1772.545855	252.692308
1774.360098	252.482517
1776.173955	250.766434
1777.987425	248.664336
1779.798741	248.183217
1781.611439	248.939860
1783.423750	248.669930
1785.232144	250.037762
1787.041919	253.380420
1788.847778	256.369231
1790.656784	256.053147
1792.461876	253.783217
1794.268348	253.316084
1796.074437	249.514685
1797.876616	248.500699
1799.681938	241.790210
1801.483352	239.732867
1803.286146	243.106294
1805.085035	242.039161
1806.885303	245.791608
1808.685191	255.011189
1810.482936	256.577622
1812.280301	259.524476
1814.077285	256.595804
1815.873889	257.931469
1817.668354	256.681119
1819.464199	251.664336
1821.254388	243.752448
1823.049474	242.749650
1824.838907	240.440559
1826.631478	241.413986
1828.421913	242.416783
1830.210213	247.987413
1832.001649	245.293706
1833.787440	255.027972
1835.574609	256.769231
1837.359647	258.558042
1839.147819	253.986014
1840.932105	253.731469
1842.714262	252.668531
1844.497797	255.672727
1846.279205	251.523077
1848.061990	249.353846
1849.840896	246.746853
1851.621180	250.138462
1853.399339	246.911888
1855.178875	251.292308
1856.956287	251.012587
1858.731575	248.920280
1860.508242	246.686713
1862.282786	251.386014
1864.058707	249.829371
1865.829009	251.541259
1867.602438	247.514685
1869.373747	246.679720
1871.144685	248.169231
1872.917000	252.658741
1874.683703	250.276923
1876.453530	253.739860
1878.219494	253.457343
1879.988582	254.111888
1881.753808	251.605594
1883.518666	252.086713
1885.284900	243.563636
1887.047276	246.439161
1888.809285	241.707692
1890.570927	238.159441
1892.332201	234.851748
1894.093109	234.430769
1895.853649	232.472727
1897.612080	237.608392
1899.370146	237.051748
1901.126104	241.109091
1902.883438	243.836364
1904.640406	241.953846
1906.395269	241.092308
1908.148026	248.349650
1909.900420	245.300699
1911.654190	247.297902
1913.405856	246.711888
1915.155419	250.247552
1916.906359	249.468531
1918.656935	253.697902
1920.403673	248.423776
1922.151786	246.332867
1923.897800	241.897902
1925.645190	235.765035
1927.390481	234.190210
1929.133675	237.434965
1930.878245	236.195804
1932.620718	236.379021
1934.362831	237.567832
1936.104585	241.888811
1937.845978	242.608392
1939.585278	244.951748
1941.324219	240.525874
1943.062801	244.719580
1944.799291	242.552448
1946.535424	240.697203
1948.272931	241.823776
1950.006617	247.698601
1951.741677	247.499301
1953.474648	248.666434
1955.207263	250.963636
1956.939521	252.339161
1958.671423	252.583217
1960.401239	249.166434
1962.128971	251.152448
1963.858077	257.100699
1965.586827	254.762238
1967.313494	257.727273
1969.039807	260.997203
1970.767493	265.307692
1972.489643	261.653147
1974.214895	262.130070
1975.936339	257.909091
1977.660883	253.924476
1979.383348	248.489510
1981.102009	246.696503
1982.823769	248.546853
1984.541727	248.935664
1986.261059	251.686713
1987.976590	256.374825
1989.696943	258.509091
1991.413496	256.890909
1993.126254	251.377622
1994.842107	253.836364
1996.555888	247.497902
1998.269318	247.925874
1999.980678	245.043357
2001.693411	248.400000
2003.402352	248.433566
2005.114387	254.745455
2006.820912	257.917483
2008.530530	262.517483
2010.238080	262.019580
2011.945283	263.426573
2013.650420	259.335664
2015.355210	260.662937
2017.061372	255.362238
2018.763752	257.352448
2020.467504	257.006993
2022.169193	259.805594
2023.870536	262.390210
2025.571534	266.714685
2027.270472	263.166434
2028.970781	268.303497
2030.667314	263.370629
2032.365219	266.202797
2034.061066	259.332867
2035.759998	258.344056
2037.453444	249.241958
2039.148261	247.296503
2040.842735	240.542657
2042.533441	237.710490
2044.227231	237.636364
2045.917254	239.379021
2047.608648	242.788811
2049.297989	250.194406
2050.988700	251.930070
2052.675649	260.019580
2054.362257	265.220979
2056.050236	268.114685
2057.734455	266.172028
2059.420044	264.846154
2061.105294	259.869930
2062.788496	253.646154
2064.473068	246.911888
2066.152176	243.241958
2067.836070	240.939860
2069.514504	238.862937
2071.196015	235.786014
2072.873774	236.380420
2074.551197	241.191608
2076.229989	245.572028
2077.906738	250.015385
2079.581446	250.110490
2081.257523	250.400000
2082.931560	245.149650
2084.605261	244.500699
2086.278627	246.630769
2087.949955	247.296503
2089.620948	246.523077
2091.291607	244.462937
2092.961932	245.709091
2094.631922	247.448951
2096.299877	251.988811
2097.967499	250.951049
2099.633087	251.667133
2101.300043	250.064336
2102.964966	249.000000
2104.629556	250.875524
2106.292115	253.601399
2107.956043	257.132867
2109.617939	256.053147
2111.279504	253.538462
2112.940739	255.604196
2114.599944	256.187413
2116.258820	259.022378
2117.917365	259.514685
2119.575581	263.945455
2121.230074	260.092308
2122.887631	262.583217
2124.544858	261.812587
2126.198365	263.085315
2127.853239	263.889510
2129.504394	258.902098
2131.158612	255.128671
2132.809112	253.075524
2134.460980	251.128671
2136.107439	251.462937
2137.758652	252.121678
2139.406153	251.520280
2141.055020	249.285315
2142.701868	257.187413
2144.348391	254.634965
2145.994588	258.830769
2147.637076	262.053147
2149.282623	263.525874
2150.924463	262.174825
2152.569360	257.430769
2154.210552	256.653147
2155.851420	251.897902
2157.491965	249.121678
2159.130497	249.323077
2160.770395	250.668531
2162.406593	257.309091
2164.044157	250.795804
2165.681399	256.060140
2167.316631	259.423776
2168.951541	258.682517
2170.586130	251.019580
2172.220398	245.422378
2173.850972	242.090909
2175.484597	240.033566
2177.114531	241.546853
2178.745830	244.402797
2180.375125	245.787413
2182.004099	251.506294
2183.632755	247.538462
2185.261091	252.174825
2186.887424	258.794406
2188.513439	259.050350
2190.137453	259.780420
2191.762832	262.344056
2193.386210	263.627972
2195.010953	263.511888
2196.632014	260.486713
2198.252760	258.559441
2199.874869	255.667133
2201.494981	250.250350
2203.113097	244.054545
2204.730897	247.483916
2206.348381	254.700699
2207.965550	256.351049
2209.582404	262.623776
2211.198943	262.669930
2212.813488	266.682517
2214.426042	265.223776
2216.039959	265.159441
2217.651884	265.360839
2219.265174	263.760839
2220.876472	259.050350
2222.485782	261.135664
2224.096454	265.841958
2225.705138	265.187413
2227.313510	260.556643
2228.919894	261.194406
2230.527642	260.134266
2232.133403	258.675524
2233.738853	256.324476
2235.342319	254.360839
2236.947147	253.847552
2238.549991	252.265734
2240.150852	252.314685
2241.753076	253.274126
2243.353317	252.520280
2244.954922	250.078322
2246.552873	249.342657
2248.152187	251.644755
2249.749521	256.342657
2251.346547	253.626573
2252.944934	252.692308
2254.539673	250.555245
2256.132436	252.453147
2257.726560	242.752448
2259.322046	241.230769
2260.913888	241.187413
2262.505423	238.584615
2264.098319	239.773427
2265.685906	241.704895
2267.278190	238.934266
2268.865166	242.413986
2270.455171	241.609790
2272.039871	240.604196
2273.629265	243.033566
2275.213356	241.942657
2276.798809	231.881119
2278.382293	236.307692
2279.968802	236.841958
2281.551678	235.931469
2283.134250	238.745455
2284.716520	240.888112
2286.295159	241.006993
2287.876822	248.787413
2289.454858	254.885315
2291.035916	260.121678
2292.613347	259.826573
2294.188815	256.099301
2295.767305	254.713287
2297.342170	254.738462
2298.916735	250.370629
2300.491000	249.146853
2302.064964	244.149650
2303.638628	238.760839
2305.211991	237.246154
2306.781736	240.718881
2308.351182	240.425175
2309.923647	243.518881
2311.490837	238.212587
2313.061044	234.619580
2314.627637	235.233566
2316.195590	238.637762
2317.761588	242.288112
2319.327288	245.050350
2320.892690	245.806993
2322.456139	255.306294
2324.020947	263.486713
2325.582146	271.366434
2327.146360	278.011189
2328.705313	287.250350
2330.267279	285.924476
2331.827295	280.576224
2333.387015	272.765035
2334.944786	268.086713
2336.502263	257.325874
2338.059444	245.573427
2339.614679	236.542657
2341.169619	238.222378
2342.724266	232.787413
2344.278619	237.067133
2345.832678	239.858741
2347.386444	246.465734
2348.938265	249.405594
2350.488143	253.977622
2352.041029	255.023776
2353.588673	259.495105
2355.139324	257.998601
2356.686385	254.125874
2358.234803	251.702098
2359.782929	252.440559
2361.327468	248.205594
2362.873364	246.832168
2364.417321	243.885315
2365.962636	240.458741
2367.504366	240.344056
2369.047454	240.159441
2370.588605	243.609790
2372.129467	245.711888
2373.670040	247.777622
2375.210324	250.264336
2376.750319	248.311888
2378.286735	250.930070
2379.826153	252.991608
2381.361994	253.991608
2382.899191	255.095105
2384.432814	249.120280
2385.969436	247.155245
2387.504127	247.020979
2389.036889	246.475524
2390.569365	245.703497
2392.099912	244.879720
2393.633457	247.379021
2395.161791	244.869930
2396.691481	249.102098
2398.220886	253.401399
2399.750006	253.131469
2401.278840	254.626573
2402.802470	254.030769
2404.330735	255.871329
2405.853797	257.546853
2407.381494	259.381818
2408.902350	262.058741
2410.427840	259.885315
2411.949770	258.067133
2413.473054	258.395804
2414.994418	258.365035
2416.513862	256.787413
2418.034661	254.945455
2419.553541	251.372028
2421.072139	253.257343
2422.588820	253.015385
2424.106856	251.714685
2425.624610	255.135664
2427.138812	252.816783
2428.652734	254.737063
2430.166377	251.243357
2431.681373	253.716084
2433.192821	250.586014
2434.705624	249.886713
2436.216514	250.313287
2437.727124	247.300699
2439.235823	250.237762
2440.747509	246.247552
2442.255651	248.587413
2443.763514	248.060140
2445.271100	248.307692
2446.775146	251.865734
2448.282176	250.107692
2449.787298	253.714685
2451.292143	254.012587
2452.795081	256.703497
2454.297742	257.594406
2455.800127	258.233566
2457.300607	256.099301
2458.802440	254.408392
2460.302369	257.572028
2461.802022	250.906294
2463.301400	252.090909
2464.798875	247.281119
2466.294448	245.737063
2467.793001	241.086713
2469.288026	235.534266
2470.784403	233.823776
2472.277254	235.464336
2473.771457	234.889510
2475.265387	234.290909
2476.755794	237.197203
2478.249178	245.366434
2479.740663	240.952448
2481.230252	245.113287
2482.719570	240.060140
2484.206991	245.690909
2485.697388	243.349650
2487.184266	243.001399
2488.672496	241.226573
2490.157210	243.334266
2491.641653	244.955245
2493.127448	244.725874
2494.611350	246.858741
2496.096604	244.060140
2497.576724	237.693706
2499.059816	239.012587
2500.541018	239.699301
2502.021951	246.370629
2503.500995	243.615385
2504.979771	242.995804
2506.458278	240.145455
2507.936516	244.425175
2509.414486	246.906294
2510.888952	246.804196
2512.366386	245.054545
2513.840317	242.167832
2515.315599	243.833566
2516.790613	245.904895
2518.262126	247.043357
2519.734990	249.844755
2521.205971	246.700699
2522.678301	250.020979
2524.145519	249.376224
2525.615703	250.142657
2527.084005	244.241958
2528.552043	244.472727
2530.019816	237.721678
2531.487324	237.446154
2532.954567	234.362238
2534.418319	238.064336
2535.883420	239.437762
2537.346644	243.679720
2538.811217	243.068531
2540.272301	250.720280
2541.734736	246.882517
2543.196907	243.441958
2544.655591	241.234965
2546.118848	243.510490
2547.577008	241.282517
2549.036517	244.324476
2550.490933	244.474126
2551.949919	248.836364
2553.407032	251.205594
2554.862275	252.834965
2556.317257	248.841958
2557.770369	249.327273
2559.224830	242.804196
2560.677422	241.848951
2562.129754	246.095105
2563.580218	245.369231
2565.033638	246.531469
2566.481976	247.469930
2567.933270	247.923077
2569.382697	249.944056
2570.828653	251.332867
2572.277563	247.900699
2573.723002	244.174825
2575.169790	249.481119
2576.614714	250.079720
2578.059381	251.022378
2579.505395	250.300699
2580.947942	243.872727
2582.391837	239.820979
2583.832267	244.988811
2585.274045	242.524476
2586.713963	243.804196
2588.155228	245.481119
2589.593031	249.892308
2591.033784	253.816783
2592.469474	259.848951
2593.908114	261.233566
2595.344897	262.030769
2596.779823	258.306294
2598.217698	257.990210
2599.650515	258.608392
2601.084679	263.365035
2602.516988	254.818182
2603.950644	258.657343
2605.382447	260.346853
2606.813997	266.120280
2608.245293	264.966434
2609.674738	266.078322
2611.103930	263.738462
2612.531271	261.149650
2613.959959	258.671329
2615.388394	261.465734
2616.813383	260.398601
2618.239717	265.328671
2619.664203	264.127273
2621.090035	269.068531
2622.512423	272.867133
2623.936157	279.576224
2625.358045	282.662937
2626.779682	285.453147
2628.199474	280.372028
2629.620612	279.939860
2631.041500	276.800000
2632.458950	276.555245
2633.879339	274.893706
2635.296291	282.798601
2636.712995	282.197203
2638.129450	284.191608
2639.545657	287.462937
2640.961615	290.665734
2642.375733	289.798601
2643.789604	290.742657
2645.201635	294.834965
2646.615011	297.377622
2648.024957	296.710490
2649.437839	297.314685
2650.847292	298.864336
2652.256499	302.580420
2653.663870	303.086713
2655.074175	306.447552
2656.482644	305.920280
2657.889278	309.945455
2659.295667	309.583217
2660.700222	314.404196
2662.106121	317.303497
2663.510187	316.155245
2664.914009	315.993007
2666.317586	317.344056
2667.719331	314.941259
2669.122420	315.661538
2670.522092	312.579021
2671.923107	314.874126
2673.320705	313.163636
2674.721234	316.423776
2676.118348	316.248951
2677.516805	313.721678
2678.913434	304.813986
2680.309822	301.441958
2681.705967	300.786014
2683.100286	300.334266
2684.495948	292.441958
2685.888200	289.913287
2687.281796	289.869930
2688.673567	297.916084
2690.066680	300.233566
2691.457970	302.626573
2692.847437	303.420979
2694.236665	301.707692
2695.625652	295.668531
2697.015982	295.808392
2698.401327	294.415385
2699.789597	290.798601
2701.176046	280.265734
2702.562256	278.458741
2703.948227	277.511888
2705.330800	276.910490
2706.714714	276.509091
2708.098391	275.911888
2709.481830	270.587413
2710.861873	263.853147
2712.243258	260.276923
2713.622827	260.104895
2715.003738	260.973427
2716.382834	262.416783
2717.760115	257.668531
2719.138738	260.433566
2720.515548	255.443357
2721.892122	260.739860
2723.268460	262.272727
2724.642986	260.262937
2726.018853	258.509091
2727.391333	256.409790
2728.766730	259.833566
2730.137165	257.952448
2731.508942	255.756643
2732.880485	251.741259
2734.250219	245.872727
2735.621293	242.899301
2736.990560	236.703497
2738.359593	234.604196
2739.726819	228.710490
2741.093813	228.255944
2742.460574	229.062937
2743.827102	228.213986
2745.191826	232.433566
2746.556317	236.668531
2747.920576	238.062937
2749.284604	242.279720
2750.648399	243.844755
2752.008821	248.114685
2753.372154	244.657343
2754.730544	243.706294
2756.091844	241.513287
2757.449773	239.977622
2758.810612	231.692308
2760.169650	231.776224
2761.525320	231.779021
2762.883899	232.732867
2764.239110	231.138462
2765.594092	233.265734
2766.947277	233.388811
2768.303369	237.226573
2769.656097	234.201399
2771.008596	232.497902
2772.360867	232.731469
2773.714477	235.053147
2775.064725	232.646154
2776.413180	237.588811
2777.764539	230.552448
2779.112539	227.244755
2780.461878	229.090909
2781.809424	230.158042
2783.156743	228.504895
2784.503836	231.204196
2785.849138	228.476923
2787.194214	224.548252
2788.539064	225.534266
2789.883688	227.832168
2791.224959	226.060140
2792.567569	226.903497
2793.909954	222.474126
2795.252113	223.671329
2796.590923	224.981818
2797.932633	225.193007
2799.270994	222.167832
2800.610693	224.941259
2801.948606	225.226573
2803.284735	223.444755
2804.620641	221.117483
2805.957883	221.979021
2807.293342	220.734266
2808.628578	221.149650
2809.962032	223.590210
2811.296822	224.374825
2812.628271	221.216783
2813.962616	224.406993
2815.292063	221.027972
2816.622847	218.843357
2817.953409	219.718881
2819.282192	212.510490
2820.612312	205.706294
2821.940652	206.653147
2823.268772	207.241958
2824.595115	207.843357
2825.922793	214.297902
2827.247139	219.051748
2828.572820	221.482517
2829.896727	228.885315
2831.220413	226.865734
2832.545435	226.840559
2833.867128	226.932867
2835.188601	219.516084
2836.509856	218.496503
2837.830892	222.432168
2839.150156	215.374825
2840.470755	215.707692
2841.789582	216.297902
2843.108191	220.036364
2844.425030	220.925874
2845.741651	225.525874
2847.058054	222.169231
2848.372689	219.138462
2849.688658	213.876923
2851.001307	208.369231
2852.315292	208.206993
2853.629060	209.197203
2854.942611	204.588811
2856.254395	209.074126
2857.564414	210.264336
2858.875767	215.902098
2860.183804	216.551049
2861.493177	219.827972
2862.802334	219.923077
2864.111276	220.941259
2865.418455	224.213986
2866.723870	225.009790
2868.030620	228.019580
2869.335607	231.868531
2870.640381	233.075524
2871.943393	238.563636
2873.249287	237.826573
2874.550326	235.667133
2875.852698	226.738462
2877.153311	221.644755
2878.455258	221.558042
2879.756992	219.881119
2881.055422	212.795804
2882.355185	210.355245
2883.653191	208.802797
2884.950985	211.267133
2886.247022	214.724476
2887.544393	218.767832
2888.840008	221.881119
2890.135413	223.493706
2891.430606	218.595804
2892.722501	218.527273
2894.017273	217.120280
2895.308749	216.227972
2896.601557	206.939860
2897.894155	208.440559
2899.183458	205.373427
2900.474094	205.827972
2901.762980	207.786014
2903.053197	212.090909
2904.340123	219.616783
2905.628381	222.290909
2906.914890	220.009790
2908.201190	222.141259
2909.487282	223.241958
2910.771626	225.479720
2912.058842	222.114685
2913.341231	221.053147
2914.624952	215.019580
2915.906926	217.341259
2917.188694	218.369231
2918.468716	218.444755
2919.751608	216.279720
2921.032755	213.015385
2922.310620	207.888112
2923.591354	206.896503
2924.868807	210.293706
2926.146055	213.641958
2927.421560	216.783217
2928.699933	218.373427
2929.973491	218.440559
2931.249917	221.464336
2932.524602	223.096503
2933.797547	224.074126
2935.071822	220.717483
2936.344358	216.944056
2937.616690	220.096503
2938.885749	219.123077
2940.157673	218.604196
2941.427859	219.833566
2942.697841	217.267133
2943.967620	216.208392
2945.235662	211.781818
2946.501969	210.924476
2947.768073	215.062937
2949.035508	214.604196
2950.301207	211.002797
2951.566704	212.574825
2952.831999	216.580420
2954.094030	214.534266
2955.357390	213.672727
2956.620549	216.230769
2957.881975	215.499301
2959.144731	212.969231
2960.405756	209.874126
2961.665050	208.819580
2962.924143	207.374825
2964.183036	203.509091
2965.441729	196.376224
2966.700222	194.738462
2967.956986	193.390210
2969.213551	196.260140
2970.468387	200.271329
2971.724553	205.025175
2972.977463	205.281119
2974.231703	202.331469
2975.485744	198.869930
2976.738059	197.040559
2977.990176	192.325874
2979.240568	187.830769
2980.493815	181.641958
2981.742285	183.816783
2982.993609	183.046154
2984.241685	187.616783
2985.489563	191.100699
2986.737244	195.338462
2987.984729	196.075524
2989.230492	199.597203
2990.476058	197.665734
2991.722953	199.646154
2992.966602	200.816783
2994.211580	198.902098
2995.453315	197.275524
2996.697901	196.829371
2997.940768	192.552448
2999.180393	192.283916
3000.422870	187.388811
3001.662106	189.710490
3002.902670	190.268531
3004.141517	192.240559
3005.380170	188.697902
3006.617107	191.732867
3007.855371	194.188811
3009.091921	193.762238
3010.328277	195.588811
3011.564439	199.695105
3012.798887	198.535664
3014.033142	199.881119
3015.267204	198.118881
3016.499554	199.509091
3017.730192	194.932867
3018.963676	196.692308
3020.195449	195.439161
3021.425510	194.615385
3022.655380	192.226573
3023.883540	193.391608
3025.113027	189.198601
3026.340804	188.225175
3027.568390	183.962238
3028.797302	186.097902
3030.021472	182.595804
3031.248485	183.593007
3032.472275	180.806993
3033.697390	183.788811
3034.920799	182.718881
3036.144019	187.467133
3037.365533	188.142657
3038.589888	190.253147
3039.809508	189.482517
3041.030454	189.551049
3042.251210	188.892308
3043.470263	189.591608
3044.690642	187.601399
3045.907804	189.006993
3047.126291	184.639161
3048.343077	181.506294
3049.559674	179.843357
3050.776084	181.239161
3051.989280	177.910490
3053.205314	181.176224
3054.418136	182.695105
3055.633795	182.423776
3056.844731	183.395804
3058.056993	189.899301
3059.269067	193.149650
3060.480955	197.444755
3061.691145	196.609790
3062.901150	194.920979
3064.110968	194.355245
3065.319090	193.224476
3066.527026	189.572028
3067.733268	188.446853
3068.940834	184.861538
3070.146705	186.540559
3071.352391	189.559441
3072.557893	194.272028
3073.761701	189.829371
3074.966833	191.183916
3076.170272	190.541259
3077.372019	191.123776
3078.573583	186.640559
3079.774963	182.538462
3080.976159	176.903497
3082.175665	172.269930
3083.374987	168.861538
3084.575633	168.815385
3085.774590	167.046154
3086.970351	170.096503
3088.168942	166.742657
3089.364339	173.454545
3090.561060	174.251748
3091.754588	176.622378
3092.950944	173.358042
3094.145613	175.883916
3095.337092	177.653147
3096.532902	177.365035
3097.724019	175.976224
3098.916459	175.006993
3100.105710	175.584615
3101.297788	179.788811
3102.488182	177.239161
3103.675389	178.739860
3104.863920	178.748252
3106.053773	179.479720
3107.240441	174.702098
3108.426930	179.198601
3109.613239	174.290909
3110.800871	172.213986
3111.985320	170.341259
3113.168089	168.362238
3114.353682	170.622378
3115.537594	173.960839
3116.719828	173.278322
3117.901884	175.093706
3119.083761	174.316084
3120.265460	171.833566
3121.445482	169.194406
3122.623826	172.927273
3123.804992	166.893706
3124.982982	170.497902
3126.160795	171.608392
3127.338431	174.587413
3128.514392	179.313287
3129.690177	182.928671
3130.867282	181.844755
3132.042714	182.033566
3133.216472	176.310490
3134.388557	174.111888
3135.561963	173.318881
3136.735194	175.853147
3137.906752	174.825175
3139.079632	176.297902
3140.249344	174.088112
3141.420377	174.867133
3142.589739	173.398601
3143.757432	174.706294
3144.927940	172.932867
3146.093789	170.174825
3147.263948	166.468531
3148.429449	165.441958
3149.594777	166.239161
3150.759931	169.868531
3151.924912	168.053147
3153.091212	167.321678
3154.252859	162.579021
3155.415827	162.358042
3156.578621	160.674126
3157.741243	161.151049
3158.902200	157.579021
3160.062984	155.693706
3161.223597	153.882517
3162.382545	156.208392
3163.541321	153.626573
3164.699926	158.651748
3165.858359	160.644755
3167.016620	164.570629
3168.173219	166.937063
3169.328157	173.023776
3170.484414	176.716084
3171.639011	174.812587
3172.793436	175.416783
3173.946202	173.994406
3175.098798	170.510490
3176.251224	172.331469
3177.403479	164.640559
3178.555565	166.223776
3179.704504	162.616783
3180.856250	163.376224
3182.006339	165.051748
3183.154770	168.359441
3184.303033	165.490909
3185.451127	163.886713
3186.599052	168.749650
3187.745321	168.475524
3188.891422	169.738462
3190.035869	170.402797
3191.180147	170.544056
3192.324258	174.267133
3193.469687	175.833566
3194.611977	181.987413
3195.754099	183.332867
3196.896055	182.583217
3198.037843	177.874126
3199.179464	179.432168
3200.317949	178.843357
3201.457753	175.854545
3202.598873	169.173427
3203.736859	168.583217
3204.873196	172.356643
3206.009367	173.023776
3207.146856	172.281119
3208.282696	176.662937
3209.419852	177.041958
3210.552397	177.542657
3211.689222	176.053147
3212.821436	174.730070
3213.954968	167.693706
3215.088334	163.356643
3216.218573	158.853147
3217.351611	161.924476
3218.481521	158.855944
3219.612749	159.317483
3220.740851	156.762238
3221.871751	160.458741
3223.001006	161.208392
3224.128617	163.604196
3225.253107	159.053147
3226.381872	157.213986
3227.507515	153.202797
3228.632995	158.704895
3229.756834	160.302098
3230.883468	165.822378
3232.005503	164.653147
3233.128855	166.826573
3234.252045	162.355245
3235.375073	161.997203
3236.496461	159.548252
3237.617688	158.826573
3238.737276	152.074126
3239.856703	154.674126
3240.974493	156.261538
3242.095074	157.738462
3243.212542	164.832168
3244.329849	171.454545
3245.446995	170.727273
3246.562506	171.669930
3247.679332	169.369231
3248.793047	166.265734
3249.909553	162.232168
3251.024423	161.496503
3252.136185	156.461538
3253.247788	152.443357
3254.360706	146.745455
3255.473464	140.871329
3256.583116	142.612587
3257.694083	144.020979
3258.804891	146.651748
3259.914067	149.897902
3261.021612	158.127273
3262.130472	161.436364
3263.239173	167.230769
3264.344772	174.622378
3265.451686	175.193007
3266.556970	171.082517
3267.663568	165.605594
3268.767066	164.267133
3269.871878	159.113287
3270.976533	159.853147
3272.078090	152.965035
3273.179490	149.843357
3274.282204	148.530070
3275.384761	145.662937
3276.484223	148.608392
3277.586467	148.314685
3278.685617	147.854545
3279.783141	150.393007
3280.880510	150.517483
3281.980662	157.191608
3283.077720	155.118881
3284.174624	155.419580
3285.271372	150.233566
3286.363561	147.495105
3287.460000	145.650350
3288.554816	148.660140
3289.649477	149.226573
3290.742517	149.476923
3291.835403	153.015385
3292.926668	158.662937
3294.019246	159.413986
3295.110204	163.662937
3296.199542	160.081119
3297.288727	159.655944
3298.379224	154.876923
3299.466637	151.064336
3300.553898	148.570629
3301.642471	145.809790
3302.730891	142.657343
3303.814764	142.025175
3304.902879	139.779021
3305.987913	142.355245
3307.071331	145.233566
3308.156061	149.648951
3309.239175	147.734266
3310.323601	150.012587
3311.404949	148.455944
3312.487609	150.034965
3313.568655	148.904895
3314.649550	145.037762
3315.728832	145.467133
3316.807963	144.423776
3317.888406	146.702098
3318.965774	154.393007
3320.044454	158.395804
3321.121522	163.640559
3322.198440	158.955245
3323.273748	155.215385
3324.348906	153.170629
3325.425375	151.769231
3326.498773	145.779021
3327.572023	142.215385
3328.646584	142.848951
3329.719535	143.166434
3330.790879	144.748252
3331.863533	149.900699
3332.933120	157.679720
3334.004018	161.892308
3335.073309	156.867133
3336.143911	157.500699
3337.212906	155.579021
3338.280295	152.794406
3339.346079	151.290909
3340.416089	153.613986
3341.483036	146.043357
3342.546921	141.057343
3343.613574	137.618182
3344.678623	140.888112
3345.742068	148.986014
3346.805366	145.927273
3347.868519	145.598601
3348.931525	148.201399
3349.994384	143.446154
3351.055642	143.039161
3352.113843	143.422378
3353.176265	143.093706
3354.235630	138.246154
3355.294851	140.019580
3356.355380	141.801399
3357.411400	142.486713
3358.470185	143.379021
3359.524462	144.025175
3360.581503	146.907692
3361.636945	150.388811
3362.693696	147.693706
3363.748850	149.489510
3364.802406	146.461538
3365.854365	144.180420
3366.909086	144.872727
3367.960759	147.200000
3369.012287	148.162238
3370.065125	144.798601
3371.114915	144.854545
3372.166014	149.346853
3373.214066	147.330070
3374.264879	147.683916
3375.312646	143.832168
3376.360271	143.862937
3377.407754	139.420979
3378.453643	135.461538
3379.500842	135.732867
3380.544997	135.395804
3381.591911	137.593007
3382.637233	136.654545
3383.679515	138.855944
3384.721655	145.107692
3385.765104	148.075524
3386.808411	148.193007
3387.850128	144.429371
3388.891704	143.569231
3389.933140	143.135664
3390.972987	141.857343
3392.011245	141.572028
3393.050811	140.490909
3394.090237	139.960839
3395.128075	141.998601
3396.164326	139.489510
3397.200437	142.415385
3398.237856	142.271329
3399.272242	138.314685
3400.307936	135.844755
3401.343490	136.949650
3402.376012	144.953846
3403.411288	148.811189
3404.443533	149.081119
3405.475640	146.820979
3406.506163	147.036364
3407.537994	143.909091
3408.569686	139.671329
3409.598350	141.972028
3410.626877	143.600000
3411.656710	145.004196
3412.686406	147.481119
3413.713075	153.313287
3414.741052	156.359441
3415.766004	156.899301
3416.793706	155.106294
3417.818385	151.153846
3418.844370	147.352448
3419.868776	141.861538
3420.893044	141.057343
3421.915734	141.974825
3422.938289	136.127273
3423.962148	132.093706
3424.982989	129.110490
3426.003693	126.461139
3427.025703	125.864336
3428.044695	128.100500
3429.063552	133.950050
3430.083715	144.193407
3431.100860	159.610989
