-116.521679	23.400000
-113.852079	11.600000
-111.185414	-1.200000
-108.519501	-6.800000
-105.856521	10.000000
-103.192110	-1.000000
-100.530630	8.600000
-97.867721	24.400000
-95.209918	-4.000000
-92.550686	-13.600000
-89.892202	-17.400000
-87.236643	4.800000
-84.579654	-1.600000
-81.927764	0.000000
-79.274444	10.400000
-76.624043	11.000000
-73.972214	-4.000000
-71.325474	18.200000
-68.677306	4.200000
-66.029880	9.200000
-63.385369	-32.400000
-60.739428	34.600000
-58.098569	-2.000000
-55.456281	2.200000
-52.816902	-10.200000
-50.176093	1.400000
-47.536025	14.200000
-44.901030	16.200000
-42.264605	14.000000
-39.631083	29.600000
-36.996133	-8.000000
-34.366248	19.800000
-31.732771	30.400000
-29.104356	25.600000
-26.476675	-7.800000
-23.847565	9.400000
-21.223512	-12.200000
-18.595870	21.800000
-15.973281	6.600000
-13.351424	21.000000
-10.730297	71.800000
-8.109901	142.800000
-5.492392	480.000000
-2.873455	1477.600000
-0.257403	3689.400000
2.357920	3913.000000
4.972515	1671.400000
7.584229	181.000000
10.197371	22.600000
12.805479	26.400000
15.417169	21.200000
18.023828	9.000000
20.631915	10.000000
23.239278	47.800000
25.841616	28.200000
28.447532	7.200000
31.048426	7.000000
33.650748	4.200000
36.248053	0.800000
38.848933	8.800000
41.444798	-9.400000
44.042092	-12.000000
46.638666	17.800000
49.230231	26.200000
51.823224	1.200000
54.413356	8.600000
57.004915	-7.600000
59.593616	3.400000
62.183743	13.200000
64.768871	-0.800000
67.355427	-13.000000
69.941269	4.200000
72.524257	28.400000
75.108671	1.200000
77.685957	10.600000
80.266809	7.800000
82.844812	26.600000
85.422105	10.800000
88.000824	-5.400000
90.574561	39.200000
93.149726	0.600000
95.722047	-1.000000
98.293660	-11.400000
100.862433	12.400000
103.432633	19.600000
105.999994	13.600000
108.568782	2.200000
111.134733	20.800000
113.697849	4.000000
116.264521	0.600000
118.821972	13.200000
121.385108	15.200000
123.943284	15.400000
126.505015	13.800000
129.061789	49.000000
131.619989	86.600000
134.173237	97.000000
136.725787	157.000000
139.281887	186.800000
141.833039	222.200000
144.383494	237.400000
146.933251	325.400000
149.480189	320.800000
152.026432	343.200000
154.574100	318.400000
157.121072	373.400000
159.663109	348.400000
162.204452	341.400000
164.745102	343.600000
167.287178	351.600000
169.826442	341.800000
172.362898	342.800000
174.898662	325.800000
177.435852	318.400000
179.972351	340.600000
182.506044	339.400000
185.036933	327.200000
187.567134	346.000000
190.098761	337.400000
192.627586	338.400000
195.153612	351.600000
197.678952	351.600000
200.205717	321.000000
202.729686	326.600000
205.252970	323.200000
207.775569	373.000000
210.295375	349.200000
212.814497	352.600000
215.332938	356.600000
217.852802	357.000000
220.365665	358.000000
222.882059	338.400000
225.397771	317.400000
227.908593	351.200000
230.420840	339.200000
232.930305	346.600000
235.439090	361.600000
237.947198	387.600000
240.456730	355.000000
242.961381	394.600000
245.465356	339.800000
247.970755	370.400000
250.471279	360.200000
252.975326	348.600000
255.472403	352.400000
257.973003	374.600000
260.470831	354.200000
262.967986	375.200000
265.464468	358.000000
267.956087	369.800000
270.451226	367.000000
272.943598	367.800000
275.435300	390.000000
277.924239	398.600000
280.414601	363.000000
282.902202	385.600000
285.387043	358.200000
287.875399	398.000000
290.356815	352.600000
292.841745	367.200000
295.321830	368.600000
297.805427	397.800000
300.284181	389.200000
302.764358	405.000000
305.241784	385.800000
307.718546	396.400000
310.194644	359.400000
312.667995	406.000000
315.140683	412.600000
317.612710	424.400000
320.084076	471.200000
322.552697	521.600000
325.020660	487.600000
327.490044	469.400000
329.954606	446.400000
332.422672	449.600000
334.885918	427.800000
337.348506	409.600000
339.810438	403.800000
342.271713	419.400000
344.730254	408.400000
347.190217	430.600000
349.647447	410.400000
352.104023	440.800000
354.559945	404.200000
357.013137	390.400000
359.467752	386.200000
361.917565	419.600000
364.370874	385.800000
366.819384	353.400000
369.267244	391.600000
371.716526	420.600000
374.161014	409.000000
376.606924	425.400000
379.052184	399.800000
381.494726	398.600000
383.936620	380.200000
386.377867	393.600000
388.816398	412.200000
391.256350	391.200000
393.693590	433.600000
396.128117	401.600000
398.566132	406.200000
400.999370	404.000000
403.434029	396.000000
405.863916	423.200000
408.297288	416.200000
410.725890	414.400000
413.153850	413.200000
415.583232	387.400000
418.007848	393.200000
420.433886	426.800000
422.859283	420.200000
425.284040	416.800000
427.704039	412.600000
430.125458	426.200000
432.544182	405.000000
434.964326	438.000000
437.381775	428.200000
439.800644	408.200000
442.216820	409.400000
444.628248	447.000000
447.043153	400.200000
449.455369	447.000000
451.866950	392.000000
454.277897	424.800000
456.686158	434.600000
459.093786	410.200000
461.500782	386.400000
463.907147	382.000000
466.310829	421.800000
468.713881	399.200000
471.116303	391.800000
473.518095	415.200000
475.917209	377.000000
478.317743	390.000000
480.717648	408.800000
483.112831	405.600000
485.511480	384.800000
487.905408	407.000000
490.298711	392.600000
492.691389	405.200000
495.083441	392.800000
497.476911	377.600000
499.865669	342.600000
502.251761	391.200000
504.639273	328.800000
507.026162	361.400000
509.410387	272.200000
511.796030	299.000000
514.179012	299.000000
516.559333	305.800000
518.941073	279.000000
521.320154	262.000000
523.700654	270.400000
526.078496	260.200000
528.453682	274.400000
530.828252	278.600000
533.204239	241.400000
535.577574	255.800000
537.952326	267.000000
540.322393	256.200000
542.691844	234.400000
545.062713	262.000000
547.428901	237.200000
549.796508	248.200000
552.161470	221.200000
554.525818	256.800000
556.889553	263.400000
559.254706	252.800000
561.615187	216.400000
563.977086	259.000000
566.336344	223.400000
568.692964	246.000000
571.053030	260.200000
573.406404	240.600000
575.763223	217.600000
578.117407	252.000000
580.470982	220.200000
582.823950	213.800000
585.174285	256.200000
587.526038	233.000000
589.871114	238.200000
592.221653	249.600000
594.565520	219.600000
596.914848	205.400000
599.259527	251.200000
601.601582	243.800000
603.945054	218.600000
606.285903	216.400000
608.626149	223.800000
610.963776	236.000000
613.304837	239.000000
615.641260	227.600000
617.979100	223.600000
620.314323	228.400000
622.646930	205.800000
624.980953	209.200000
627.312362	233.000000
629.643173	246.600000
631.973387	227.000000
634.303002	209.000000
636.627994	210.800000
638.958428	264.000000
641.284241	218.600000
643.607446	217.000000
645.932068	204.400000
648.254084	212.800000
650.575506	193.800000
652.894326	246.200000
655.214561	219.800000
657.534203	192.800000
659.851244	194.600000
662.167693	215.800000
664.481544	177.600000
666.796811	211.000000
669.109481	177.800000
671.423566	161.800000
673.733051	202.000000
676.043952	220.000000
678.352260	212.800000
680.659980	220.800000
682.969114	182.400000
685.273656	208.000000
687.577612	193.200000
689.880982	204.600000
692.185766	195.400000
694.485963	186.600000
696.787576	193.800000
699.088603	164.200000
701.385049	187.800000
703.682910	214.200000
705.980187	210.000000
708.276881	202.200000
710.568999	169.000000
712.864528	189.600000
715.155483	186.600000
717.447853	194.800000
719.737648	209.400000
722.026862	202.600000
724.315497	202.400000
726.601559	202.200000
728.889036	190.000000
731.173941	198.000000
733.458269	211.000000
735.740028	204.000000
738.023201	211.800000
740.305797	191.800000
742.583837	206.400000
744.863292	189.000000
747.142170	200.200000
749.420474	208.800000
751.694228	183.400000
753.969395	186.000000
756.243989	190.800000
758.516024	203.600000
760.789472	208.200000
763.060362	209.600000
765.328696	205.800000
767.598443	198.200000
769.865636	232.400000
772.132258	181.200000
774.398310	201.000000
776.661811	209.200000
778.926725	205.200000
781.191069	202.000000
783.450884	235.000000
785.712111	209.600000
787.972771	220.800000
790.230885	248.800000
792.486454	213.400000
794.745414	240.800000
796.997874	216.200000
799.255702	230.800000
801.509011	213.000000
803.759780	198.600000
806.011961	210.200000
808.261603	221.400000
810.512658	188.800000
812.759201	208.800000
815.007156	218.400000
817.252577	220.000000
819.499409	197.800000
821.745680	184.600000
823.987446	198.200000
826.232596	206.800000
828.471273	227.000000
830.713332	183.000000
832.950893	214.800000
835.189866	203.600000
837.426312	223.800000
839.664169	213.000000
841.899501	189.200000
844.132310	244.400000
846.366530	178.000000
848.598227	211.400000
850.829370	207.200000
853.059958	195.600000
855.289992	210.800000
857.519472	211.600000
859.744470	175.200000
861.972843	218.200000
864.196736	177.200000
866.422041	189.200000
868.642870	198.000000
870.867071	169.000000
873.086799	187.200000
875.307937	171.800000
877.528525	204.200000
879.746604	204.400000
881.966092	213.000000
884.181114	221.800000
886.395588	191.400000
888.609515	197.000000
890.822895	203.800000
893.035727	211.000000
895.248013	202.000000
897.457796	212.600000
899.667034	182.600000
901.875727	194.800000
904.081920	215.200000
906.289524	200.000000
908.494629	198.600000
910.699191	168.600000
912.901258	203.000000
915.104734	180.400000
917.305716	173.600000
919.506156	191.800000
921.708005	192.200000
923.903463	215.000000
926.102280	211.400000
928.296658	226.800000
930.494394	196.600000
932.687694	205.200000
934.882403	198.400000
937.074626	204.400000
939.266310	194.200000
941.457457	201.600000
943.646121	176.800000
945.834249	195.200000
948.019896	214.200000
950.208895	198.000000
952.393471	202.800000
954.577512	232.200000
956.764903	198.000000
958.943990	228.200000
961.126428	235.200000
963.308332	225.800000
965.487761	248.000000
967.664718	222.000000
969.843083	248.800000
972.022855	243.400000
974.196278	237.400000
976.373047	231.400000
978.545409	262.600000
980.719179	249.000000
982.888545	246.200000
985.061255	233.800000
987.231500	234.800000
989.401215	255.200000
991.570403	254.200000
993.735193	255.000000
995.903324	267.200000
998.067060	265.600000
1000.232204	278.600000
1002.394888	234.400000
1004.557047	251.000000
1006.716749	272.200000
1008.875926	256.400000
1011.036510	268.200000
1013.194639	269.600000
1015.352245	264.800000
1017.509327	248.400000
1019.665885	235.400000
1021.818064	244.800000
1023.971650	289.400000
1026.124714	261.400000
1028.275329	286.000000
1030.427351	265.800000
1032.574999	308.800000
1034.725979	294.000000
1036.872588	308.200000
1039.018678	299.000000
1041.164250	306.600000
1043.311227	301.800000
1045.451915	317.400000
1047.595933	299.800000
1049.737510	291.600000
1051.878571	294.400000
1054.021036	300.800000
1056.157221	293.400000
1058.296733	299.600000
1060.431890	308.800000
1062.570371	304.800000
1064.704498	329.600000
1066.838112	312.200000
1068.973130	289.800000
1071.103800	325.400000
1073.235874	285.400000
1075.365519	285.200000
1077.494652	303.000000
1079.623273	280.600000
1081.751383	292.600000
1083.877067	291.200000
1086.002241	291.200000
1088.128819	285.000000
1090.251059	278.600000
1092.374704	291.600000
1094.494014	283.400000
1096.618553	260.200000
1098.736848	291.600000
1100.856547	278.600000
1102.973827	276.800000
1105.090600	273.200000
1107.206868	281.800000
1109.320719	275.800000
1111.435975	265.000000
1113.546907	284.200000
1115.661152	258.800000
1117.771076	243.800000
1119.882404	256.200000
1121.993227	271.800000
1124.099734	257.400000
1126.209550	261.200000
1128.315053	260.800000
1130.421958	281.000000
1132.522648	267.200000
1134.628550	248.800000
1136.730143	235.200000
1138.833139	254.000000
1140.935634	249.400000
1143.031922	256.000000
1145.133417	240.200000
1147.230610	265.200000
1149.327305	229.600000
1151.423501	258.400000
1153.519199	217.400000
1155.614400	237.400000
1157.707204	235.600000
1159.801410	238.400000
1161.889425	253.200000
1163.982639	272.000000
1166.069664	202.200000
1168.159988	267.000000
1170.246024	223.400000
1172.335359	240.200000
1174.418512	240.000000
1176.503067	272.000000
1178.589024	232.200000
1180.670699	238.000000
1182.753775	226.800000
1184.834466	237.200000
1186.914666	242.400000
1188.994374	267.200000
1191.073591	260.000000
1193.150426	245.400000
1195.224879	214.600000
1197.302625	224.200000
1199.376101	254.800000
1201.450977	244.600000
1203.521586	243.400000
1205.593596	233.400000
1207.663231	225.600000
1209.734265	244.000000
1211.804813	248.400000
1213.871099	249.800000
1215.938786	257.600000
1218.004101	244.400000
1220.070816	229.600000
1222.133275	264.200000
1224.199019	228.200000
1226.260509	228.000000
1228.323400	244.600000
1230.383923	211.400000
1232.443962	224.600000
1234.503518	259.600000
1236.560710	258.200000
1238.617420	247.800000
1240.671766	253.600000
1242.729394	243.400000
1244.784659	242.800000
1246.835683	248.400000
1248.888107	255.000000
1250.940051	235.000000
1252.989637	243.600000
1255.038744	264.600000
1257.087372	237.600000
1259.135522	247.400000
1261.183194	221.400000
1263.226635	270.800000
1265.273352	270.000000
1267.317715	276.600000
1269.361602	254.800000
1271.403137	264.000000
1273.442323	280.200000
1275.484782	277.200000
1277.523018	274.800000
1279.562653	259.800000
1281.601813	286.200000
1283.636754	244.800000
1285.673094	289.800000
1287.707090	259.200000
1289.742483	281.600000
1291.773664	300.000000
1293.806242	270.600000
1295.838349	317.400000
1297.868115	307.400000
1299.899278	333.600000
1301.926235	293.200000
1303.954589	305.000000
1305.978738	323.000000
1308.006153	348.000000
1310.029365	372.400000
1312.053975	354.000000
1314.076251	360.200000
1316.099924	391.200000
1318.121263	384.600000
1320.142136	396.400000
1322.162541	422.200000
1324.178753	396.800000
1326.196362	448.000000
1328.211643	435.200000
1330.230183	426.200000
1332.244534	441.400000
1334.256558	411.400000
1336.271841	414.200000
1338.282938	425.600000
1340.295432	426.200000
1342.303743	394.800000
1344.315309	383.400000
1346.320837	392.400000
1348.329620	376.400000
1350.334225	379.200000
1352.342084	338.800000
1354.349481	342.000000
1356.350847	357.400000
1358.353609	336.800000
1360.355912	341.200000
1362.357755	323.600000
1364.359138	308.200000
1366.358208	328.000000
1368.356819	306.600000
1370.354971	322.600000
1372.352666	301.400000
1374.346198	296.000000
1376.341125	267.800000
1378.335596	278.000000
1380.329610	277.600000
1382.321317	265.600000
1384.312568	294.000000
1386.301514	262.400000
1388.291856	244.600000
1390.281742	250.400000
1392.269324	240.400000
1394.256453	248.400000
1396.241280	235.200000
1398.227502	259.000000
1400.211423	258.600000
1402.194892	250.200000
1404.177909	253.600000
1406.158628	240.800000
1408.140741	250.200000
1410.120558	269.400000
1412.099923	239.800000
1414.075150	251.400000
1416.053615	253.800000
1418.029787	231.600000
1420.005509	279.600000
1421.980783	234.400000
1423.953765	254.000000
1425.926299	258.400000
1427.898385	236.000000
1429.870024	221.000000
1431.837534	247.000000
1433.810118	250.600000
1435.774896	254.400000
1437.744747	234.400000
1439.710474	222.800000
1441.677593	229.200000
1443.642429	231.000000
1445.603145	242.000000
1447.568929	219.000000
1449.528758	238.000000
1451.489981	236.400000
1453.452595	267.600000
1455.411095	238.200000
1457.369153	225.000000
1459.326769	238.800000
1461.283942	233.200000
1463.238840	241.000000
1465.195131	271.200000
1467.149147	246.400000
1469.102722	223.400000
1471.054025	266.000000
1473.006721	239.200000
1474.957144	246.200000
1476.907129	226.000000
1478.856675	248.200000
1480.803952	248.800000
1482.748961	241.000000
1484.695363	239.800000
1486.641327	254.200000
1488.586854	230.200000
1490.530115	281.800000
1492.472941	253.200000
1494.413502	244.800000
1496.355456	239.600000
1498.295147	262.200000
1500.234403	242.800000
1502.173225	267.600000
1504.109787	249.600000
1506.047740	261.200000
1507.983434	252.200000
1509.918695	236.800000
1511.851699	239.400000
1513.784272	264.800000
1515.716412	271.400000
1517.648120	246.400000
1519.577574	276.600000
1521.508419	263.000000
1523.438832	274.400000
1525.365173	272.200000
1527.292904	264.600000
1529.218386	292.200000
1531.143438	246.600000
1533.068061	279.200000
1534.992254	303.600000
1536.914201	311.800000
1538.837538	291.200000
1540.758628	317.400000
1542.677474	326.200000
1544.597710	327.200000
1546.515703	350.000000
1548.433269	325.200000
1550.348593	361.200000
1552.265307	333.600000
1554.177966	373.200000
1556.093829	363.400000
1558.007452	331.600000
1559.918837	360.200000
1561.831612	366.400000
1563.740337	380.000000
1565.650451	405.800000
1567.560142	386.400000
1569.469410	376.200000
1571.376444	384.200000
1573.281245	410.200000
1575.187435	356.200000
1577.091393	358.000000
1578.994930	372.400000
1580.898047	380.600000
1582.798934	345.400000
1584.701210	351.400000
1586.601258	344.000000
1588.502693	345.200000
1590.400095	345.000000
1592.297078	323.800000
1594.193643	338.400000
1596.091595	314.600000
1597.983713	343.400000
1599.879025	322.600000
1601.773919	297.800000
1603.666591	330.800000
1605.558846	308.800000
1607.448882	319.800000
1609.338502	303.600000
1611.227707	269.600000
1613.116497	306.000000
1615.003069	273.200000
1616.891029	303.200000
1618.774972	232.400000
1620.660302	255.000000
1622.545219	249.800000
1624.427922	256.600000
1626.312012	230.800000
1628.192090	267.800000
1630.073556	273.200000
1631.952811	260.400000
1633.833452	264.000000
1635.708289	235.600000
1637.588107	245.800000
1639.463921	211.600000
1641.339324	240.800000
1643.216113	241.200000
1645.087106	232.400000
1646.961280	221.000000
1648.831455	243.400000
1650.704811	242.000000
1652.575964	212.200000
1654.444916	234.600000
1656.315252	198.600000
1658.181596	263.200000
1660.049325	210.600000
1661.914855	241.000000
1663.781771	198.400000
1665.644698	214.200000
1667.509010	214.400000
1669.371126	236.000000
1671.232837	206.000000
1673.095934	227.600000
1674.956835	215.600000
1676.815544	224.000000
1678.673849	224.800000
1680.533538	219.200000
1682.387461	222.600000
1684.244557	225.000000
1686.101249	222.200000
1687.953966	207.000000
1689.809854	206.800000
1691.661768	191.200000
1693.513281	223.400000
1695.364393	239.200000
1697.215105	212.800000
1699.065415	244.200000
1700.913542	209.400000
1702.763053	222.000000
1704.606814	239.800000
1706.455526	215.200000
1708.298491	231.200000
1710.144623	224.000000
1711.986792	180.000000
1713.832127	224.400000
1715.671721	211.800000
1717.512699	227.600000
1719.355060	238.200000
1721.193465	240.000000
1723.033253	218.400000
1724.870865	215.400000
1726.708083	225.200000
1728.543127	220.400000
1730.379554	219.200000
1732.213809	236.200000
1734.047669	227.800000
1735.881135	217.600000
1737.710656	224.200000
1739.543335	228.800000
1741.372070	224.400000
1743.203962	214.400000
1745.031912	237.400000
1746.859471	209.800000
1748.686637	220.200000
1750.513412	248.200000
1752.339795	245.400000
1754.162242	199.600000
1755.987844	212.400000
1757.809511	218.000000
1759.632560	223.200000
1761.453447	201.800000
1763.273946	194.200000
1765.095825	212.000000
1766.912006	218.600000
1768.731338	229.200000
1770.546742	222.400000
1772.365298	229.800000
1774.179928	217.600000
1775.994171	219.200000
1777.808028	192.200000
1779.621498	233.800000
1781.432815	212.600000
1783.245512	211.800000
1785.057824	204.400000
1786.866217	198.600000
1788.675992	196.800000
1790.481852	206.800000
1792.290857	197.400000
1794.095949	208.200000
1795.902422	222.400000
1797.708511	229.400000
1799.510689	209.800000
1801.316012	223.000000
1803.117426	216.800000
1804.920220	210.800000
1806.719108	197.800000
1808.519377	197.800000
1810.319264	212.200000
1812.117009	220.800000
1813.914374	197.800000
1815.711359	240.400000
1817.507963	224.600000
1819.302428	203.000000
1821.098272	240.400000
1822.888461	221.600000
1824.683547	197.600000
1826.472981	228.800000
1828.265551	195.200000
1830.055986	218.000000
1831.844287	219.800000
1833.635723	224.600000
1835.421513	258.200000
1837.208683	227.200000
1838.993721	208.200000
1840.781893	235.000000
1842.566179	231.600000
1844.348335	202.600000
1846.131871	198.600000
1847.913278	206.200000
1849.696064	204.400000
1851.474969	203.400000
1853.255253	215.000000
1855.033412	213.400000
1856.812949	204.400000
1858.590360	222.000000
1860.365649	200.600000
1862.142315	207.800000
1863.916859	218.800000
1865.692781	241.600000
1867.463082	213.000000
1869.236511	243.200000
1871.007820	214.000000
1872.778758	207.800000
1874.551074	228.000000
1876.317776	207.800000
1878.087603	209.000000
1879.853567	197.600000
1881.622655	206.200000
1883.387881	209.600000
1885.152739	205.800000
1886.918974	225.800000
1888.681350	193.200000
1890.443358	202.800000
1892.205000	207.800000
1893.966275	224.600000
1895.727182	198.400000
1897.487723	203.000000
1899.246154	223.000000
1901.004219	203.000000
1902.760177	199.000000
1904.517511	240.600000
1906.274480	202.200000
1908.029342	206.000000
1909.782100	195.800000
1911.534493	239.600000
1913.288263	227.400000
1915.039929	235.000000
1916.789493	200.200000
1918.540432	220.400000
1920.291009	213.800000
1922.037746	231.800000
1923.785860	201.600000
1925.531874	229.200000
1927.279263	193.800000
1929.024555	226.600000
1930.767749	239.000000
1932.512318	211.800000
1934.254791	196.200000
1935.996905	207.200000
1937.738658	207.000000
1939.480051	229.400000
1941.219351	209.000000
1942.958292	195.200000
1944.696874	198.600000
1946.433365	219.400000
1948.169498	214.800000
1949.907005	210.200000
1951.640690	214.800000
1953.375750	246.800000
1955.108721	232.800000
1956.841336	215.000000
1958.573595	230.600000
1960.305497	255.200000
1962.035313	222.600000
1963.763044	215.400000
1965.492150	211.000000
1967.220900	208.600000
1968.947568	225.200000
1970.673881	224.800000
1972.401567	223.400000
1974.123717	227.400000
1975.848968	212.200000
1977.570412	202.800000
1979.294957	207.200000
1981.017421	228.200000
1982.736083	220.600000
1984.457843	242.400000
1986.175801	229.600000
1987.895132	243.600000
1989.610664	229.600000
1991.331016	219.000000
1993.047570	220.800000
1994.760327	223.800000
1996.476180	208.400000
1998.189961	224.800000
1999.903392	239.400000
2001.614752	225.200000
2003.327484	194.400000
2005.036426	221.200000
2006.748460	204.800000
2008.454985	235.000000
2010.164603	206.600000
2011.872154	232.600000
2013.579356	230.400000
2015.284493	227.000000
2016.989284	235.600000
2018.695446	239.200000
2020.397826	216.000000
2022.101577	218.000000
2023.803266	228.800000
2025.504609	204.600000
2027.205608	219.400000
2028.904545	228.600000
2030.604854	205.400000
2032.301387	245.000000
2033.999292	220.400000
2035.695139	220.000000
2037.394071	225.800000
2039.087517	239.200000
2040.782334	240.200000
2042.476809	223.000000
2044.167515	218.200000
2045.861305	217.800000
2047.551328	200.000000
2049.242722	223.800000
2050.932063	244.000000
2052.622774	238.400000
2054.309722	231.200000
2055.996331	217.200000
2057.684309	218.800000
2059.368528	249.200000
2061.054118	223.800000
2062.739368	235.800000
2064.422569	204.800000
2066.107141	224.200000
2067.786249	211.800000
2069.470144	249.200000
2071.148577	221.600000
2072.830088	240.200000
2074.507847	203.000000
2076.185270	212.800000
2077.864062	213.200000
2079.540812	192.800000
2081.215519	200.000000
2082.891597	206.000000
2084.565633	217.200000
2086.239335	219.200000
2087.912701	224.800000
2089.584028	208.000000
2091.255021	215.200000
2092.925680	206.400000
2094.596005	204.600000
2096.265996	228.000000
2097.933951	211.600000
2099.601573	222.200000
2101.267160	198.200000
2102.934116	235.600000
2104.599039	225.800000
2106.263630	224.800000
2107.926189	245.200000
2109.590116	237.600000
2111.252012	206.000000
2112.913578	207.200000
2114.574812	208.400000
2116.234018	229.400000
2117.892893	205.400000
2119.551439	212.000000
2121.209654	233.400000
2122.864147	240.800000
2124.521704	207.800000
2126.178931	218.400000
2127.832438	219.800000
2129.487312	200.800000
2131.138467	221.600000
2132.792685	226.800000
2134.443185	256.600000
2136.095053	241.200000
2137.741512	214.800000
2139.392726	233.600000
2141.040226	236.200000
2142.689093	209.800000
2144.335941	209.400000
2145.982464	232.600000
2147.628661	240.600000
2149.271150	206.800000
2150.916697	226.200000
2152.558537	246.600000
2154.203434	221.600000
2155.844625	239.200000
2157.485494	234.600000
2159.126038	207.000000
2160.764570	254.000000
2162.404468	241.000000
2164.040666	243.600000
2165.678230	258.600000
2167.315472	231.000000
2168.950704	218.600000
2170.585614	241.200000
2172.220203	203.200000
2173.854471	209.400000
2175.485045	230.200000
2177.118671	219.200000
2178.748605	237.800000
2180.379904	210.800000
2182.009198	245.600000
2183.638173	229.400000
2185.266828	215.400000
2186.895164	235.800000
2188.521498	215.600000
2190.147513	195.000000
2191.771526	248.200000
2193.396905	225.000000
2195.020283	233.400000
2196.645026	211.800000
2198.266088	234.000000
2199.886833	228.400000
2201.508942	196.200000
2203.129054	200.200000
2204.747170	223.800000
2206.364970	204.800000
2207.982455	235.400000
2209.599624	231.800000
2211.216478	240.200000
2212.833016	222.200000
2214.447562	252.800000
2216.060115	240.400000
2217.674032	245.600000
2219.285958	251.400000
2220.899247	248.600000
2222.510546	234.400000
2224.119855	222.600000
2225.730528	221.000000
2227.339212	211.600000
2228.947583	198.400000
2230.553968	203.600000
2232.161715	231.800000
2233.767477	227.000000
2235.372927	208.400000
2236.976392	230.400000
2238.581220	217.600000
2240.184064	236.600000
2241.784925	220.000000
2243.387149	232.800000
2244.987391	215.400000
2246.588995	201.000000
2248.186946	211.000000
2249.786260	225.000000
2251.383594	224.800000
2252.980620	240.200000
2254.579008	202.000000
2256.173747	227.400000
2257.766509	241.800000
2259.360634	224.000000
2260.956120	240.200000
2262.547961	218.800000
2264.139496	232.800000
2265.732393	224.200000
2267.319980	227.600000
2268.912263	215.800000
2270.499240	203.800000
2272.089244	229.800000
2273.673944	218.000000
2275.263338	244.600000
2276.847430	231.000000
2278.432882	233.600000
2280.016366	212.600000
2281.602875	209.000000
2283.185751	220.400000
2284.768324	216.400000
2286.350593	214.000000
2287.929232	237.200000
2289.510896	249.600000
2291.088931	229.400000
2292.669989	204.200000
2294.247420	216.600000
2295.822888	229.000000
2297.401378	203.000000
2298.976244	215.000000
2300.550809	216.800000
2302.125073	197.400000
2303.699038	211.400000
2305.272701	207.400000
2306.846065	221.000000
2308.415810	201.200000
2309.985256	242.400000
2311.557720	227.800000
2313.124910	223.600000
2314.695118	211.800000
2316.261711	211.600000
2317.829664	223.000000
2319.395661	235.400000
2320.961361	206.400000
2322.526763	225.200000
2324.090212	217.000000
2325.655020	220.200000
2327.216220	251.600000
2328.780434	240.400000
2330.339386	259.000000
2331.901352	251.600000
2333.461368	245.200000
2335.021089	264.600000
2336.578860	235.800000
2338.136336	218.800000
2339.693518	212.400000
2341.248752	251.600000
2342.803693	221.600000
2344.358339	252.200000
2345.912692	207.000000
2347.466751	210.400000
2349.020517	217.600000
2350.572338	245.800000
2352.122217	244.400000
2353.675103	231.200000
2355.222746	219.400000
2356.773398	243.400000
2358.320458	231.400000
2359.868876	254.600000
2361.417003	211.400000
2362.961541	259.800000
2364.507437	220.200000
2366.051395	227.200000
2367.596709	248.600000
2369.138440	211.600000
2370.681527	242.800000
2372.222678	236.800000
2373.763540	227.600000
2375.304113	217.800000
2376.844397	226.600000
2378.384392	203.400000
2379.920809	223.600000
2381.460227	212.000000
2382.996067	215.200000
2384.533265	260.000000
2386.066887	226.200000
2387.603509	234.400000
2389.138201	237.400000
2390.670963	240.200000
2392.203438	236.800000
2393.733985	196.000000
2395.267530	211.400000
2396.795864	244.400000
2398.325554	215.800000
2399.854959	244.600000
2401.384079	232.200000
2402.912913	227.000000
2404.436543	224.600000
2405.964808	227.400000
2407.487871	237.800000
2409.015567	245.000000
2410.536424	225.200000
2412.061913	257.800000
2413.583843	223.600000
2415.107127	219.400000
2416.628491	235.600000
2418.147935	245.600000
2419.668734	222.800000
2421.187614	241.200000
2422.706213	218.000000
2424.222894	252.400000
2425.740929	240.200000
2427.258683	249.400000
2428.772885	233.800000
2430.286808	239.200000
2431.800450	246.800000
2433.315447	210.400000
2434.826895	232.400000
2436.339697	240.000000
2437.850587	229.800000
2439.361198	242.400000
2440.869897	231.800000
2442.381582	239.200000
2443.889724	223.200000
2445.397588	241.600000
2446.905174	219.200000
2448.409219	243.800000
2449.916249	220.800000
2451.421371	249.200000
2452.926216	214.800000
2454.429154	229.200000
2455.931816	206.600000
2457.434201	219.600000
2458.934681	250.800000
2460.436514	228.600000
2461.936442	236.400000
2463.436095	224.600000
2464.935473	223.600000
2466.432948	248.600000
2467.928521	241.400000
2469.427074	226.400000
2470.922099	234.000000
2472.418476	212.000000
2473.911327	217.600000
2475.405531	211.000000
2476.899461	219.000000
2478.389867	239.400000
2479.883251	225.400000
2481.374737	225.400000
2482.864326	232.600000
2484.353643	232.000000
2485.841064	242.000000
2487.331461	247.200000
2488.818340	220.800000
2490.306570	240.800000
2491.791283	235.800000
2493.275727	246.000000
2494.761521	208.600000
2496.245424	251.400000
2497.730677	245.600000
2499.210797	248.200000
2500.693890	235.000000
2502.175092	246.800000
2503.656025	224.800000
2505.135069	223.000000
2506.613844	271.400000
2508.092351	213.800000
2509.570590	250.000000
2511.048560	236.200000
2512.523025	222.200000
2514.000460	247.600000
2515.474391	253.800000
2516.949672	217.800000
2518.424686	240.400000
2519.896199	205.400000
2521.369063	231.000000
2522.840044	251.600000
2524.312375	220.400000
2525.779592	257.600000
2527.249776	245.200000
2528.718079	240.000000
2530.186117	209.000000
2531.653890	252.000000
2533.121398	241.400000
2534.588641	260.400000
2536.052392	234.000000
2537.517493	252.400000
2538.980717	238.000000
2540.445290	234.600000
2541.906375	224.000000
2543.368809	243.600000
2544.830980	239.400000
2546.289665	255.600000
2547.752921	252.600000
2549.211082	216.000000
2550.670591	251.800000
2552.125006	254.400000
2553.583992	229.000000
2555.041106	243.200000
2556.496348	265.600000
2557.951330	233.400000
2559.404443	232.200000
2560.858903	265.200000
2562.311495	251.200000
2563.763827	244.000000
2565.214292	251.600000
2566.667712	267.400000
2568.116050	241.400000
2569.567343	239.400000
2571.016771	218.600000
2572.462726	233.000000
2573.911636	226.600000
2575.357076	225.600000
2576.803863	257.800000
2578.248787	228.800000
2579.693454	223.600000
2581.139468	269.000000
2582.582016	244.800000
2584.025911	275.000000
2585.466340	216.800000
2586.908118	211.400000
2588.348036	228.200000
2589.789301	254.800000
2591.227104	230.800000
2592.667857	216.000000
2594.103548	254.800000
2595.542188	231.400000
2596.978970	249.800000
2598.413897	260.600000
2599.851771	262.400000
2601.284588	244.200000
2602.718752	247.800000
2604.151062	260.800000
2605.584718	256.200000
2607.016521	263.400000
2608.448070	236.600000
2609.879367	278.200000
2611.308811	239.800000
2612.738003	264.400000
2614.165345	258.200000
2615.594032	227.000000
2617.022468	213.600000
2618.447456	265.400000
2619.873791	257.400000
2621.298277	249.600000
2622.724109	279.200000
2624.146497	267.000000
2625.570231	247.000000
2626.992118	274.200000
2628.413756	264.800000
2629.833548	239.400000
2631.254686	247.200000
2632.675574	256.000000
2634.093023	242.200000
2635.513413	280.400000
2636.930365	255.400000
2638.347068	265.200000
2639.763523	260.000000
2641.179730	274.400000
2642.595689	258.200000
2644.009807	274.200000
2645.423677	266.200000
2646.835709	236.400000
2648.249084	266.200000
2649.659030	229.600000
2651.071912	258.200000
2652.481365	286.800000
2653.890572	270.800000
2655.297943	264.000000
2656.708248	250.800000
2658.116718	254.600000
2659.523352	226.800000
2660.929741	276.400000
2662.334296	256.000000
2663.740195	275.200000
2665.144261	267.000000
2666.548082	258.800000
2667.951659	258.400000
2669.353405	265.800000
2670.756494	271.400000
2672.156165	275.800000
2673.557180	309.200000
2674.954779	275.400000
2676.355307	253.600000
2677.752421	268.200000
2679.150878	257.000000
2680.547508	254.600000
2681.943895	288.800000
2683.340040	249.000000
2684.734359	240.200000
2686.130021	261.000000
2687.522274	261.000000
2688.915869	265.800000
2690.307640	233.400000
2691.700754	252.400000
2693.092044	255.600000
2694.481511	243.200000
2695.870738	237.600000
2697.259726	261.200000
2698.650055	253.000000
2700.035401	250.400000
2701.423670	238.800000
2702.810119	227.400000
2704.196329	244.800000
2705.582300	298.400000
2706.964873	245.200000
2708.348788	267.800000
2709.732465	252.200000
2711.115903	260.600000
2712.495946	227.600000
2713.877331	234.400000
2715.256901	240.600000
2716.637811	237.400000
2718.016907	262.600000
2719.394189	224.400000
2720.772812	260.600000
2722.149621	278.200000
2723.526195	246.000000
2724.902533	264.600000
2726.277060	219.000000
2727.652927	244.800000
2729.025407	231.200000
2730.400803	242.000000
2731.771239	231.800000
2733.143016	236.800000
2734.514558	212.600000
2735.884292	255.600000
2737.255367	260.000000
2738.624633	256.600000
2739.993666	231.600000
2741.360893	229.800000
2742.727886	231.600000
2744.094647	229.400000
2745.461176	210.200000
2746.825899	225.000000
2748.190390	220.000000
2749.554650	206.600000
2750.918677	220.600000
2752.282473	244.400000
2753.642895	217.400000
2755.006227	230.000000
2756.364617	209.000000
2757.725917	242.400000
2759.083847	256.000000
2760.444685	251.000000
2761.803724	193.200000
2763.159394	242.800000
2764.517972	216.400000
2765.873183	243.000000
2767.228165	257.000000
2768.581350	271.200000
2769.937442	241.400000
2771.290170	228.200000
2772.642670	246.800000
2773.994941	235.400000
2775.348550	238.200000
2776.698799	211.000000
2778.047253	217.600000
2779.398612	224.000000
2780.746613	197.800000
2782.095951	231.600000
2783.443497	256.600000
2784.790817	231.400000
2786.137910	223.600000
2787.483211	243.000000
2788.828287	231.400000
2790.173137	206.000000
2791.517761	217.400000
2792.859033	237.600000
2794.201643	224.000000
2795.544027	212.600000
2796.886186	234.000000
2798.224996	239.200000
2799.566706	208.200000
2800.905067	219.200000
2802.244766	231.400000
2803.582680	231.600000
2804.918809	248.200000
2806.254714	242.600000
2807.591957	196.800000
2808.927416	217.000000
2810.262652	199.000000
2811.596105	216.800000
2812.930895	229.200000
2814.262345	240.400000
2815.596690	207.800000
2816.926137	234.400000
2818.256920	239.400000
2819.587483	215.200000
2820.916266	225.800000
2822.246385	253.800000
2823.574726	230.600000
2824.902846	228.000000
2826.229188	230.600000
2827.556867	237.200000
2828.881212	231.000000
2830.206894	241.200000
2831.530800	228.800000
2832.854486	233.400000
2834.179509	232.000000
2835.501201	242.400000
2836.822675	211.400000
2838.143930	226.400000
2839.464966	217.800000
2840.784229	218.000000
2842.104828	225.600000
2843.423656	242.200000
2844.742265	253.200000
2846.059103	252.800000
2847.375724	217.200000
2848.692128	236.200000
2850.006762	221.600000
2851.322732	226.800000
2852.635381	230.400000
2853.949365	212.600000
2855.263133	219.400000
2856.576684	225.800000
2857.888469	213.200000
2859.198487	253.000000
2860.509840	228.600000
2861.817878	212.400000
2863.127250	212.200000
2864.436408	247.200000
2865.745350	214.600000
2867.052528	260.000000
2868.357944	223.200000
2869.664693	254.600000
2870.969681	226.200000
2872.274454	218.400000
2873.577467	224.600000
2874.883360	219.600000
2876.184399	228.800000
2877.486772	223.400000
2878.787385	222.200000
2880.089332	260.400000
2881.391065	221.200000
2882.689495	213.400000
2883.989258	244.000000
2885.287264	232.600000
2886.585058	238.000000
2887.881096	222.800000
2889.178467	210.600000
2890.474082	226.400000
2891.769486	241.400000
2893.064679	239.400000
2894.356575	220.000000
2895.651347	229.000000
2896.942822	245.400000
2898.235630	223.200000
2899.528228	230.400000
2900.817532	223.200000
2902.108168	223.400000
2903.397053	247.400000
2904.687270	185.400000
2905.974196	222.400000
2907.262454	228.800000
2908.548963	243.200000
2909.835263	233.600000
2911.121356	224.400000
2912.405700	222.600000
2913.692915	206.200000
2914.975304	214.800000
2916.259025	249.600000
2917.541000	219.800000
2918.822767	226.000000
2920.102789	244.000000
2921.385682	209.600000
2922.666829	219.800000
2923.944694	230.000000
2925.225428	223.400000
2926.502881	215.200000
2927.780128	216.800000
2929.055633	230.600000
2930.334006	216.800000
2931.607565	226.200000
2932.883991	226.400000
2934.158676	210.200000
2935.431620	215.600000
2936.705896	214.600000
2937.978432	213.400000
2939.250763	216.000000
2940.519822	233.600000
2941.791746	225.400000
2943.061932	223.400000
2944.331914	255.000000
2945.601693	195.000000
2946.869736	214.800000
2948.136042	225.000000
2949.402147	229.400000
2950.669581	194.800000
2951.935280	208.400000
2953.200778	227.600000
2954.466073	241.800000
2955.728103	198.200000
2956.991463	228.800000
2958.254622	221.800000
2959.516049	232.600000
2960.778805	201.200000
2962.039829	238.200000
2963.299123	206.000000
2964.558217	227.800000
2965.817110	219.400000
2967.075803	202.800000
2968.334296	215.600000
2969.591060	188.800000
2970.847624	224.800000
2972.102460	219.000000
2973.358626	225.000000
2974.611537	187.400000
2975.865777	225.800000
2977.119817	214.000000
2978.372132	228.200000
2979.624249	221.400000
2980.874641	218.000000
2982.127888	244.200000
2983.376358	228.400000
2984.627683	226.800000
2985.875758	216.600000
2987.123636	228.400000
2988.371318	232.200000
2989.618802	210.800000
2990.864565	256.800000
2992.110132	201.800000
2993.357026	203.800000
2994.600676	218.800000
2995.845654	214.400000
2997.087388	208.200000
2998.331974	243.800000
2999.574841	230.200000
3000.814467	178.800000
3002.056943	231.000000
3003.296179	175.000000
3004.536743	208.600000
3005.775590	196.600000
3007.014243	227.200000
3008.251180	229.400000
3009.489445	214.000000
3010.725994	196.400000
3011.962350	225.200000
3013.198512	191.400000
3014.432960	226.400000
3015.667216	214.000000
3016.901278	215.800000
3018.133627	185.800000
3019.364266	220.000000
3020.597750	193.200000
3021.829522	216.800000
3023.059584	221.200000
3024.289453	214.800000
3025.517613	212.400000
3026.747100	203.400000
3027.974877	195.600000
3029.202463	205.200000
3030.431375	195.000000
3031.655546	227.800000
3032.882559	219.000000
3034.106348	221.000000
3035.331464	228.200000
3036.554873	224.200000
3037.778092	191.800000
3038.999606	237.800000
3040.223961	192.400000
3041.443581	246.800000
3042.664527	218.200000
3043.885284	238.800000
3045.104337	208.000000
3046.324715	207.200000
3047.541877	200.000000
3048.760365	227.400000
3049.977150	254.600000
3051.193748	208.800000
3052.410157	211.800000
3053.623353	218.600000
3054.839388	191.000000
3056.052210	197.600000
3057.267869	201.400000
3058.478805	234.600000
3059.691066	178.400000
3060.903140	212.400000
3062.115028	204.200000
3063.325219	182.000000
3064.535223	213.000000
3065.745041	216.800000
3066.953163	223.200000
3068.161100	198.200000
3069.367341	193.000000
3070.574907	212.000000
3071.780778	197.100000
3072.986465	182.200000
3074.191966	206.200000
3075.395774	214.600000
3076.600906	213.200000
3077.804345	249.200000
3079.006093	195.400000
3080.207656	209.200000
3081.409036	201.200000
3082.610232	206.200000
3083.809738	202.200000
3085.009061	198.400000
3086.209707	205.400000
3087.408663	215.800000
3088.604425	194.200000
3089.803016	227.200000
3090.998413	210.800000
3092.195133	204.600000
3093.388661	210.200000
3094.585017	235.600000
3095.779686	200.400000
3096.971165	217.600000
3098.166976	214.600000
3099.358092	219.600000
3100.550532	192.800000
3101.739784	192.400000
3102.931861	184.800000
3104.122255	226.200000
3105.309463	199.800000
3106.497993	200.000000
3107.687846	220.200000
3108.874515	210.400000
3110.061003	197.600000
3111.247313	203.200000
3112.434944	205.400000
3113.619393	203.200000
3114.802163	195.600000
3115.987755	221.000000
3117.171668	209.600000
3118.353902	210.400000
3119.535957	213.200000
3120.717834	192.800000
3121.899533	210.800000
3123.079555	196.200000
3124.257900	203.200000
3125.439065	182.000000
3126.617055	195.000000
3127.794868	181.800000
3128.972504	170.200000
3130.148466	175.400000
3131.324250	189.600000
3132.501356	218.000000
3133.676787	238.600000
3134.850545	229.400000
3136.022630	219.000000
3137.196037	220.200000
3138.369267	183.600000
3139.540826	198.800000
3140.713705	197.400000
3141.883417	206.000000
3143.054450	207.000000
3144.223813	216.800000
3145.391505	211.600000
3146.562013	193.200000
3147.727863	208.200000
3148.898021	205.400000
3150.063523	212.600000
3151.228850	192.800000
3152.394004	187.400000
3153.558985	173.000000
3154.725285	221.200000
3155.886933	207.200000
3157.049900	196.000000
3158.212695	206.200000
3159.375317	199.000000
3160.536273	199.800000
3161.697058	176.000000
3162.857670	211.200000
3164.016618	197.600000
3165.175395	200.600000
3166.333999	207.800000
3167.492432	194.000000
3168.650694	198.400000
3169.807293	206.200000
3170.962231	193.400000
3172.118488	199.400000
3173.273084	207.200000
3174.427510	225.800000
3175.580276	182.800000
3176.732871	183.800000
3177.885297	192.200000
3179.037553	221.600000
3180.189638	173.800000
3181.338577	183.800000
3182.490324	203.600000
3183.640412	210.600000
3184.788844	195.600000
3185.937106	230.200000
3187.085200	191.600000
3188.233125	214.600000
3189.379394	206.000000
3190.525495	219.400000
3191.669942	202.000000
3192.814221	211.600000
3193.958332	204.800000
3195.103760	176.000000
3196.246050	205.600000
3197.388173	189.800000
3198.530128	202.000000
3199.671916	216.800000
3200.813537	209.200000
3201.952023	213.000000
3203.091826	207.800000
3204.232946	202.400000
3205.370933	186.600000
3206.507270	230.400000
3207.643441	184.200000
3208.780929	197.600000
3209.916769	210.400000
3211.053926	199.800000
3212.186470	211.200000
3213.323296	192.200000
3214.455510	186.000000
3215.589041	215.800000
3216.722408	200.000000
3217.852647	193.600000
3218.985684	178.400000
3220.115595	215.200000
3221.246822	206.600000
3222.374925	191.400000
3223.505824	205.000000
3224.635079	191.200000
3225.762691	186.800000
3226.887180	205.800000
3228.015945	184.400000
3229.141588	192.000000
3230.267069	189.000000
3231.390907	195.800000
3232.517541	192.000000
3233.639577	201.000000
3234.762929	191.400000
3235.886119	212.400000
3237.009146	186.200000
3238.130535	218.200000
3239.251761	185.600000
3240.371350	191.400000
3241.490777	207.200000
3242.608566	208.000000
3243.729147	188.800000
3244.846615	217.200000
3245.963922	166.400000
3247.081069	220.200000
3248.196579	195.200000
3249.313405	195.800000
3250.427121	195.200000
3251.543626	201.600000
3252.658497	197.400000
3253.770258	198.400000
3254.881861	203.000000
3255.994779	195.800000
3257.107537	189.800000
3258.217189	188.800000
3259.328156	179.800000
3260.438964	205.600000
3261.548140	183.400000
3262.655685	206.800000
3263.764545	210.600000
3264.873247	201.200000
3265.978846	186.800000
3267.085759	208.000000
3268.191043	178.800000
3269.297641	203.200000
3270.401139	201.800000
3271.505952	210.600000
3272.610606	206.200000
3273.712163	179.400000
3274.813563	173.200000
3275.916277	180.000000
3277.018835	192.200000
3278.118296	204.800000
3279.220541	211.600000
3280.319690	198.000000
3281.417215	210.800000
3282.514584	190.600000
3283.614735	185.800000
3284.711794	203.800000
3285.808697	196.800000
3286.905445	189.000000
3287.997634	199.200000
3289.094073	189.000000
3290.188889	166.600000
3291.283551	202.200000
3292.376591	192.600000
3293.469476	176.400000
3294.560741	181.200000
3295.653319	198.600000
3296.744277	178.000000
3297.833615	179.600000
3298.922800	197.600000
3300.013298	193.400000
3301.100711	192.600000
3302.187971	190.000000
3303.276544	151.000000
3304.364964	188.600000
3305.448838	170.200000
3306.536953	199.800000
3307.621986	173.600000
3308.705404	185.800000
3309.790134	192.000000
3310.873248	174.000000
3311.957675	180.000000
3313.039023	191.400000
3314.121683	185.400000
3315.202729	208.600000
3316.283624	186.200000
3317.362905	213.800000
3318.442036	188.800000
3319.522479	168.400000
3320.599847	201.800000
3321.678527	198.400000
3322.755595	204.000000
3323.832514	207.000000
3324.907821	199.200000
3325.982979	180.400000
3327.059448	201.400000
3328.132847	201.600000
3329.206096	186.000000
3330.280657	196.000000
3331.353609	176.000000
3332.424952	198.800000
3333.497606	164.400000
3334.567194	187.600000
3335.638092	174.000000
3336.707383	186.200000
3337.777985	173.600000
3338.846980	200.600000
3339.914369	171.800000
3340.980153	184.400000
3342.050163	176.400000
3343.117110	181.000000
3344.180995	177.000000
3345.247647	182.000000
3346.312696	169.800000
3347.376141	185.600000
3348.439440	184.600000
3349.502592	190.800000
3350.565598	203.000000
3351.628458	162.400000
3352.689716	183.400000
3353.747917	187.000000
3354.810338	153.400000
3355.869704	184.400000
3356.928924	172.600000
3357.989453	181.200000
3359.045474	165.400000
3360.104258	190.200000
3361.158535	168.600000
3362.215576	180.600000
3363.271018	183.000000
3364.327770	204.800000
3365.382923	178.800000
3366.436479	187.600000
3367.488439	191.200000
3368.543160	188.000000
3369.594832	201.400000
3370.646361	167.000000
3371.699198	148.800000
3372.748988	213.400000
3373.800087	185.200000
3374.848140	159.800000
3375.898952	174.800000
3376.946720	215.200000
3377.994344	182.000000
3379.041827	198.200000
3380.087717	191.000000
3381.134915	179.400000
3382.179071	169.600000
3383.225985	181.600000
3384.271307	150.000000
3385.313588	208.800000
3386.355728	186.200000
3387.399177	187.400000
3388.442484	170.400000
3389.484201	205.400000
3390.525778	181.000000
3391.567213	188.000000
3392.607060	181.200000
3393.645318	180.200000
3394.684884	181.800000
3395.724310	180.400000
3396.762148	173.200000
3397.798399	170.200000
3398.834511	190.800000
3399.871930	187.600000
3400.906316	176.400000
3401.942009	166.600000
3402.977563	167.600000
3404.010086	199.000000
3405.045362	214.000000
3406.077607	181.400000
3407.109714	180.000000
3408.140237	218.000000
3409.172067	192.000000
3410.203759	184.600000
3411.232423	198.600000
3412.260950	167.600000
3413.290783	188.200000
3414.320479	178.400000
3415.347149	196.400000
3416.375125	197.200000
3417.400078	151.600000
3418.427780	157.200000
3419.452459	154.400000
3420.478444	200.800000
3421.502849	180.200000
3422.527118	176.800000
3423.549808	154.000000
3424.572362	172.200000
3425.596222	217.800000
3426.617062	165.000000
3427.637766	172.000000
3428.659777	205.400000
3429.678769	183.600000
3430.697625	159.600000
3431.717788	169.200000
3432.734934	176.200000
