-116.521679	3.800000
-113.852079	13.400000
-111.185414	-12.800000
-108.519501	-6.600000
-105.856521	35.000000
-103.192110	-7.200000
-100.530630	-13.800000
-97.867721	32.200000
-95.209918	3.200000
-92.550686	-28.800000
-89.892202	13.400000
-87.236643	18.200000
-84.579654	24.600000
-81.927764	1.400000
-79.274444	7.400000
-76.624043	1.600000
-73.972214	20.800000
-71.325474	-11.200000
-68.677306	-4.000000
-66.029880	-7.200000
-63.385369	41.200000
-60.739428	8.600000
-58.098569	-6.000000
-55.456281	9.400000
-52.816902	-9.200000
-50.176093	12.800000
-47.536025	25.000000
-44.901030	8.000000
-42.264605	17.400000
-39.631083	2.400000
-36.996133	-19.400000
-34.366248	1.400000
-31.732771	-6.200000
-29.104356	21.400000
-26.476675	23.600000
-23.847565	6.400000
-21.223512	22.200000
-18.595870	14.600000
-15.973281	37.200000
-13.351424	60.600000
-10.730297	79.000000
-8.109901	156.000000
-5.492392	489.400000
-2.873455	1501.000000
-0.257403	3101.800000
2.357920	3491.800000
4.972515	1625.600000
7.584229	177.600000
10.197371	35.800000
12.805479	30.400000
15.417169	14.800000
18.023828	1.800000
20.631915	20.800000
23.239278	-30.000000
25.841616	37.200000
28.447532	15.600000
31.048426	1.200000
33.650748	3.800000
36.248053	4.200000
38.848933	-14.600000
41.444798	19.000000
44.042092	-10.000000
46.638666	-8.600000
49.230231	14.000000
51.823224	17.400000
54.413356	1.600000
57.004915	2.000000
59.593616	-2.400000
62.183743	2.800000
64.768871	0.600000
67.355427	22.600000
69.941269	5.200000
72.524257	11.000000
75.108671	-22.400000
77.685957	11.400000
80.266809	12.400000
82.844812	4.400000
85.422105	1.200000
88.000824	17.800000
90.574561	31.800000
93.149726	15.200000
95.722047	13.000000
98.293660	13.800000
100.862433	-4.600000
103.432633	33.400000
105.999994	-19.800000
108.568782	8.000000
111.134733	11.000000
113.697849	9.400000
116.264521	1.800000
118.821972	15.000000
121.385108	2.600000
123.943284	24.800000
126.505015	40.400000
129.061789	51.400000
131.619989	61.000000
134.173237	86.800000
136.725787	133.000000
139.281887	199.800000
141.833039	257.400000
144.383494	288.800000
146.933251	298.600000
149.480189	311.000000
152.026432	337.600000
154.574100	392.200000
157.121072	392.600000
159.663109	351.800000
162.204452	340.400000
164.745102	375.600000
167.287178	368.000000
169.826442	350.600000
172.362898	370.600000
174.898662	374.200000
177.435852	340.800000
179.972351	375.200000
182.506044	323.400000
185.036933	357.800000
187.567134	350.200000
190.098761	352.600000
192.627586	314.800000
195.153612	344.600000
197.678952	352.200000
200.205717	358.800000
202.729686	358.400000
205.252970	368.600000
207.775569	336.000000
210.295375	364.600000
212.814497	331.600000
215.332938	383.600000
217.852802	374.200000
220.365665	338.400000
222.882059	342.200000
225.397771	381.200000
227.908593	337.400000
230.420840	365.200000
232.930305	320.600000
235.439090	375.600000
237.947198	398.000000
240.456730	375.600000
242.961381	329.400000
245.465356	359.400000
247.970755	361.400000
250.471279	385.800000
252.975326	372.800000
255.472403	373.000000
257.973003	347.800000
260.470831	374.200000
262.967986	366.800000
265.464468	358.800000
267.956087	402.600000
270.451226	371.400000
272.943598	356.800000
275.435300	374.600000
277.924239	378.200000
280.414601	344.800000
282.902202	387.400000
285.387043	379.600000
287.875399	366.600000
290.356815	386.800000
292.841745	368.400000
295.321830	372.800000
297.805427	389.000000
300.284181	399.600000
302.764358	377.400000
305.241784	390.200000
307.718546	395.800000
310.194644	410.200000
312.667995	389.600000
315.140683	418.800000
317.612710	437.400000
320.084076	492.400000
322.552697	542.400000
325.020660	536.800000
327.490044	484.800000
329.954606	465.000000
332.422672	461.200000
334.885918	420.600000
337.348506	418.400000
339.810438	416.000000
342.271713	403.400000
344.730254	410.000000
347.190217	435.200000
349.647447	438.000000
352.104023	391.800000
354.559945	388.600000
357.013137	422.200000
359.467752	440.200000
361.917565	439.000000
364.370874	398.200000
366.819384	383.000000
369.267244	430.000000
371.716526	387.600000
374.161014	428.600000
376.606924	403.200000
379.052184	429.200000
381.494726	389.200000
383.936620	406.000000
386.377867	438.800000
388.816398	435.600000
391.256350	385.800000
393.693590	416.200000
396.128117	422.800000
398.566132	417.800000
400.999370	408.800000
403.434029	425.200000
405.863916	433.800000
408.297288	418.000000
410.725890	395.800000
413.153850	441.400000
415.583232	439.600000
418.007848	445.400000
420.433886	448.000000
422.859283	422.400000
425.284040	444.200000
427.704039	412.600000
430.125458	430.000000
432.544182	462.600000
434.964326	411.800000
437.381775	450.600000
439.800644	422.000000
442.216820	433.400000
444.628248	427.800000
447.043153	434.800000
449.455369	400.000000
451.866950	469.800000
454.277897	413.000000
456.686158	413.800000
459.093786	410.400000
461.500782	392.600000
463.907147	399.400000
466.310829	397.400000
468.713881	442.400000
471.116303	401.000000
473.518095	411.000000
475.917209	385.800000
478.317743	404.800000
480.717648	400.000000
483.112831	404.000000
485.511480	425.000000
487.905408	405.600000
490.298711	398.400000
492.691389	374.600000
495.083441	375.800000
497.476911	390.000000
499.865669	383.400000
502.251761	393.800000
504.639273	358.200000
507.026162	308.600000
509.410387	324.400000
511.796030	312.600000
514.179012	304.600000
516.559333	317.600000
518.941073	284.000000
521.320154	275.400000
523.700654	298.200000
526.078496	268.000000
528.453682	272.000000
530.828252	264.200000
533.204239	258.800000
535.577574	282.600000
537.952326	260.400000
540.322393	253.200000
542.691844	285.800000
545.062713	250.800000
547.428901	254.800000
549.796508	244.800000
552.161470	255.800000
554.525818	258.000000
556.889553	234.400000
559.254706	260.000000
561.615187	226.400000
563.977086	241.200000
566.336344	231.000000
568.692964	246.000000
571.053030	282.000000
573.406404	245.200000
575.763223	227.200000
578.117407	263.600000
580.470982	246.400000
582.823950	219.200000
585.174285	273.800000
587.526038	257.800000
589.871114	243.200000
592.221653	234.000000
594.565520	217.000000
596.914848	222.400000
599.259527	242.600000
601.601582	233.800000
603.945054	252.800000
606.285903	231.200000
608.626149	234.600000
610.963776	265.800000
613.304837	235.000000
615.641260	223.600000
617.979100	247.600000
620.314323	227.200000
622.646930	228.200000
624.980953	216.200000
627.312362	228.600000
629.643173	214.000000
631.973387	217.400000
634.303002	245.600000
636.627994	221.600000
638.958428	213.400000
641.284241	209.400000
643.607446	222.600000
645.932068	215.000000
648.254084	235.200000
650.575506	233.600000
652.894326	209.200000
655.214561	237.000000
657.534203	192.600000
659.851244	214.600000
662.167693	224.200000
664.481544	219.600000
666.796811	219.400000
669.109481	192.400000
671.423566	207.400000
673.733051	224.000000
676.043952	172.200000
678.352260	222.800000
680.659980	193.400000
682.969114	207.400000
685.273656	211.400000
687.577612	186.200000
689.880982	192.000000
692.185766	200.400000
694.485963	199.400000
696.787576	229.400000
699.088603	186.200000
701.385049	183.600000
703.682910	216.600000
705.980187	214.800000
708.276881	196.200000
710.568999	208.000000
712.864528	190.400000
715.155483	239.600000
717.447853	201.600000
719.737648	216.000000
722.026862	213.800000
724.315497	206.400000
726.601559	206.600000
728.889036	205.600000
731.173941	214.200000
733.458269	232.200000
735.740028	196.200000
738.023201	211.400000
740.305797	203.000000
742.583837	202.400000
744.863292	231.200000
747.142170	204.800000
749.420474	213.400000
751.694228	194.400000
753.969395	182.400000
756.243989	234.400000
758.516024	206.600000
760.789472	218.000000
763.060362	210.000000
765.328696	238.000000
767.598443	203.600000
769.865636	235.800000
772.132258	227.000000
774.398310	189.000000
776.661811	246.600000
778.926725	207.600000
781.191069	211.000000
783.450884	221.000000
785.712111	233.400000
787.972771	243.800000
790.230885	249.200000
792.486454	238.400000
794.745414	216.600000
796.997874	220.000000
799.255702	235.000000
801.509011	221.800000
803.759780	238.000000
806.011961	228.400000
808.261603	228.600000
810.512658	238.200000
812.759201	226.800000
815.007156	197.600000
817.252577	210.800000
819.499409	232.800000
821.745680	212.200000
823.987446	222.400000
826.232596	229.600000
828.471273	208.800000
830.713332	232.800000
832.950893	205.000000
835.189866	209.400000
837.426312	213.800000
839.664169	210.600000
841.899501	220.400000
844.132310	203.200000
846.366530	194.200000
848.598227	229.800000
850.829370	211.400000
853.059958	200.400000
855.289992	208.400000
857.519472	172.400000
859.744470	217.200000
861.972843	204.400000
864.196736	224.400000
866.422041	212.600000
868.642870	191.800000
870.867071	212.600000
873.086799	227.000000
875.307937	216.000000
877.528525	226.800000
879.746604	196.800000
881.966092	229.600000
884.181114	196.200000
886.395588	220.800000
888.609515	212.800000
890.822895	224.000000
893.035727	209.400000
895.248013	211.000000
897.457796	201.000000
899.667034	190.400000
901.875727	210.600000
904.081920	218.800000
906.289524	201.800000
908.494629	217.800000
910.699191	202.400000
912.901258	219.400000
915.104734	242.200000
917.305716	216.800000
919.506156	196.200000
921.708005	210.600000
923.903463	224.200000
926.102280	223.600000
928.296658	223.400000
930.494394	209.400000
932.687694	230.600000
934.882403	226.200000
937.074626	192.400000
939.266310	226.400000
941.457457	224.600000
943.646121	208.800000
945.834249	203.000000
948.019896	233.200000
950.208895	227.200000
952.393471	224.000000
954.577512	199.400000
956.764903	238.200000
958.943990	253.200000
961.126428	210.200000
963.308332	250.000000
965.487761	247.400000
967.664718	239.200000
969.843083	264.200000
972.022855	267.400000
974.196278	276.800000
976.373047	253.600000
978.545409	247.000000
980.719179	261.800000
982.888545	267.400000
985.061255	268.200000
987.231500	272.400000
989.401215	258.800000
991.570403	265.800000
993.735193	287.000000
995.903324	284.000000
998.067060	268.800000
1000.232204	267.600000
1002.394888	268.600000
1004.557047	282.000000
1006.716749	288.000000
1008.875926	281.000000
1011.036510	239.400000
1013.194639	292.800000
1015.352245	296.600000
1017.509327	282.800000
1019.665885	288.000000
1021.818064	309.400000
1023.971650	295.000000
1026.124714	283.800000
1028.275329	291.800000
1030.427351	301.200000
1032.574999	272.800000
1034.725979	286.800000
1036.872588	299.800000
1039.018678	291.400000
1041.164250	275.800000
1043.311227	305.000000
1045.451915	301.000000
1047.595933	307.200000
1049.737510	335.800000
1051.878571	325.400000
1054.021036	314.000000
1056.157221	318.200000
1058.296733	321.000000
1060.431890	292.600000
1062.570371	314.400000
1064.704498	308.400000
1066.838112	308.800000
1068.973130	317.000000
1071.103800	326.200000
1073.235874	329.200000
1075.365519	310.400000
1077.494652	308.000000
1079.623273	301.000000
1081.751383	299.200000
1083.877067	281.800000
1086.002241	300.800000
1088.128819	309.000000
1090.251059	289.800000
1092.374704	294.000000
1094.494014	305.200000
1096.618553	267.600000
1098.736848	289.400000
1100.856547	256.400000
1102.973827	302.200000
1105.090600	303.600000
1107.206868	315.600000
1109.320719	299.000000
1111.435975	278.400000
1113.546907	289.400000
1115.661152	266.000000
1117.771076	250.600000
1119.882404	281.800000
1121.993227	272.600000
1124.099734	290.800000
1126.209550	262.200000
1128.315053	253.800000
1130.421958	275.400000
1132.522648	286.400000
1134.628550	269.800000
1136.730143	264.600000
1138.833139	293.600000
1140.935634	262.800000
1143.031922	243.800000
1145.133417	260.800000
1147.230610	254.400000
1149.327305	263.600000
1151.423501	254.600000
1153.519199	272.200000
1155.614400	242.400000
1157.707204	251.400000
1159.801410	303.400000
1161.889425	274.000000
1163.982639	232.600000
1166.069664	272.200000
1168.159988	251.000000
1170.246024	264.400000
1172.335359	251.200000
1174.418512	270.200000
1176.503067	292.600000
1178.589024	281.200000
1180.670699	258.800000
1182.753775	261.800000
1184.834466	240.400000
1186.914666	271.600000
1188.994374	260.400000
1191.073591	274.200000
1193.150426	244.400000
1195.224879	261.600000
1197.302625	238.600000
1199.376101	260.000000
1201.450977	237.200000
1203.521586	246.200000
1205.593596	252.400000
1207.663231	263.000000
1209.734265	254.800000
1211.804813	270.200000
1213.871099	260.200000
1215.938786	252.800000
1218.004101	237.800000
1220.070816	239.800000
1222.133275	256.200000
1224.199019	271.000000
1226.260509	260.200000
1228.323400	295.400000
1230.383923	253.600000
1232.443962	259.400000
1234.503518	264.200000
1236.560710	262.000000
1238.617420	251.600000
1240.671766	269.400000
1242.729394	246.800000
1244.784659	286.600000
1246.835683	280.400000
1248.888107	275.800000
1250.940051	249.200000
1252.989637	277.200000
1255.038744	285.800000
1257.087372	299.600000
1259.135522	281.200000
1261.183194	297.400000
1263.226635	277.200000
1265.273352	269.800000
1267.317715	267.800000
1269.361602	289.000000
1271.403137	279.200000
1273.442323	288.200000
1275.484782	279.800000
1277.523018	317.800000
1279.562653	295.200000
1281.601813	301.800000
1283.636754	306.600000
1285.673094	310.200000
1287.707090	316.000000
1289.742483	314.000000
1291.773664	324.600000
1293.806242	322.000000
1295.838349	348.200000
1297.868115	391.400000
1299.899278	354.800000
1301.926235	374.600000
1303.954589	395.600000
1305.978738	394.200000
1308.006153	384.000000
1310.029365	433.600000
1312.053975	430.400000
1314.076251	415.200000
1316.099924	421.000000
1318.121263	467.800000
1320.142136	458.000000
1322.162541	502.000000
1324.178753	472.200000
1326.196362	490.600000
1328.211643	493.200000
1330.230183	522.000000
1332.244534	511.400000
1334.256558	504.000000
1336.271841	542.000000
1338.282938	525.800000
1340.295432	523.800000
1342.303743	501.000000
1344.315309	482.800000
1346.320837	486.200000
1348.329620	504.600000
1350.334225	470.000000
1352.342084	413.400000
1354.349481	446.600000
1356.350847	423.800000
1358.353609	424.200000
1360.355912	375.000000
1362.357755	404.400000
1364.359138	349.600000
1366.358208	374.800000
1368.356819	355.600000
1370.354971	350.000000
1372.352666	344.000000
1374.346198	341.600000
1376.341125	335.200000
1378.335596	326.600000
1380.329610	309.200000
1382.321317	320.600000
1384.312568	314.600000
1386.301514	309.200000
1388.291856	289.800000
1390.281742	313.800000
1392.269324	296.400000
1394.256453	308.600000
1396.241280	296.000000
1398.227502	267.400000
1400.211423	276.600000
1402.194892	277.800000
1404.177909	258.400000
1406.158628	276.400000
1408.140741	248.600000
1410.120558	307.200000
1412.099923	264.000000
1414.075150	284.200000
1416.053615	264.400000
1418.029787	284.600000
1420.005509	261.600000
1421.980783	293.200000
1423.953765	264.800000
1425.926299	294.800000
1427.898385	274.000000
1429.870024	272.200000
1431.837534	240.400000
1433.810118	246.200000
1435.774896	275.600000
1437.744747	267.800000
1439.710474	271.000000
1441.677593	260.800000
1443.642429	258.000000
1445.603145	254.400000
1447.568929	254.600000
1449.528758	280.800000
1451.489981	262.000000
1453.452595	252.600000
1455.411095	274.400000
1457.369153	274.200000
1459.326769	286.400000
1461.283942	244.000000
1463.238840	251.000000
1465.195131	272.200000
1467.149147	245.400000
1469.102722	274.200000
1471.054025	263.600000
1473.006721	266.000000
1474.957144	294.000000
1476.907129	287.600000
1478.856675	281.800000
1480.803952	271.200000
1482.748961	251.600000
1484.695363	288.600000
1486.641327	282.600000
1488.586854	300.800000
1490.530115	254.200000
1492.472941	282.200000
1494.413502	265.200000
1496.355456	262.600000
1498.295147	270.800000
1500.234403	256.000000
1502.173225	293.800000
1504.109787	266.600000
1506.047740	280.000000
1507.983434	313.200000
1509.918695	280.600000
1511.851699	281.000000
1513.784272	279.800000
1515.716412	304.000000
1517.648120	297.000000
1519.577574	266.600000
1521.508419	283.000000
1523.438832	272.200000
1525.365173	296.800000
1527.292904	288.200000
1529.218386	321.800000
1531.143438	323.800000
1533.068061	295.600000
1534.992254	348.600000
1536.914201	339.600000
1538.837538	360.600000
1540.758628	373.800000
1542.677474	365.000000
1544.597710	355.600000
1546.515703	363.200000
1548.433269	392.000000
1550.348593	393.200000
1552.265307	394.800000
1554.177966	419.200000
1556.093829	449.000000
1558.007452	444.400000
1559.918837	429.200000
1561.831612	475.000000
1563.740337	483.400000
1565.650451	443.400000
1567.560142	458.200000
1569.469410	471.800000
1571.376444	484.000000
1573.281245	436.000000
1575.187435	475.000000
1577.091393	432.200000
1578.994930	432.200000
1580.898047	434.800000
1582.798934	420.000000
1584.701210	418.800000
1586.601258	400.200000
1588.502693	412.800000
1590.400095	402.200000
1592.297078	397.800000
1594.193643	377.200000
1596.091595	402.200000
1597.983713	357.400000
1599.879025	362.600000
1601.773919	340.800000
1603.666591	335.800000
1605.558846	371.400000
1607.448882	328.000000
1609.338502	342.400000
1611.227707	321.800000
1613.116497	322.600000
1615.003069	334.000000
1616.891029	298.800000
1618.774972	298.800000
1620.660302	275.000000
1622.545219	278.800000
1624.427922	272.600000
1626.312012	263.600000
1628.192090	259.000000
1630.073556	271.800000
1631.952811	260.600000
1633.833452	262.600000
1635.708289	264.800000
1637.588107	277.000000
1639.463921	240.400000
1641.339324	260.400000
1643.216113	258.600000
1645.087106	277.000000
1646.961280	259.200000
1648.831455	237.800000
1650.704811	265.000000
1652.575964	254.600000
1654.444916	239.400000
1656.315252	262.600000
1658.181596	257.400000
1660.049325	270.800000
1661.914855	239.400000
1663.781771	264.200000
1665.644698	263.000000
1667.509010	250.400000
1669.371126	235.400000
1671.232837	255.400000
1673.095934	242.600000
1674.956835	238.600000
1676.815544	230.600000
1678.673849	263.400000
1680.533538	264.600000
1682.387461	241.800000
1684.244557	227.200000
1686.101249	256.000000
1687.953966	279.200000
1689.809854	244.600000
1691.661768	227.600000
1693.513281	268.400000
1695.364393	228.400000
1697.215105	232.200000
1699.065415	225.200000
1700.913542	221.200000
1702.763053	233.600000
1704.606814	244.200000
1706.455526	223.400000
1708.298491	233.200000
1710.144623	250.000000
1711.986792	240.600000
1713.832127	232.600000
1715.671721	231.000000
1717.512699	224.800000
1719.355060	208.600000
1721.193465	264.400000
1723.033253	249.400000
1724.870865	226.200000
1726.708083	218.000000
1728.543127	239.800000
1730.379554	233.200000
1732.213809	214.800000
1734.047669	262.200000
1735.881135	237.400000
1737.710656	260.000000
1739.543335	228.400000
1741.372070	245.800000
1743.203962	256.200000
1745.031912	225.600000
1746.859471	249.400000
1748.686637	221.800000
1750.513412	212.200000
1752.339795	225.000000
1754.162242	224.200000
1755.987844	233.600000
1757.809511	233.400000
1759.632560	218.200000
1761.453447	207.000000
1763.273946	220.400000
1765.095825	223.200000
1766.912006	258.600000
1768.731338	247.200000
1770.546742	229.600000
1772.365298	237.200000
1774.179928	218.200000
1775.994171	219.000000
1777.808028	229.000000
1779.621498	240.600000
1781.432815	233.400000
1783.245512	219.400000
1785.057824	242.200000
1786.866217	230.000000
1788.675992	229.800000
1790.481852	209.400000
1792.290857	239.000000
1794.095949	219.200000
1795.902422	243.200000
1797.708511	215.200000
1799.510689	215.400000
1801.316012	248.200000
1803.117426	223.200000
1804.920220	208.600000
1806.719108	225.400000
1808.519377	274.800000
1810.319264	233.800000
1812.117009	247.000000
1813.914374	258.400000
1815.711359	212.200000
1817.507963	254.800000
1819.302428	255.200000
1821.098272	226.200000
1822.888461	235.600000
1824.683547	258.200000
1826.472981	231.800000
1828.265551	231.800000
1830.055986	226.800000
1831.844287	256.400000
1833.635723	234.600000
1835.421513	236.400000
1837.208683	253.000000
1838.993721	226.800000
1840.781893	239.800000
1842.566179	250.200000
1844.348335	230.400000
1846.131871	211.400000
1847.913278	199.600000
1849.696064	227.800000
1851.474969	222.000000
1853.255253	266.600000
1855.033412	235.200000
1856.812949	221.200000
1858.590360	227.600000
1860.365649	223.800000
1862.142315	213.200000
1863.916859	231.200000
1865.692781	226.800000
1867.463082	231.200000
1869.236511	214.600000
1871.007820	216.800000
1872.778758	243.600000
1874.551074	226.200000
1876.317776	260.200000
1878.087603	231.600000
1879.853567	231.800000
1881.622655	273.000000
1883.387881	254.000000
1885.152739	233.000000
1886.918974	239.400000
1888.681350	216.000000
1890.443358	208.600000
1892.205000	218.400000
1893.966275	227.400000
1895.727182	235.400000
1897.487723	240.600000
1899.246154	212.000000
1901.004219	212.400000
1902.760177	257.800000
1904.517511	222.200000
1906.274480	205.400000
1908.029342	227.800000
1909.782100	240.200000
1911.534493	221.600000
1913.288263	241.000000
1915.039929	215.400000
1916.789493	235.000000
1918.540432	223.200000
1920.291009	215.400000
1922.037746	218.400000
1923.785860	211.000000
1925.531874	204.400000
1927.279263	217.800000
1929.024555	214.800000
1930.767749	226.400000
1932.512318	225.000000
1934.254791	200.200000
1935.996905	221.400000
1937.738658	249.600000
1939.480051	243.000000
1941.219351	238.200000
1942.958292	225.000000
1944.696874	201.200000
1946.433365	212.800000
1948.169498	230.100000
1949.907005	247.400000
1951.640690	245.800000
1953.375750	237.600000
1955.108721	227.600000
1956.841336	238.600000
1958.573595	255.400000
1960.305497	196.200000
1962.035313	235.600000
1963.763044	246.200000
1965.492150	230.800000
1967.220900	217.800000
1968.947568	251.400000
1970.673881	225.600000
1972.401567	212.800000
1974.123717	246.200000
1975.848968	220.400000
1977.570412	231.200000
1979.294957	247.800000
1981.017421	237.800000
1982.736083	210.000000
1984.457843	204.200000
1986.175801	234.600000
1987.895132	233.800000
1989.610664	233.600000
1991.331016	220.200000
1993.047570	226.800000
1994.760327	251.200000
1996.476180	228.000000
1998.189961	225.000000
1999.903392	254.000000
2001.614752	215.200000
2003.327484	244.000000
2005.036426	243.000000
2006.748460	250.600000
2008.454985	233.600000
2010.164603	230.000000
2011.872154	240.800000
2013.579356	259.000000
2015.284493	228.000000
2016.989284	232.600000
2018.695446	223.000000
2020.397826	241.000000
2022.101577	234.400000
2023.803266	243.800000
2025.504609	233.800000
2027.205608	244.800000
2028.904545	217.600000
2030.604854	243.200000
2032.301387	272.400000
2033.999292	246.000000
2035.695139	236.200000
2037.394071	225.800000
2039.087517	256.400000
2040.782334	238.800000
2042.476809	239.800000
2044.167515	262.400000
2045.861305	241.600000
2047.551328	271.600000
2049.242722	261.000000
2050.932063	249.600000
2052.622774	242.400000
2054.309722	219.200000
2055.996331	203.600000
2057.684309	236.400000
2059.368528	205.000000
2061.054118	266.600000
2062.739368	245.200000
2064.422569	245.400000
2066.107141	235.000000
2067.786249	245.200000
2069.470144	257.600000
2071.148577	237.000000
2072.830088	227.000000
2074.507847	256.000000
2076.185270	251.200000
2077.864062	230.000000
2079.540812	212.800000
2081.215519	238.600000
2082.891597	196.000000
2084.565633	249.600000
2086.239335	238.600000
2087.912701	226.600000
2089.584028	230.000000
2091.255021	224.000000
2092.925680	226.800000
2094.596005	281.000000
2096.265996	232.600000
2097.933951	249.600000
2099.601573	213.600000
2101.267160	263.400000
2102.934116	230.800000
2104.599039	271.400000
2106.263630	229.800000
2107.926189	247.800000
2109.590116	248.200000
2111.252012	230.600000
2112.913578	225.800000
2114.574812	246.000000
2116.234018	244.400000
2117.892893	269.200000
2119.551439	234.400000
2121.209654	250.600000
2122.864147	238.000000
2124.521704	248.400000
2126.178931	230.000000
2127.832438	256.400000
2129.487312	247.800000
2131.138467	215.200000
2132.792685	242.200000
2134.443185	258.200000
2136.095053	234.600000
2137.741512	220.600000
2139.392726	234.000000
2141.040226	214.400000
2142.689093	248.000000
2144.335941	223.600000
2145.982464	240.000000
2147.628661	241.000000
2149.271150	240.000000
2150.916697	248.000000
2152.558537	253.400000
2154.203434	260.400000
2155.844625	244.800000
2157.485494	257.200000
2159.126038	257.600000
2160.764570	224.600000
2162.404468	225.000000
2164.040666	251.400000
2165.678230	246.200000
2167.315472	255.800000
2168.950704	231.400000
2170.585614	203.800000
2172.220203	241.800000
2173.854471	251.400000
2175.485045	237.000000
2177.118671	243.600000
2178.748605	217.800000
2180.379904	235.000000
2182.009198	248.000000
2183.638173	248.400000
2185.266828	230.800000
2186.895164	250.600000
2188.521498	251.200000
2190.147513	248.200000
2191.771526	232.800000
2193.396905	278.000000
2195.020283	222.800000
2196.645026	271.200000
2198.266088	207.000000
2199.886833	265.200000
2201.508942	224.400000
2203.129054	230.200000
2204.747170	235.200000
2206.364970	251.000000
2207.982455	265.200000
2209.599624	235.400000
2211.216478	245.600000
2212.833016	274.000000
2214.447562	232.000000
2216.060115	238.200000
2217.674032	241.600000
2219.285958	246.000000
2220.899247	239.400000
2222.510546	248.400000
2224.119855	237.600000
2225.730528	255.200000
2227.339212	265.400000
2228.947583	256.600000
2230.553968	240.600000
2232.161715	245.400000
2233.767477	232.600000
2235.372927	251.800000
2236.976392	218.000000
2238.581220	236.600000
2240.184064	246.400000
2241.784925	255.600000
2243.387149	255.400000
2244.987391	234.400000
2246.588995	245.800000
2248.186946	248.200000
2249.786260	258.600000
2251.383594	278.000000
2252.980620	261.200000
2254.579008	255.400000
2256.173747	245.200000
2257.766509	251.400000
2259.360634	239.200000
2260.956120	247.200000
2262.547961	249.000000
2264.139496	259.200000
2265.732393	271.800000
2267.319980	225.800000
2268.912263	264.400000
2270.499240	262.200000
2272.089244	234.600000
2273.673944	245.800000
2275.263338	251.800000
2276.847430	236.600000
2278.432882	251.600000
2280.016366	257.000000
2281.602875	257.400000
2283.185751	264.600000
2284.768324	231.800000
2286.350593	260.000000
2287.929232	267.400000
2289.510896	265.800000
2291.088931	222.000000
2292.669989	236.000000
2294.247420	250.900000
2295.822888	265.800000
2297.401378	227.200000
2298.976244	254.600000
2300.550809	221.800000
2302.125073	253.400000
2303.699038	228.400000
2305.272701	255.400000
2306.846065	225.600000
2308.415810	248.000000
2309.985256	201.200000
2311.557720	223.400000
2313.124910	234.600000
2314.695118	254.200000
2316.261711	257.200000
2317.829664	251.600000
2319.395661	250.400000
2320.961361	242.400000
2322.526763	240.400000
2324.090212	255.000000
2325.655020	240.400000
2327.216220	247.600000
2328.780434	266.000000
2330.339386	268.400000
2331.901352	250.800000
2333.461368	251.400000
2335.021089	239.200000
2336.578860	244.400000
2338.136336	265.400000
2339.693518	255.000000
2341.248752	265.400000
2342.803693	254.600000
2344.358339	242.200000
2345.912692	270.000000
2347.466751	263.800000
2349.020517	251.200000
2350.572338	241.400000
2352.122217	282.800000
2353.675103	261.400000
2355.222746	253.400000
2356.773398	252.800000
2358.320458	255.600000
2359.868876	223.200000
2361.417003	248.600000
2362.961541	250.200000
2364.507437	251.400000
2366.051395	253.600000
2367.596709	283.200000
2369.138440	249.600000
2370.681527	270.200000
2372.222678	254.800000
2373.763540	277.200000
2375.304113	247.000000
2376.844397	241.400000
2378.384392	219.600000
2379.920809	261.200000
2381.460227	288.400000
2382.996067	275.600000
2384.533265	254.200000
2386.066887	262.000000
2387.603509	256.200000
2389.138201	273.800000
2390.670963	242.000000
2392.203438	240.000000
2393.733985	277.400000
2395.267530	272.800000
2396.795864	249.400000
2398.325554	240.400000
2399.854959	245.000000
2401.384079	238.800000
2402.912913	248.600000
2404.436543	274.000000
2405.964808	248.000000
2407.487871	247.000000
2409.015567	235.200000
2410.536424	292.000000
2412.061913	284.800000
2413.583843	265.600000
2415.107127	257.800000
2416.628491	259.800000
2418.147935	268.600000
2419.668734	296.600000
2421.187614	253.000000
2422.706213	281.400000
2424.222894	246.400000
2425.740929	282.400000
2427.258683	255.600000
2428.772885	293.400000
2430.286808	290.200000
2431.800450	264.800000
2433.315447	246.600000
2434.826895	263.200000
2436.339697	260.600000
2437.850587	244.000000
2439.361198	238.000000
2440.869897	261.400000
2442.381582	252.800000
2443.889724	269.400000
2445.397588	264.600000
2446.905174	261.800000
2448.409219	250.200000
2449.916249	235.200000
2451.421371	264.200000
2452.926216	260.600000
2454.429154	220.000000
2455.931816	247.800000
2457.434201	257.400000
2458.934681	248.800000
2460.436514	234.600000
2461.936442	236.000000
2463.436095	250.600000
2464.935473	248.200000
2466.432948	247.200000
2467.928521	252.800000
2469.427074	209.000000
2470.922099	252.800000
2472.418476	241.600000
2473.911327	233.000000
2475.405531	266.800000
2476.899461	254.000000
2478.389867	251.600000
2479.883251	273.600000
2481.374737	241.200000
2482.864326	252.400000
2484.353643	255.600000
2485.841064	248.600000
2487.331461	272.800000
2488.818340	257.800000
2490.306570	237.600000
2491.791283	241.400000
2493.275727	252.400000
2494.761521	252.400000
2496.245424	254.600000
2497.730677	239.800000
2499.210797	252.000000
2500.693890	270.000000
2502.175092	282.000000
2503.656025	260.600000
2505.135069	255.600000
2506.613844	272.600000
2508.092351	226.400000
2509.570590	267.400000
2511.048560	285.800000
2512.523025	250.600000
2514.000460	260.800000
2515.474391	273.400000
2516.949672	278.400000
2518.424686	230.000000
2519.896199	257.600000
2521.369063	267.600000
2522.840044	237.000000
2524.312375	260.400000
2525.779592	285.400000
2527.249776	237.400000
2528.718079	261.600000
2530.186117	263.600000
2531.653890	261.200000
2533.121398	239.600000
2534.588641	252.200000
2536.052392	274.800000
2537.517493	261.200000
2538.980717	295.600000
2540.445290	255.800000
2541.906375	262.400000
2543.368809	252.000000
2544.830980	248.800000
2546.289665	261.400000
2547.752921	288.600000
2549.211082	265.400000
2550.670591	267.400000
2552.125006	248.600000
2553.583992	262.600000
2555.041106	253.400000
2556.496348	255.400000
2557.951330	283.000000
2559.404443	254.600000
2560.858903	269.200000
2562.311495	248.400000
2563.763827	285.400000
2565.214292	262.200000
2566.667712	253.000000
2568.116050	279.400000
2569.567343	267.200000
2571.016771	274.000000
2572.462726	255.800000
2573.911636	275.400000
2575.357076	293.600000
2576.803863	295.600000
2578.248787	266.600000
2579.693454	262.400000
2581.139468	263.000000
2582.582016	271.800000
2584.025911	276.400000
2585.466340	247.400000
2586.908118	257.600000
2588.348036	254.600000
2589.789301	298.000000
2591.227104	268.200000
2592.667857	268.200000
2594.103548	267.600000
2595.542188	260.800000
2596.978970	292.000000
2598.413897	252.200000
2599.851771	257.000000
2601.284588	267.400000
2602.718752	292.000000
2604.151062	275.200000
2605.584718	298.400000
2607.016521	257.600000
2608.448070	264.800000
2609.879367	298.000000
2611.308811	290.600000
2612.738003	265.000000
2614.165345	267.400000
2615.594032	276.000000
2617.022468	262.600000
2618.447456	297.800000
2619.873791	287.600000
2621.298277	288.200000
2622.724109	292.400000
2624.146497	292.000000
2625.570231	276.600000
2626.992118	299.400000
2628.413756	293.600000
2629.833548	251.400000
2631.254686	269.600000
2632.675574	286.600000
2634.093023	276.800000
2635.513413	267.400000
2636.930365	285.200000
2638.347068	279.600000
2639.763523	267.800000
2641.179730	289.200000
2642.595689	288.800000
2644.009807	289.400000
2645.423677	300.400000
2646.835709	286.200000
2648.249084	274.600000
2649.659030	299.600000
2651.071912	319.800000
2652.481365	298.400000
2653.890572	320.000000
2655.297943	295.200000
2656.708248	333.000000
2658.116718	283.000000
2659.523352	325.800000
2660.929741	311.200000
2662.334296	318.000000
2663.740195	299.400000
2665.144261	318.800000
2666.548082	318.600000
2667.951659	329.200000
2669.353405	306.800000
2670.756494	315.800000
2672.156165	307.600000
2673.557180	325.400000
2674.954779	331.200000
2676.355307	287.000000
2677.752421	292.200000
2679.150878	295.000000
2680.547508	305.600000
2681.943895	321.800000
2683.340040	303.800000
2684.734359	302.600000
2686.130021	304.200000
2687.522274	304.800000
2688.915869	300.200000
2690.307640	311.600000
2691.700754	311.000000
2693.092044	276.000000
2694.481511	268.000000
2695.870738	301.000000
2697.259726	275.400000
2698.650055	305.600000
2700.035401	290.000000
2701.423670	282.600000
2702.810119	297.600000
2704.196329	313.600000
2705.582300	279.000000
2706.964873	276.400000
2708.348788	304.000000
2709.732465	326.400000
2711.115903	300.600000
2712.495946	299.800000
2713.877331	259.200000
2715.256901	298.000000
2716.637811	310.000000
2718.016907	292.400000
2719.394189	276.400000
2720.772812	271.200000
2722.149621	271.800000
2723.526195	294.000000
2724.902533	262.400000
2726.277060	285.400000
2727.652927	248.600000
2729.025407	277.400000
2730.400803	281.400000
2731.771239	286.200000
2733.143016	297.600000
2734.514558	258.200000
2735.884292	300.400000
2737.255367	273.800000
2738.624633	236.400000
2739.993666	276.400000
2741.360893	270.600000
2742.727886	269.600000
2744.094647	238.400000
2745.461176	250.000000
2746.825899	249.000000
2748.190390	286.600000
2749.554650	252.400000
2750.918677	270.200000
2752.282473	252.600000
2753.642895	239.800000
2755.006227	272.400000
2756.364617	270.200000
2757.725917	255.000000
2759.083847	250.800000
2760.444685	268.400000
2761.803724	276.600000
2763.159394	243.400000
2764.517972	289.000000
2765.873183	246.600000
2767.228165	254.000000
2768.581350	263.000000
2769.937442	247.800000
2771.290170	245.600000
2772.642670	257.400000
2773.994941	258.000000
2775.348550	269.200000
2776.698799	255.000000
2778.047253	287.600000
2779.398612	252.000000
2780.746613	269.000000
2782.095951	256.000000
2783.443497	274.400000
2784.790817	283.400000
2786.137910	246.200000
2787.483211	248.400000
2788.828287	271.000000
2790.173137	255.400000
2791.517761	280.200000
2792.859033	239.400000
2794.201643	259.200000
2795.544027	252.000000
2796.886186	298.000000
2798.224996	236.800000
2799.566706	275.400000
2800.905067	280.400000
2802.244766	277.000000
2803.582680	248.200000
2804.918809	250.600000
2806.254714	266.400000
2807.591957	256.200000
2808.927416	253.200000
2810.262652	274.600000
2811.596105	254.000000
2812.930895	271.000000
2814.262345	240.800000
2815.596690	244.800000
2816.926137	273.600000
2818.256920	249.800000
2819.587483	249.600000
2820.916266	288.400000
2822.246385	261.200000
2823.574726	260.000000
2824.902846	261.000000
2826.229188	266.000000
2827.556867	285.200000
2828.881212	262.800000
2830.206894	241.600000
2831.530800	260.800000
2832.854486	280.800000
2834.179509	271.600000
2835.501201	259.000000
2836.822675	292.200000
2838.143930	268.600000
2839.464966	279.200000
2840.784229	254.200000
2842.104828	250.000000
2843.423656	255.800000
2844.742265	258.200000
2846.059103	266.200000
2847.375724	284.800000
2848.692128	243.200000
2850.006762	267.000000
2851.322732	253.400000
2852.635381	285.800000
2853.949365	253.400000
2855.263133	261.000000
2856.576684	240.000000
2857.888469	272.000000
2859.198487	256.800000
2860.509840	261.400000
2861.817878	265.600000
2863.127250	260.200000
2864.436408	270.200000
2865.745350	288.800000
2867.052528	281.800000
2868.357944	232.800000
2869.664693	285.200000
2870.969681	270.800000
2872.274454	251.800000
2873.577467	290.200000
2874.883360	272.200000
2876.184399	260.000000
2877.486772	276.200000
2878.787385	241.800000
2880.089332	233.800000
2881.391065	280.400000
2882.689495	252.800000
2883.989258	238.600000
2885.287264	253.000000
2886.585058	285.600000
2887.881096	290.200000
2889.178467	262.400000
2890.474082	243.600000
2891.769486	242.000000
2893.064679	278.800000
2894.356575	249.000000
2895.651347	245.200000
2896.942822	288.800000
2898.235630	218.000000
2899.528228	268.400000
2900.817532	262.200000
2902.108168	272.800000
2903.397053	255.400000
2904.687270	263.200000
2905.974196	256.000000
2907.262454	264.600000
2908.548963	272.600000
2909.835263	261.600000
2911.121356	250.600000
2912.405700	251.800000
2913.692915	247.400000
2914.975304	250.200000
2916.259025	272.400000
2917.541000	250.800000
2918.822767	251.600000
2920.102789	269.600000
2921.385682	268.000000
2922.666829	245.600000
2923.944694	267.200000
2925.225428	257.000000
2926.502881	249.400000
2927.780128	270.200000
2929.055633	239.800000
2930.334006	279.800000
2931.607565	254.200000
2932.883991	253.200000
2934.158676	255.200000
2935.431620	249.800000
2936.705896	242.600000
2937.978432	241.800000
2939.250763	255.600000
2940.519822	262.600000
2941.791746	250.600000
2943.061932	274.600000
2944.331914	262.200000
2945.601693	254.000000
2946.869736	231.400000
2948.136042	266.600000
2949.402147	249.600000
2950.669581	243.800000
2951.935280	256.800000
2953.200778	237.200000
2954.466073	243.400000
2955.728103	252.400000
2956.991463	232.000000
2958.254622	221.000000
2959.516049	228.000000
2960.778805	242.400000
2962.039829	239.400000
2963.299123	227.800000
2964.558217	241.800000
2965.817110	224.800000
2967.075803	258.600000
2968.334296	246.200000
2969.591060	228.000000
2970.847624	255.600000
2972.102460	230.800000
2973.358626	248.400000
2974.611537	247.200000
2975.865777	247.000000
2977.119817	254.400000
2978.372132	255.400000
2979.624249	259.400000
2980.874641	231.400000
2982.127888	242.000000
2983.376358	256.600000
2984.627683	237.600000
2985.875758	232.600000
2987.123636	230.800000
2988.371318	220.200000
2989.618802	244.800000
2990.864565	232.800000
2992.110132	269.000000
2993.357026	252.800000
2994.600676	226.000000
2995.845654	227.800000
2997.087388	224.000000
2998.331974	238.000000
2999.574841	243.800000
3000.814467	230.600000
3002.056943	232.000000
3003.296179	261.200000
3004.536743	244.800000
3005.775590	236.800000
3007.014243	264.400000
3008.251180	251.600000
3009.489445	253.400000
3010.725994	239.800000
3011.962350	236.200000
3013.198512	265.200000
3014.432960	218.600000
3015.667216	219.600000
3016.901278	254.600000
3018.133627	239.800000
3019.364266	234.400000
3020.597750	215.000000
3021.829522	239.200000
3023.059584	215.400000
3024.289453	238.400000
3025.517613	238.200000
3026.747100	267.200000
3027.974877	248.000000
3029.202463	225.600000
3030.431375	248.800000
3031.655546	225.000000
3032.882559	245.000000
3034.106348	254.000000
3035.331464	227.000000
3036.554873	236.600000
3037.778092	250.800000
3038.999606	247.800000
3040.223961	246.800000
3041.443581	228.800000
3042.664527	234.000000
3043.885284	215.400000
3045.104337	223.000000
3046.324715	218.800000
3047.541877	231.800000
3048.760365	233.800000
3049.977150	238.000000
3051.193748	250.600000
3052.410157	236.400000
3053.623353	251.400000
3054.839388	241.000000
3056.052210	233.800000
3057.267869	244.200000
3058.478805	222.600000
3059.691066	233.600000
3060.903140	252.400000
3062.115028	251.000000
3063.325219	258.000000
3064.535223	251.800000
3065.745041	210.000000
3066.953163	232.800000
3068.161100	238.800000
3069.367341	242.400000
3070.574907	242.200000
3071.780778	240.300000
3072.986465	238.400000
3074.191966	211.400000
3075.395774	205.200000
3076.600906	226.600000
3077.804345	205.200000
3079.006093	209.600000
3080.207656	215.000000
3081.409036	217.800000
3082.610232	198.600000
3083.809738	224.600000
3085.009061	241.600000
3086.209707	242.400000
3087.408663	215.000000
3088.604425	223.800000
3089.803016	231.600000
3090.998413	221.600000
3092.195133	260.200000
3093.388661	235.400000
3094.585017	212.600000
3095.779686	232.600000
3096.971165	238.600000
3098.166976	250.600000
3099.358092	230.000000
3100.550532	221.000000
3101.739784	229.600000
3102.931861	214.400000
3104.122255	235.400000
3105.309463	257.400000
3106.497993	233.600000
3107.687846	240.000000
3108.874515	240.600000
3110.061003	239.400000
3111.247313	244.600000
3112.434944	259.200000
3113.619393	226.400000
3114.802163	252.400000
3115.987755	226.800000
3117.171668	205.200000
3118.353902	220.000000
3119.535957	244.400000
3120.717834	225.000000
3121.899533	255.800000
3123.079555	233.200000
3124.257900	227.000000
3125.439065	235.000000
3126.617055	237.000000
3127.794868	219.000000
3128.972504	217.800000
3130.148466	216.800000
3131.324250	214.400000
3132.501356	205.200000
3133.676787	226.800000
3134.850545	231.600000
3136.022630	250.400000
3137.196037	224.200000
3138.369267	222.800000
3139.540826	232.200000
3140.713705	222.800000
3141.883417	240.800000
3143.054450	238.200000
3144.223813	230.400000
3145.391505	250.200000
3146.562013	231.800000
3147.727863	236.400000
3148.898021	216.400000
3150.063523	248.200000
3151.228850	240.800000
3152.394004	243.200000
3153.558985	239.600000
3154.725285	229.800000
3155.886933	219.400000
3157.049900	246.400000
3158.212695	245.000000
3159.375317	216.200000
3160.536273	224.800000
3161.697058	212.200000
3162.857670	217.400000
3164.016618	220.600000
3165.175395	187.000000
3166.333999	209.200000
3167.492432	225.200000
3168.650694	226.200000
3169.807293	232.800000
3170.962231	223.600000
3172.118488	216.400000
3173.273084	248.200000
3174.427510	209.000000
3175.580276	228.200000
3176.732871	259.200000
3177.885297	208.200000
3179.037553	255.800000
3180.189638	239.200000
3181.338577	231.400000
3182.490324	237.400000
3183.640412	227.200000
3184.788844	230.200000
3185.937106	213.200000
3187.085200	233.400000
3188.233125	233.600000
3189.379394	252.400000
3190.525495	221.600000
3191.669942	260.000000
3192.814221	241.000000
3193.958332	235.000000
3195.103760	212.400000
3196.246050	249.400000
3197.388173	235.000000
3198.530128	252.800000
3199.671916	249.400000
3200.813537	238.800000
3201.952023	234.600000
3203.091826	226.600000
3204.232946	236.000000
3205.370933	223.400000
3206.507270	206.800000
3207.643441	217.800000
3208.780929	236.000000
3209.916769	243.800000
3211.053926	236.600000
3212.186470	228.800000
3213.323296	248.600000
3214.455510	229.400000
3215.589041	236.600000
3216.722408	238.600000
3217.852647	215.400000
3218.985684	223.200000
3220.115595	211.200000
3221.246822	209.400000
3222.374925	201.600000
3223.505824	249.400000
3224.635079	232.800000
3225.762691	224.400000
3226.887180	199.000000
3228.015945	234.600000
3229.141588	237.600000
3230.267069	217.400000
3231.390907	234.600000
3232.517541	199.200000
3233.639577	217.800000
3234.762929	251.200000
3235.886119	243.600000
3237.009146	225.800000
3238.130535	215.200000
3239.251761	235.800000
3240.371350	225.800000
3241.490777	228.200000
3242.608566	204.400000
3243.729147	225.200000
3244.846615	238.200000
3245.963922	240.600000
3247.081069	224.800000
3248.196579	224.000000
3249.313405	218.600000
3250.427121	259.400000
3251.543626	240.000000
3252.658497	222.000000
3253.770258	237.200000
3254.881861	231.000000
3255.994779	243.600000
3257.107537	239.800000
3258.217189	224.400000
3259.328156	273.200000
3260.438964	201.200000
3261.548140	229.000000
3262.655685	216.000000
3263.764545	218.000000
3264.873247	198.800000
3265.978846	234.400000
3267.085759	227.800000
3268.191043	218.000000
3269.297641	215.600000
3270.401139	220.400000
3271.505952	217.200000
3272.610606	227.600000
3273.712163	219.200000
3274.813563	250.000000
3275.916277	215.200000
3277.018835	233.200000
3278.118296	207.800000
3279.220541	210.400000
3280.319690	224.000000
3281.417215	241.200000
3282.514584	217.800000
3283.614735	213.000000
3284.711794	224.200000
3285.808697	201.600000
3286.905445	186.800000
3287.997634	225.000000
3289.094073	242.600000
3290.188889	190.200000
3291.283551	199.400000
3292.376591	229.400000
3293.469476	223.200000
3294.560741	219.600000
3295.653319	191.200000
3296.744277	209.800000
3297.833615	204.000000
3298.922800	198.600000
3300.013298	230.000000
3301.100711	224.600000
3302.187971	196.200000
3303.276544	210.600000
3304.364964	220.000000
3305.448838	205.600000
3306.536953	218.200000
3307.621986	224.800000
3308.705404	232.200000
3309.790134	205.200000
3310.873248	213.000000
3311.957675	222.600000
3313.039023	179.000000
3314.121683	231.600000
3315.202729	224.000000
3316.283624	218.600000
3317.362905	204.600000
3318.442036	229.200000
3319.522479	225.000000
3320.599847	226.800000
3321.678527	226.000000
3322.755595	233.200000
3323.832514	221.000000
3324.907821	234.400000
3325.982979	230.400000
3327.059448	209.600000
3328.132847	203.800000
3329.206096	241.200000
3330.280657	206.800000
3331.353609	214.200000
3332.424952	197.800000
3333.497606	215.200000
3334.567194	211.400000
3335.638092	241.000000
3336.707383	231.800000
3337.777985	226.000000
3338.846980	193.800000
3339.914369	224.200000
3340.980153	205.000000
3342.050163	211.000000
3343.117110	237.600000
3344.180995	237.600000
3345.247647	218.800000
3346.312696	218.400000
3347.376141	172.200000
3348.439440	224.600000
3349.502592	188.000000
3350.565598	209.600000
3351.628458	189.400000
3352.689716	211.800000
3353.747917	204.400000
3354.810338	217.000000
3355.869704	215.400000
3356.928924	184.200000
3357.989453	216.800000
3359.045474	186.600000
3360.104258	229.000000
3361.158535	247.200000
3362.215576	215.200000
3363.271018	225.800000
3364.327770	234.600000
3365.382923	231.400000
3366.436479	215.000000
3367.488439	209.200000
3368.543160	195.800000
3369.594832	208.600000
3370.646361	201.800000
3371.699198	210.000000
3372.748988	215.200000
3373.800087	199.200000
3374.848140	208.800000
3375.898952	199.600000
3376.946720	233.600000
3377.994344	190.600000
3379.041827	226.000000
3380.087717	206.000000
3381.134915	203.000000
3382.179071	227.400000
3383.225985	226.800000
3384.271307	190.600000
3385.313588	193.400000
3386.355728	220.600000
3387.399177	207.000000
3388.442484	242.000000
3389.484201	193.600000
3390.525778	243.600000
3391.567213	206.400000
3392.607060	190.200000
3393.645318	218.600000
3394.684884	213.600000
3395.724310	211.400000
3396.762148	242.800000
3397.798399	219.200000
3398.834511	220.200000
3399.871930	221.600000
3400.906316	226.400000
3401.942009	214.800000
3402.977563	215.000000
3404.010086	198.800000
3405.045362	220.400000
3406.077607	179.200000
3407.109714	237.000000
3408.140237	206.400000
3409.172067	194.400000
3410.203759	212.400000
3411.232423	198.400000
3412.260950	209.800000
3413.290783	208.000000
3414.320479	208.800000
3415.347149	229.600000
3416.375125	223.000000
3417.400078	209.000000
3418.427780	227.600000
3419.452459	222.400000
3420.478444	210.400000
3421.502849	209.800000
3422.527118	207.600000
3423.549808	212.600000
3424.572362	227.400000
3425.596222	192.400000
3426.617062	222.000000
3427.637766	230.600000
3428.659777	215.000000
3429.678769	194.000000
3430.697625	194.400000
3431.717788	208.200000
3432.734934	211.800000
