-116.521679	2.600000
-113.852079	26.400000
-111.185414	-14.600000
-108.519501	12.200000
-105.856521	-11.000000
-103.192110	-4.000000
-100.530630	-5.800000
-97.867721	21.400000
-95.209918	14.200000
-92.550686	5.000000
-89.892202	-13.000000
-87.236643	18.800000
-84.579654	-9.600000
-81.927764	8.400000
-79.274444	-16.200000
-76.624043	25.600000
-73.972214	-2.600000
-71.325474	-29.400000
-68.677306	9.600000
-66.029880	6.600000
-63.385369	15.800000
-60.739428	-6.400000
-58.098569	-17.600000
-55.456281	4.400000
-52.816902	-19.800000
-50.176093	4.800000
-47.536025	-9.200000
-44.901030	9.800000
-42.264605	-7.000000
-39.631083	6.400000
-36.996133	-2.400000
-34.366248	-17.200000
-31.732771	16.200000
-29.104356	7.800000
-26.476675	-6.400000
-23.847565	31.400000
-21.223512	22.000000
-18.595870	11.200000
-15.973281	-6.800000
-13.351424	53.200000
-10.730297	63.800000
-8.109901	154.800000
-5.492392	440.200000
-2.873455	1445.200000
-0.257403	3593.200000
2.357920	3645.000000
4.972515	1690.000000
7.584229	175.600000
10.197371	15.800000
12.805479	5.600000
15.417169	14.400000
18.023828	7.200000
20.631915	1.200000
23.239278	2.200000
25.841616	20.000000
28.447532	28.200000
31.048426	-26.600000
33.650748	16.400000
36.248053	3.600000
38.848933	-32.800000
41.444798	-22.000000
44.042092	10.400000
46.638666	-23.200000
49.230231	2.400000
51.823224	-2.400000
54.413356	3.000000
57.004915	-0.200000
59.593616	18.800000
62.183743	-9.400000
64.768871	7.600000
67.355427	-14.200000
69.941269	10.400000
72.524257	-26.200000
75.108671	16.200000
77.685957	-5.800000
80.266809	9.000000
82.844812	-14.200000
85.422105	16.600000
88.000824	11.000000
90.574561	6.400000
93.149726	-26.400000
95.722047	-31.000000
98.293660	2.200000
100.862433	-7.600000
103.432633	-13.800000
105.999994	2.800000
108.568782	26.600000
111.134733	15.400000
113.697849	-0.400000
116.264521	7.200000
118.821972	-2.600000
121.385108	13.400000
123.943284	18.800000
126.505015	9.400000
129.061789	11.200000
131.619989	45.200000
134.173237	96.400000
136.725787	90.400000
139.281887	143.400000
141.833039	224.800000
144.383494	237.400000
146.933251	270.600000
149.480189	268.400000
152.026432	282.400000
154.574100	304.800000
157.121072	316.400000
159.663109	288.200000
162.204452	297.400000
164.745102	306.800000
167.287178	282.000000
169.826442	297.000000
172.362898	300.600000
174.898662	301.000000
177.435852	290.600000
179.972351	281.400000
182.506044	283.600000
185.036933	297.200000
187.567134	278.400000
190.098761	288.800000
192.627586	285.200000
195.153612	296.400000
197.678952	282.400000
200.205717	284.800000
202.729686	303.600000
205.252970	285.400000
207.775569	313.400000
210.295375	298.800000
212.814497	314.400000
215.332938	257.200000
217.852802	292.200000
220.365665	299.800000
222.882059	298.200000
225.397771	278.200000
227.908593	265.400000
230.420840	308.400000
232.930305	302.000000
235.439090	290.600000
237.947198	305.800000
240.456730	293.200000
242.961381	298.200000
245.465356	303.000000
247.970755	310.400000
250.471279	308.200000
252.975326	316.800000
255.472403	325.000000
257.973003	297.200000
260.470831	308.400000
262.967986	328.200000
265.464468	293.000000
267.956087	325.400000
270.451226	320.800000
272.943598	322.600000
275.435300	319.200000
277.924239	287.000000
280.414601	341.000000
282.902202	339.200000
285.387043	294.800000
287.875399	312.600000
290.356815	315.800000
292.841745	301.400000
295.321830	299.800000
297.805427	334.800000
300.284181	317.400000
302.764358	329.600000
305.241784	327.800000
307.718546	353.800000
310.194644	343.200000
312.667995	348.200000
315.140683	379.400000
317.612710	387.600000
320.084076	453.200000
322.552697	479.800000
325.020660	432.400000
327.490044	445.200000
329.954606	396.800000
332.422672	373.400000
334.885918	365.400000
337.348506	361.600000
339.810438	338.400000
342.271713	377.600000
344.730254	361.600000
347.190217	333.400000
349.647447	373.800000
352.104023	349.000000
354.559945	354.600000
357.013137	387.800000
359.467752	338.800000
361.917565	339.200000
364.370874	373.000000
366.819384	386.400000
369.267244	352.200000
371.716526	347.200000
374.161014	359.600000
376.606924	387.600000
379.052184	349.000000
381.494726	353.200000
383.936620	344.400000
386.377867	335.000000
388.816398	358.800000
391.256350	377.600000
393.693590	374.400000
396.128117	375.800000
398.566132	339.800000
400.999370	351.000000
403.434029	345.600000
405.863916	365.400000
408.297288	354.200000
410.725890	364.000000
413.153850	361.600000
415.583232	346.200000
418.007848	351.800000
420.433886	370.800000
422.859283	378.000000
425.284040	377.400000
427.704039	382.600000
430.125458	374.600000
432.544182	367.600000
434.964326	361.200000
437.381775	392.600000
439.800644	379.200000
442.216820	378.200000
444.628248	390.800000
447.043153	358.400000
449.455369	396.200000
451.866950	350.800000
454.277897	391.800000
456.686158	303.200000
459.093786	350.000000
461.500782	376.600000
463.907147	373.200000
466.310829	347.200000
468.713881	379.600000
471.116303	344.800000
473.518095	346.000000
475.917209	348.800000
478.317743	339.600000
480.717648	387.600000
483.112831	338.600000
485.511480	358.800000
487.905408	340.600000
490.298711	335.000000
492.691389	342.400000
495.083441	343.600000
497.476911	335.000000
499.865669	295.800000
502.251761	288.000000
504.639273	303.000000
507.026162	296.200000
509.410387	271.600000
511.796030	246.000000
514.179012	243.400000
516.559333	210.400000
518.941073	243.800000
521.320154	239.800000
523.700654	216.200000
526.078496	216.400000
528.453682	210.600000
530.828252	200.000000
533.204239	220.600000
535.577574	186.600000
537.952326	225.400000
540.322393	221.800000
542.691844	203.400000
545.062713	196.000000
547.428901	185.600000
549.796508	193.200000
552.161470	186.000000
554.525818	210.800000
556.889553	173.800000
559.254706	207.200000
561.615187	185.800000
563.977086	200.200000
566.336344	167.400000
568.692964	181.200000
571.053030	167.600000
573.406404	202.800000
575.763223	158.400000
578.117407	208.200000
580.470982	172.200000
582.823950	192.600000
585.174285	186.400000
587.526038	177.200000
589.871114	185.200000
592.221653	160.000000
594.565520	203.000000
596.914848	190.600000
599.259527	152.800000
601.601582	173.000000
603.945054	190.600000
606.285903	206.800000
608.626149	162.000000
610.963776	196.400000
613.304837	200.800000
615.641260	182.800000
617.979100	144.400000
620.314323	187.800000
622.646930	168.000000
624.980953	165.000000
627.312362	163.400000
629.643173	170.600000
631.973387	139.200000
634.303002	171.400000
636.627994	164.400000
638.958428	167.000000
641.284241	169.600000
643.607446	158.400000
645.932068	164.000000
648.254084	134.600000
650.575506	149.800000
652.894326	138.000000
655.214561	155.800000
657.534203	178.400000
659.851244	157.600000
662.167693	175.800000
664.481544	153.400000
666.796811	156.800000
669.109481	139.000000
671.423566	171.400000
673.733051	159.800000
676.043952	162.600000
678.352260	153.800000
680.659980	145.400000
682.969114	134.000000
685.273656	148.400000
687.577612	135.200000
689.880982	133.000000
692.185766	127.600000
694.485963	142.000000
696.787576	118.000000
699.088603	126.200000
701.385049	132.800000
703.682910	142.800000
705.980187	134.600000
708.276881	131.800000
710.568999	148.600000
712.864528	156.800000
715.155483	124.800000
717.447853	142.000000
719.737648	133.800000
722.026862	158.000000
724.315497	136.000000
726.601559	156.400000
728.889036	144.200000
731.173941	133.600000
733.458269	116.400000
735.740028	157.800000
738.023201	114.400000
740.305797	138.600000
742.583837	142.200000
744.863292	152.800000
747.142170	147.200000
749.420474	158.600000
751.694228	161.800000
753.969395	154.800000
756.243989	151.000000
758.516024	155.400000
760.789472	122.000000
763.060362	143.400000
765.328696	160.400000
767.598443	150.200000
769.865636	142.400000
772.132258	124.000000
774.398310	157.400000
776.661811	159.800000
778.926725	176.800000
781.191069	170.400000
783.450884	138.600000
785.712111	178.000000
787.972771	151.400000
790.230885	177.400000
792.486454	170.600000
794.745414	161.200000
796.997874	154.400000
799.255702	170.000000
801.509011	176.000000
803.759780	147.600000
806.011961	149.800000
808.261603	166.800000
810.512658	142.600000
812.759201	144.400000
815.007156	135.200000
817.252577	157.800000
819.499409	169.200000
821.745680	156.400000
823.987446	163.800000
826.232596	141.800000
828.471273	130.600000
830.713332	135.800000
832.950893	134.600000
835.189866	139.600000
837.426312	122.400000
839.664169	134.000000
841.899501	118.800000
844.132310	118.600000
846.366530	123.200000
848.598227	137.000000
850.829370	163.000000
853.059958	134.000000
855.289992	127.600000
857.519472	124.000000
859.744470	120.000000
861.972843	159.400000
864.196736	123.000000
866.422041	128.800000
868.642870	117.800000
870.867071	145.600000
873.086799	125.800000
875.307937	116.600000
877.528525	142.400000
879.746604	131.600000
881.966092	134.200000
884.181114	141.400000
886.395588	118.400000
888.609515	159.000000
890.822895	129.400000
893.035727	133.000000
895.248013	122.600000
897.457796	123.800000
899.667034	142.600000
901.875727	152.800000
904.081920	133.200000
906.289524	127.000000
908.494629	122.600000
910.699191	149.000000
912.901258	136.800000
915.104734	130.400000
917.305716	144.600000
919.506156	133.400000
921.708005	118.000000
923.903463	142.400000
926.102280	147.800000
928.296658	129.800000
930.494394	117.000000
932.687694	148.200000
934.882403	151.800000
937.074626	157.200000
939.266310	147.800000
941.457457	129.000000
943.646121	132.600000
945.834249	132.000000
948.019896	154.600000
950.208895	172.200000
952.393471	164.800000
954.577512	172.000000
956.764903	143.600000
958.943990	151.800000
961.126428	125.600000
963.308332	152.600000
965.487761	162.600000
967.664718	172.200000
969.843083	163.400000
972.022855	159.400000
974.196278	171.000000
976.373047	163.800000
978.545409	173.200000
980.719179	172.400000
982.888545	161.000000
985.061255	179.000000
987.231500	192.600000
989.401215	182.800000
991.570403	171.200000
993.735193	207.000000
995.903324	179.400000
998.067060	184.400000
1000.232204	173.400000
1002.394888	173.000000
1004.557047	192.800000
1006.716749	187.400000
1008.875926	170.600000
1011.036510	180.600000
1013.194639	183.400000
1015.352245	187.400000
1017.509327	179.000000
1019.665885	225.200000
1021.818064	209.800000
1023.971650	203.200000
1026.124714	237.200000
1028.275329	198.600000
1030.427351	184.600000
1032.574999	222.600000
1034.725979	222.400000
1036.872588	236.200000
1039.018678	226.000000
1041.164250	237.600000
1043.311227	207.600000
1045.451915	209.200000
1047.595933	198.600000
1049.737510	214.000000
1051.878571	206.600000
1054.021036	261.600000
1056.157221	209.800000
1058.296733	237.000000
1060.431890	207.000000
1062.570371	225.200000
1064.704498	192.600000
1066.838112	225.400000
1068.973130	214.200000
1071.103800	225.400000
1073.235874	228.200000
1075.365519	218.800000
1077.494652	196.000000
1079.623273	197.400000
1081.751383	192.400000
1083.877067	218.000000
1086.002241	198.400000
1088.128819	201.200000
1090.251059	192.800000
1092.374704	209.200000
1094.494014	192.800000
1096.618553	203.600000
1098.736848	204.000000
1100.856547	158.200000
1102.973827	216.800000
1105.090600	182.400000
1107.206868	208.000000
1109.320719	207.800000
1111.435975	160.200000
1113.546907	213.200000
1115.661152	155.200000
1117.771076	206.400000
1119.882404	173.400000
1121.993227	176.600000
1124.099734	160.000000
1126.209550	191.600000
1128.315053	153.800000
1130.421958	185.600000
1132.522648	158.400000
1134.628550	150.000000
1136.730143	171.400000
1138.833139	170.000000
1140.935634	128.600000
1143.031922	176.000000
1145.133417	167.400000
1147.230610	177.400000
1149.327305	169.800000
1151.423501	169.600000
1153.519199	152.400000
1155.614400	145.400000
1157.707204	175.200000
1159.801410	158.800000
1161.889425	174.800000
1163.982639	187.800000
1166.069664	166.400000
1168.159988	152.200000
1170.246024	156.200000
1172.335359	171.400000
1174.418512	165.400000
1176.503067	194.000000
1178.589024	154.200000
1180.670699	155.400000
1182.753775	166.800000
1184.834466	169.200000
1186.914666	172.800000
1188.994374	145.000000
1191.073591	170.000000
1193.150426	164.800000
1195.224879	149.600000
1197.302625	156.200000
1199.376101	145.200000
1201.450977	170.800000
1203.521586	144.200000
1205.593596	194.400000
1207.663231	152.800000
1209.734265	153.800000
1211.804813	164.200000
1213.871099	159.800000
1215.938786	158.200000
1218.004101	139.000000
1220.070816	135.000000
1222.133275	156.600000
1224.199019	140.200000
1226.260509	150.800000
1228.323400	135.000000
1230.383923	106.600000
1232.443962	160.400000
1234.503518	149.000000
1236.560710	115.400000
1238.617420	136.800000
1240.671766	137.600000
1242.729394	170.600000
1244.784659	134.600000
1246.835683	154.000000
1248.888107	159.400000
1250.940051	168.800000
1252.989637	119.000000
1255.038744	128.800000
1257.087372	135.200000
1259.135522	135.400000
1261.183194	149.400000
1263.226635	132.800000
1265.273352	140.200000
1267.317715	140.800000
1269.361602	157.400000
1271.403137	144.200000
1273.442323	156.200000
1275.484782	155.600000
1277.523018	142.600000
1279.562653	142.400000
1281.601813	163.000000
1283.636754	174.800000
1285.673094	115.600000
1287.707090	156.000000
1289.742483	150.800000
1291.773664	157.200000
1293.806242	149.800000
1295.838349	166.600000
1297.868115	142.400000
1299.899278	159.400000
1301.926235	144.200000
1303.954589	181.200000
1305.978738	175.200000
1308.006153	168.800000
1310.029365	159.800000
1312.053975	158.200000
1314.076251	186.800000
1316.099924	182.800000
1318.121263	186.000000
1320.142136	177.000000
1322.162541	182.200000
1324.178753	199.800000
1326.196362	193.600000
1328.211643	253.000000
1330.230183	204.600000
1332.244534	188.200000
1334.256558	214.200000
1336.271841	213.200000
1338.282938	222.800000
1340.295432	225.000000
1342.303743	232.200000
1344.315309	228.800000
1346.320837	216.200000
1348.329620	227.600000
1350.334225	206.800000
1352.342084	227.000000
1354.349481	211.600000
1356.350847	206.200000
1358.353609	205.000000
1360.355912	188.200000
1362.357755	188.800000
1364.359138	178.600000
1366.358208	184.800000
1368.356819	170.200000
1370.354971	172.000000
1372.352666	194.800000
1374.346198	161.000000
1376.341125	169.800000
1378.335596	165.000000
1380.329610	167.400000
1382.321317	160.000000
1384.312568	141.600000
1386.301514	155.200000
1388.291856	151.600000
1390.281742	152.600000
1392.269324	156.200000
1394.256453	153.400000
1396.241280	152.400000
1398.227502	176.200000
1400.211423	153.400000
1402.194892	141.400000
1404.177909	154.200000
1406.158628	169.200000
1408.140741	161.600000
1410.120558	118.000000
1412.099923	171.400000
1414.075150	135.200000
1416.053615	164.000000
1418.029787	145.800000
1420.005509	153.000000
1421.980783	158.400000
1423.953765	137.200000
1425.926299	149.200000
1427.898385	158.200000
1429.870024	148.000000
1431.837534	142.800000
1433.810118	158.400000
1435.774896	149.000000
1437.744747	150.400000
1439.710474	167.800000
1441.677593	162.600000
1443.642429	135.600000
1445.603145	136.000000
1447.568929	145.200000
1449.528758	121.600000
1451.489981	133.400000
1453.452595	140.400000
1455.411095	139.000000
1457.369153	141.400000
1459.326769	177.200000
1461.283942	125.400000
1463.238840	149.000000
1465.195131	169.800000
1467.149147	139.400000
1469.102722	135.200000
1471.054025	140.600000
1473.006721	139.000000
1474.957144	162.800000
1476.907129	148.800000
1478.856675	149.000000
1480.803952	156.600000
1482.748961	156.600000
1484.695363	151.800000
1486.641327	150.800000
1488.586854	148.400000
1490.530115	151.800000
1492.472941	131.400000
1494.413502	186.600000
1496.355456	151.400000
1498.295147	168.600000
1500.234403	139.400000
1502.173225	133.600000
1504.109787	147.000000
1506.047740	143.600000
1507.983434	150.000000
1509.918695	144.000000
1511.851699	158.400000
1513.784272	160.000000
1515.716412	142.600000
1517.648120	156.000000
1519.577574	151.600000
1521.508419	145.600000
1523.438832	158.400000
1525.365173	158.200000
1527.292904	156.600000
1529.218386	160.600000
1531.143438	142.400000
1533.068061	167.200000
1534.992254	163.600000
1536.914201	162.200000
1538.837538	135.800000
1540.758628	155.600000
1542.677474	176.600000
1544.597710	167.000000
1546.515703	151.800000
1548.433269	155.400000
1550.348593	189.400000
1552.265307	176.600000
1554.177966	180.200000
1556.093829	216.000000
1558.007452	199.600000
1559.918837	200.000000
1561.831612	198.200000
1563.740337	213.000000
1565.650451	208.200000
1567.560142	213.800000
1569.469410	210.000000
1571.376444	212.200000
1573.281245	224.000000
1575.187435	213.400000
1577.091393	202.000000
1578.994930	197.000000
1580.898047	202.800000
1582.798934	211.200000
1584.701210	180.200000
1586.601258	183.200000
1588.502693	203.600000
1590.400095	186.800000
1592.297078	193.400000
1594.193643	182.800000
1596.091595	180.600000
1597.983713	188.200000
1599.879025	194.400000
1601.773919	186.200000
1603.666591	152.400000
1605.558846	199.800000
1607.448882	162.800000
1609.338502	182.000000
1611.227707	178.000000
1613.116497	165.200000
1615.003069	176.000000
1616.891029	190.200000
1618.774972	178.400000
1620.660302	180.600000
1622.545219	158.400000
1624.427922	173.200000
1626.312012	139.800000
1628.192090	159.600000
1630.073556	164.600000
1631.952811	141.800000
1633.833452	146.000000
1635.708289	152.800000
1637.588107	124.000000
1639.463921	145.600000
1641.339324	158.200000
1643.216113	143.600000
1645.087106	152.000000
1646.961280	144.200000
1648.831455	142.400000
1650.704811	121.200000
1652.575964	131.600000
1654.444916	145.600000
1656.315252	139.000000
1658.181596	142.600000
1660.049325	107.400000
1661.914855	119.400000
1663.781771	121.200000
1665.644698	154.400000
1667.509010	144.600000
1669.371126	135.200000
1671.232837	135.200000
1673.095934	136.800000
1674.956835	109.000000
1676.815544	138.600000
1678.673849	125.200000
1680.533538	110.000000
1682.387461	144.400000
1684.244557	135.600000
1686.101249	121.800000
1687.953966	143.600000
1689.809854	119.000000
1691.661768	143.200000
1693.513281	138.000000
1695.364393	160.400000
1697.215105	139.600000
1699.065415	133.400000
1700.913542	124.800000
1702.763053	102.400000
1704.606814	108.400000
1706.455526	147.400000
1708.298491	132.600000
1710.144623	145.600000
1711.986792	145.000000
1713.832127	138.600000
1715.671721	160.000000
1717.512699	130.600000
1719.355060	113.800000
1721.193465	137.000000
1723.033253	140.000000
1724.870865	139.200000
1726.708083	128.000000
1728.543127	137.200000
1730.379554	145.200000
1732.213809	143.400000
1734.047669	99.400000
1735.881135	144.600000
1737.710656	103.000000
1739.543335	154.600000
1741.372070	124.200000
1743.203962	127.200000
1745.031912	115.600000
1746.859471	136.200000
1748.686637	120.800000
1750.513412	124.000000
1752.339795	127.400000
1754.162242	112.000000
1755.987844	119.000000
1757.809511	156.000000
1759.632560	104.600000
1761.453447	144.600000
1763.273946	104.000000
1765.095825	139.800000
1766.912006	137.600000
1768.731338	112.400000
1770.546742	131.400000
1772.365298	139.000000
1774.179928	121.200000
1775.994171	127.400000
1777.808028	128.200000
1779.621498	158.000000
1781.432815	118.600000
1783.245512	132.600000
1785.057824	121.600000
1786.866217	128.400000
1788.675992	147.400000
1790.481852	143.200000
1792.290857	111.800000
1794.095949	129.200000
1795.902422	132.400000
1797.708511	136.200000
1799.510689	140.800000
1801.316012	149.600000
1803.117426	133.800000
1804.920220	149.600000
1806.719108	125.200000
1808.519377	124.000000
1810.319264	127.000000
1812.117009	128.600000
1813.914374	134.600000
1815.711359	114.800000
1817.507963	104.200000
1819.302428	132.400000
1821.098272	114.200000
1822.888461	143.200000
1824.683547	129.000000
1826.472981	122.200000
1828.265551	119.800000
1830.055986	137.600000
1831.844287	134.800000
1833.635723	129.800000
1835.421513	118.600000
1837.208683	121.600000
1838.993721	105.000000
1840.781893	128.800000
1842.566179	133.800000
1844.348335	139.200000
1846.131871	131.000000
1847.913278	126.600000
1849.696064	108.400000
1851.474969	129.000000
1853.255253	117.200000
1855.033412	147.000000
1856.812949	139.400000
1858.590360	155.000000
1860.365649	113.200000
1862.142315	115.400000
1863.916859	128.400000
1865.692781	138.400000
1867.463082	136.000000
1869.236511	124.200000
1871.007820	116.000000
1872.778758	158.000000
1874.551074	115.600000
1876.317776	115.200000
1878.087603	114.200000
1879.853567	115.400000
1881.622655	124.000000
1883.387881	127.400000
1885.152739	112.800000
1886.918974	149.600000
1888.681350	108.600000
1890.443358	146.800000
1892.205000	127.600000
1893.966275	118.600000
1895.727182	127.400000
1897.487723	121.800000
1899.246154	146.400000
1901.004219	136.800000
1902.760177	111.600000
1904.517511	133.200000
1906.274480	128.800000
1908.029342	120.200000
1909.782100	108.200000
1911.534493	135.600000
1913.288263	139.200000
1915.039929	106.000000
1916.789493	112.800000
1918.540432	126.200000
1920.291009	119.800000
1922.037746	111.200000
1923.785860	112.800000
1925.531874	132.800000
1927.279263	116.600000
1929.024555	119.200000
1930.767749	111.800000
1932.512318	132.000000
1934.254791	112.800000
1935.996905	115.800000
1937.738658	131.200000
1939.480051	134.600000
1941.219351	116.800000
1942.958292	134.800000
1944.696874	123.400000
1946.433365	131.400000
1948.169498	119.900000
1949.907005	108.400000
1951.640690	112.400000
1953.375750	128.600000
1955.108721	122.600000
1956.841336	132.600000
1958.573595	118.800000
1960.305497	150.800000
1962.035313	124.000000
1963.763044	96.200000
1965.492150	114.400000
1967.220900	129.600000
1968.947568	134.800000
1970.673881	124.600000
1972.401567	101.400000
1974.123717	126.000000
1975.848968	135.400000
1977.570412	128.200000
1979.294957	124.800000
1981.017421	121.600000
1982.736083	146.600000
1984.457843	147.800000
1986.175801	103.400000
1987.895132	114.600000
1989.610664	97.600000
1991.331016	138.600000
1993.047570	126.800000
1994.760327	126.600000
1996.476180	107.600000
1998.189961	115.800000
1999.903392	150.800000
2001.614752	130.200000
2003.327484	124.600000
2005.036426	152.400000
2006.748460	121.600000
2008.454985	127.400000
2010.164603	138.000000
2011.872154	124.400000
2013.579356	123.400000
2015.284493	112.400000
2016.989284	127.800000
2018.695446	139.800000
2020.397826	121.400000
2022.101577	136.600000
2023.803266	136.800000
2025.504609	129.600000
2027.205608	153.200000
2028.904545	124.400000
2030.604854	128.400000
2032.301387	127.400000
2033.999292	127.600000
2035.695139	139.400000
2037.394071	115.200000
2039.087517	133.000000
2040.782334	140.600000
2042.476809	115.200000
2044.167515	139.600000
2045.861305	110.800000
2047.551328	140.600000
2049.242722	112.800000
2050.932063	144.600000
2052.622774	134.000000
2054.309722	113.200000
2055.996331	124.800000
2057.684309	113.200000
2059.368528	117.200000
2061.054118	122.400000
2062.739368	135.000000
2064.422569	128.400000
2066.107141	145.200000
2067.786249	121.000000
2069.470144	131.400000
2071.148577	125.400000
2072.830088	128.600000
2074.507847	94.000000
2076.185270	139.400000
2077.864062	116.600000
2079.540812	123.200000
2081.215519	140.400000
2082.891597	112.200000
2084.565633	144.000000
2086.239335	150.400000
2087.912701	120.000000
2089.584028	123.000000
2091.255021	105.400000
2092.925680	130.600000
2094.596005	145.000000
2096.265996	112.400000
2097.933951	128.600000
2099.601573	147.400000
2101.267160	121.400000
2102.934116	105.600000
2104.599039	132.200000
2106.263630	132.600000
2107.926189	129.600000
2109.590116	131.600000
2111.252012	122.400000
2112.913578	127.600000
2114.574812	114.600000
2116.234018	157.600000
2117.892893	151.200000
2119.551439	120.400000
2121.209654	106.200000
2122.864147	137.600000
2124.521704	130.800000
2126.178931	147.000000
2127.832438	119.600000
2129.487312	143.400000
2131.138467	126.200000
2132.792685	125.800000
2134.443185	135.800000
2136.095053	122.400000
2137.741512	119.200000
2139.392726	144.200000
2141.040226	130.200000
2142.689093	107.600000
2144.335941	143.000000
2145.982464	151.400000
2147.628661	137.600000
2149.271150	125.200000
2150.916697	118.800000
2152.558537	112.800000
2154.203434	121.000000
2155.844625	119.800000
2157.485494	127.200000
2159.126038	142.800000
2160.764570	107.400000
2162.404468	131.600000
2164.040666	119.400000
2165.678230	120.200000
2167.315472	136.200000
2168.950704	111.400000
2170.585614	116.600000
2172.220203	125.800000
2173.854471	146.800000
2175.485045	139.200000
2177.118671	110.000000
2178.748605	120.400000
2180.379904	133.000000
2182.009198	130.000000
2183.638173	127.000000
2185.266828	148.200000
2186.895164	115.600000
2188.521498	129.200000
2190.147513	139.600000
2191.771526	164.600000
2193.396905	118.200000
2195.020283	135.400000
2196.645026	142.600000
2198.266088	153.200000
2199.886833	133.600000
2201.508942	136.800000
2203.129054	97.600000
2204.747170	110.800000
2206.364970	121.400000
2207.982455	139.600000
2209.599624	109.600000
2211.216478	111.400000
2212.833016	119.200000
2214.447562	126.800000
2216.060115	137.600000
2217.674032	136.400000
2219.285958	122.000000
2220.899247	123.200000
2222.510546	108.200000
2224.119855	135.800000
2225.730528	127.200000
2227.339212	127.800000
2228.947583	102.000000
2230.553968	115.800000
2232.161715	129.800000
2233.767477	114.600000
2235.372927	99.600000
2236.976392	126.600000
2238.581220	126.600000
2240.184064	106.000000
2241.784925	118.800000
2243.387149	111.200000
2244.987391	130.600000
2246.588995	140.800000
2248.186946	121.000000
2249.786260	139.600000
2251.383594	112.000000
2252.980620	117.600000
2254.579008	109.800000
2256.173747	116.800000
2257.766509	149.200000
2259.360634	146.200000
2260.956120	106.200000
2262.547961	134.400000
2264.139496	116.800000
2265.732393	116.200000
2267.319980	129.000000
2268.912263	126.200000
2270.499240	86.000000
2272.089244	118.000000
2273.673944	136.200000
2275.263338	145.200000
2276.847430	110.000000
2278.432882	109.000000
2280.016366	139.200000
2281.602875	139.200000
2283.185751	110.400000
2284.768324	108.200000
2286.350593	121.400000
2287.929232	131.400000
2289.510896	121.200000
2291.088931	142.000000
2292.669989	131.800000
2294.247420	124.100000
2295.822888	116.400000
2297.401378	110.400000
2298.976244	118.000000
2300.550809	125.600000
2302.125073	119.200000
2303.699038	141.000000
2305.272701	113.200000
2306.846065	99.400000
2308.415810	109.400000
2309.985256	144.000000
2311.557720	133.800000
2313.124910	125.600000
2314.695118	98.600000
2316.261711	120.800000
2317.829664	123.600000
2319.395661	121.400000
2320.961361	120.800000
2322.526763	130.600000
2324.090212	116.800000
2325.655020	122.600000
2327.216220	133.000000
2328.780434	145.600000
2330.339386	162.600000
2331.901352	146.200000
2333.461368	141.000000
2335.021089	121.600000
2336.578860	112.200000
2338.136336	127.400000
2339.693518	123.800000
2341.248752	120.200000
2342.803693	132.200000
2344.358339	114.400000
2345.912692	111.400000
2347.466751	151.800000
2349.020517	117.200000
2350.572338	124.600000
2352.122217	109.800000
2353.675103	112.000000
2355.222746	120.200000
2356.773398	119.800000
2358.320458	105.200000
2359.868876	135.000000
2361.417003	121.800000
2362.961541	124.400000
2364.507437	101.400000
2366.051395	124.400000
2367.596709	134.400000
2369.138440	115.000000
2370.681527	112.200000
2372.222678	145.200000
2373.763540	102.000000
2375.304113	157.600000
2376.844397	131.400000
2378.384392	131.000000
2379.920809	138.200000
2381.460227	116.000000
2382.996067	118.600000
2384.533265	144.400000
2386.066887	125.000000
2387.603509	147.600000
2389.138201	119.800000
2390.670963	113.600000
2392.203438	139.800000
2393.733985	123.200000
2395.267530	124.600000
2396.795864	123.600000
2398.325554	144.600000
2399.854959	138.200000
2401.384079	132.600000
2402.912913	126.000000
2404.436543	112.800000
2405.964808	114.400000
2407.487871	135.200000
2409.015567	113.000000
2410.536424	126.000000
2412.061913	105.400000
2413.583843	118.400000
2415.107127	125.800000
2416.628491	134.200000
2418.147935	153.800000
2419.668734	121.200000
2421.187614	139.400000
2422.706213	121.600000
2424.222894	144.600000
2425.740929	136.800000
2427.258683	111.400000
2428.772885	123.200000
2430.286808	137.000000
2431.800450	138.400000
2433.315447	106.000000
2434.826895	112.800000
2436.339697	134.600000
2437.850587	149.600000
2439.361198	133.400000
2440.869897	135.400000
2442.381582	141.400000
2443.889724	123.400000
2445.397588	129.000000
2446.905174	120.400000
2448.409219	130.200000
2449.916249	136.600000
2451.421371	118.600000
2452.926216	151.200000
2454.429154	130.000000
2455.931816	128.800000
2457.434201	114.200000
2458.934681	139.600000
2460.436514	121.000000
2461.936442	139.600000
2463.436095	117.400000
2464.935473	124.000000
2466.432948	92.800000
2467.928521	141.600000
2469.427074	126.200000
2470.922099	127.000000
2472.418476	128.600000
2473.911327	112.600000
2475.405531	105.000000
2476.899461	147.800000
2478.389867	122.400000
2479.883251	113.600000
2481.374737	139.200000
2482.864326	112.600000
2484.353643	127.400000
2485.841064	139.600000
2487.331461	111.000000
2488.818340	139.200000
2490.306570	115.400000
2491.791283	118.600000
2493.275727	146.600000
2494.761521	122.000000
2496.245424	119.400000
2497.730677	106.400000
2499.210797	112.000000
2500.693890	128.400000
2502.175092	134.200000
2503.656025	102.400000
2505.135069	138.200000
2506.613844	138.200000
2508.092351	95.600000
2509.570590	87.800000
2511.048560	105.400000
2512.523025	131.200000
2514.000460	120.200000
2515.474391	118.800000
2516.949672	135.800000
2518.424686	105.000000
2519.896199	144.000000
2521.369063	114.000000
2522.840044	99.400000
2524.312375	116.200000
2525.779592	133.000000
2527.249776	125.200000
2528.718079	134.000000
2530.186117	105.200000
2531.653890	121.600000
2533.121398	117.200000
2534.588641	126.200000
2536.052392	125.400000
2537.517493	127.800000
2538.980717	151.000000
2540.445290	123.200000
2541.906375	86.600000
2543.368809	131.200000
2544.830980	137.400000
2546.289665	157.600000
2547.752921	120.000000
2549.211082	131.800000
2550.670591	124.200000
2552.125006	124.000000
2553.583992	144.400000
2555.041106	120.400000
2556.496348	109.200000
2557.951330	139.400000
2559.404443	130.800000
2560.858903	95.000000
2562.311495	112.400000
2563.763827	139.600000
2565.214292	131.000000
2566.667712	117.400000
2568.116050	112.400000
2569.567343	130.600000
2571.016771	117.800000
2572.462726	127.800000
2573.911636	123.400000
2575.357076	161.000000
2576.803863	124.000000
2578.248787	116.600000
2579.693454	114.200000
2581.139468	128.000000
2582.582016	115.200000
2584.025911	130.800000
2585.466340	98.800000
2586.908118	127.000000
2588.348036	114.600000
2589.789301	115.800000
2591.227104	111.400000
2592.667857	105.800000
2594.103548	102.800000
2595.542188	105.600000
2596.978970	125.000000
2598.413897	136.600000
2599.851771	108.200000
2601.284588	114.000000
2602.718752	107.400000
2604.151062	135.400000
2605.584718	136.600000
2607.016521	135.200000
2608.448070	134.400000
2609.879367	122.400000
2611.308811	111.000000
2612.738003	122.400000
2614.165345	114.000000
2615.594032	106.200000
2617.022468	112.600000
2618.447456	120.600000
2619.873791	115.600000
2621.298277	133.400000
2622.724109	129.800000
2624.146497	154.400000
2625.570231	128.000000
2626.992118	110.200000
2628.413756	115.400000
2629.833548	142.200000
2631.254686	114.800000
2632.675574	148.600000
2634.093023	108.200000
2635.513413	123.200000
2636.930365	122.000000
2638.347068	141.800000
2639.763523	121.200000
2641.179730	155.400000
2642.595689	145.200000
2644.009807	138.000000
2645.423677	94.600000
2646.835709	108.400000
2648.249084	124.000000
2649.659030	145.400000
2651.071912	139.600000
2652.481365	139.600000
2653.890572	147.400000
2655.297943	120.400000
2656.708248	136.000000
2658.116718	149.600000
2659.523352	126.800000
2660.929741	119.400000
2662.334296	140.400000
2663.740195	124.400000
2665.144261	128.200000
2666.548082	139.600000
2667.951659	130.800000
2669.353405	153.600000
2670.756494	141.000000
2672.156165	145.400000
2673.557180	138.800000
2674.954779	154.400000
2676.355307	127.800000
2677.752421	122.800000
2679.150878	121.400000
2680.547508	155.200000
2681.943895	136.200000
2683.340040	163.600000
2684.734359	107.800000
2686.130021	130.800000
2687.522274	175.000000
2688.915869	144.600000
2690.307640	128.200000
2691.700754	131.800000
2693.092044	135.000000
2694.481511	130.400000
2695.870738	124.200000
2697.259726	126.000000
2698.650055	141.800000
2700.035401	132.600000
2701.423670	118.000000
2702.810119	146.600000
2704.196329	127.800000
2705.582300	120.600000
2706.964873	107.000000
2708.348788	126.400000
2709.732465	97.200000
2711.115903	113.000000
2712.495946	110.400000
2713.877331	128.200000
2715.256901	118.800000
2716.637811	156.200000
2718.016907	131.600000
2719.394189	124.400000
2720.772812	113.200000
2722.149621	148.800000
2723.526195	118.600000
2724.902533	131.000000
2726.277060	114.600000
2727.652927	152.200000
2729.025407	122.800000
2730.400803	126.000000
2731.771239	127.800000
2733.143016	134.000000
2734.514558	114.600000
2735.884292	133.800000
2737.255367	139.800000
2738.624633	135.400000
2739.993666	122.400000
2741.360893	108.000000
2742.727886	127.400000
2744.094647	132.200000
2745.461176	126.000000
2746.825899	94.600000
2748.190390	98.800000
2749.554650	150.000000
2750.918677	127.600000
2752.282473	131.600000
2753.642895	114.000000
2755.006227	126.200000
2756.364617	118.000000
2757.725917	118.400000
2759.083847	118.800000
2760.444685	93.800000
2761.803724	131.000000
2763.159394	113.200000
2764.517972	126.000000
2765.873183	113.600000
2767.228165	126.800000
2768.581350	126.000000
2769.937442	110.400000
2771.290170	109.800000
2772.642670	117.400000
2773.994941	104.600000
2775.348550	91.800000
2776.698799	131.600000
2778.047253	118.000000
2779.398612	108.000000
2780.746613	112.800000
2782.095951	87.200000
2783.443497	87.400000
2784.790817	129.400000
2786.137910	89.000000
2787.483211	100.000000
2788.828287	117.200000
2790.173137	103.400000
2791.517761	126.400000
2792.859033	115.200000
2794.201643	118.000000
2795.544027	116.600000
2796.886186	114.600000
2798.224996	108.800000
2799.566706	109.000000
2800.905067	103.400000
2802.244766	95.600000
2803.582680	103.800000
2804.918809	100.600000
2806.254714	93.000000
2807.591957	106.800000
2808.927416	142.200000
2810.262652	105.400000
2811.596105	88.000000
2812.930895	119.200000
2814.262345	134.200000
2815.596690	94.400000
2816.926137	104.600000
2818.256920	114.000000
2819.587483	104.400000
2820.916266	114.200000
2822.246385	111.200000
2823.574726	116.800000
2824.902846	108.600000
2826.229188	120.400000
2827.556867	128.400000
2828.881212	100.200000
2830.206894	116.400000
2831.530800	102.600000
2832.854486	108.000000
2834.179509	104.200000
2835.501201	112.200000
2836.822675	102.000000
2838.143930	137.600000
2839.464966	98.600000
2840.784229	100.400000
2842.104828	78.000000
2843.423656	101.200000
2844.742265	104.600000
2846.059103	87.000000
2847.375724	107.200000
2848.692128	91.200000
2850.006762	95.000000
2851.322732	128.400000
2852.635381	122.200000
2853.949365	80.400000
2855.263133	74.600000
2856.576684	106.000000
2857.888469	101.000000
2859.198487	86.400000
2860.509840	82.800000
2861.817878	88.600000
2863.127250	102.000000
2864.436408	112.400000
2865.745350	93.800000
2867.052528	100.200000
2868.357944	83.000000
2869.664693	106.800000
2870.969681	89.400000
2872.274454	130.600000
2873.577467	99.200000
2874.883360	120.200000
2876.184399	83.800000
2877.486772	126.200000
2878.787385	81.000000
2880.089332	104.000000
2881.391065	102.000000
2882.689495	115.400000
2883.989258	78.000000
2885.287264	110.200000
2886.585058	83.600000
2887.881096	95.800000
2889.178467	88.200000
2890.474082	122.800000
2891.769486	76.600000
2893.064679	130.800000
2894.356575	102.600000
2895.651347	103.000000
2896.942822	87.200000
2898.235630	122.200000
2899.528228	84.200000
2900.817532	105.600000
2902.108168	100.600000
2903.397053	114.000000
2904.687270	116.200000
2905.974196	107.800000
2907.262454	118.200000
2908.548963	97.000000
2909.835263	96.800000
2911.121356	87.600000
2912.405700	121.000000
2913.692915	109.000000
2914.975304	95.600000
2916.259025	82.200000
2917.541000	90.200000
2918.822767	96.400000
2920.102789	117.400000
2921.385682	105.800000
2922.666829	94.800000
2923.944694	96.400000
2925.225428	84.200000
2926.502881	99.200000
2927.780128	86.200000
2929.055633	122.000000
2930.334006	100.200000
2931.607565	100.600000
2932.883991	108.000000
2934.158676	85.200000
2935.431620	99.200000
2936.705896	107.600000
2937.978432	92.800000
2939.250763	81.400000
2940.519822	71.800000
2941.791746	119.000000
2943.061932	98.600000
2944.331914	131.600000
2945.601693	107.400000
2946.869736	98.400000
2948.136042	125.800000
2949.402147	86.800000
2950.669581	87.800000
2951.935280	101.000000
2953.200778	85.000000
2954.466073	102.400000
2955.728103	102.000000
2956.991463	113.400000
2958.254622	107.200000
2959.516049	91.600000
2960.778805	121.800000
2962.039829	92.200000
2963.299123	89.200000
2964.558217	95.200000
2965.817110	105.800000
2967.075803	90.200000
2968.334296	105.600000
2969.591060	117.800000
2970.847624	86.600000
2972.102460	99.800000
2973.358626	48.600000
2974.611537	104.600000
2975.865777	78.800000
2977.119817	99.800000
2978.372132	96.000000
2979.624249	126.000000
2980.874641	101.200000
2982.127888	116.600000
2983.376358	72.400000
2984.627683	101.200000
2985.875758	122.600000
2987.123636	91.200000
2988.371318	102.600000
2989.618802	88.200000
2990.864565	80.200000
2992.110132	101.400000
2993.357026	57.800000
2994.600676	111.400000
2995.845654	105.000000
2997.087388	89.600000
2998.331974	94.200000
2999.574841	109.800000
3000.814467	93.400000
3002.056943	98.000000
3003.296179	75.200000
3004.536743	126.800000
3005.775590	72.000000
3007.014243	95.200000
3008.251180	108.800000
3009.489445	98.600000
3010.725994	107.400000
3011.962350	78.400000
3013.198512	94.200000
3014.432960	97.200000
3015.667216	97.600000
3016.901278	112.400000
3018.133627	90.000000
3019.364266	82.400000
3020.597750	87.400000
3021.829522	72.400000
3023.059584	74.200000
3024.289453	111.000000
3025.517613	100.200000
3026.747100	98.800000
3027.974877	100.800000
3029.202463	71.000000
3030.431375	94.400000
3031.655546	104.600000
3032.882559	95.800000
3034.106348	92.000000
3035.331464	98.200000
3036.554873	65.800000
3037.778092	110.400000
3038.999606	87.600000
3040.223961	75.800000
3041.443581	104.600000
3042.664527	69.800000
3043.885284	100.200000
3045.104337	103.000000
3046.324715	95.600000
3047.541877	84.800000
3048.760365	70.800000
3049.977150	102.400000
3051.193748	102.800000
3052.410157	90.400000
3053.623353	78.600000
3054.839388	84.400000
3056.052210	92.000000
3057.267869	76.600000
3058.478805	93.400000
3059.691066	102.200000
3060.903140	100.000000
3062.115028	79.800000
3063.325219	99.600000
3064.535223	79.000000
3065.745041	99.800000
3066.953163	94.200000
3068.161100	102.200000
3069.367341	96.400000
3070.574907	95.600000
3071.780778	101.900000
3072.986465	108.200000
3074.191966	72.800000
3075.395774	81.800000
3076.600906	68.600000
3077.804345	76.400000
3079.006093	91.000000
3080.207656	97.000000
3081.409036	90.600000
3082.610232	95.600000
3083.809738	68.600000
3085.009061	90.200000
3086.209707	90.400000
3087.408663	99.400000
3088.604425	70.600000
3089.803016	115.800000
3090.998413	97.200000
3092.195133	104.000000
3093.388661	92.000000
3094.585017	99.600000
3095.779686	71.600000
3096.971165	74.200000
3098.166976	87.800000
3099.358092	70.600000
3100.550532	93.800000
3101.739784	99.200000
3102.931861	94.600000
3104.122255	96.800000
3105.309463	88.600000
3106.497993	90.400000
3107.687846	105.600000
3108.874515	91.400000
3110.061003	93.400000
3111.247313	122.800000
3112.434944	87.000000
3113.619393	125.200000
3114.802163	77.000000
3115.987755	71.000000
3117.171668	73.200000
3118.353902	96.200000
3119.535957	106.000000
3120.717834	105.200000
3121.899533	79.000000
3123.079555	107.800000
3124.257900	62.800000
3125.439065	75.800000
3126.617055	81.000000
3127.794868	103.800000
3128.972504	73.400000
3130.148466	102.600000
3131.324250	69.200000
3132.501356	80.200000
3133.676787	85.800000
3134.850545	77.200000
3136.022630	82.000000
3137.196037	100.000000
3138.369267	120.600000
3139.540826	84.600000
3140.713705	87.200000
3141.883417	107.200000
3143.054450	77.000000
3144.223813	96.400000
3145.391505	78.800000
3146.562013	72.000000
3147.727863	81.000000
3148.898021	117.000000
3150.063523	108.600000
3151.228850	116.400000
3152.394004	90.600000
3153.558985	79.800000
3154.725285	107.800000
3155.886933	90.800000
3157.049900	88.400000
3158.212695	120.800000
3159.375317	65.800000
3160.536273	112.400000
3161.697058	100.000000
3162.857670	78.600000
3164.016618	78.400000
3165.175395	101.000000
3166.333999	100.600000
3167.492432	87.000000
3168.650694	88.600000
3169.807293	62.000000
3170.962231	85.000000
3172.118488	90.200000
3173.273084	88.400000
3174.427510	78.600000
3175.580276	86.000000
3176.732871	56.200000
3177.885297	95.000000
3179.037553	82.000000
3180.189638	69.200000
3181.338577	73.800000
3182.490324	82.000000
3183.640412	90.200000
3184.788844	76.400000
3185.937106	73.600000
3187.085200	81.800000
3188.233125	96.400000
3189.379394	88.200000
3190.525495	99.400000
3191.669942	75.800000
3192.814221	121.800000
3193.958332	83.800000
3195.103760	89.000000
3196.246050	78.200000
3197.388173	101.600000
3198.530128	103.000000
3199.671916	100.400000
3200.813537	78.400000
3201.952023	82.600000
3203.091826	101.400000
3204.232946	60.800000
3205.370933	96.800000
3206.507270	59.200000
3207.643441	91.800000
3208.780929	84.200000
3209.916769	89.200000
3211.053926	100.000000
3212.186470	72.600000
3213.323296	117.200000
3214.455510	78.400000
3215.589041	88.000000
3216.722408	88.000000
3217.852647	86.800000
3218.985684	91.000000
3220.115595	86.000000
3221.246822	90.200000
3222.374925	111.400000
3223.505824	63.800000
3224.635079	84.200000
3225.762691	90.600000
3226.887180	81.600000
3228.015945	84.400000
3229.141588	66.000000
3230.267069	72.400000
3231.390907	52.600000
3232.517541	92.000000
3233.639577	104.600000
3234.762929	66.200000
3235.886119	66.600000
3237.009146	84.600000
3238.130535	88.800000
3239.251761	87.800000
3240.371350	74.200000
3241.490777	76.600000
3242.608566	101.600000
3243.729147	93.600000
3244.846615	83.200000
3245.963922	84.800000
3247.081069	112.400000
3248.196579	92.000000
3249.313405	123.600000
3250.427121	74.600000
3251.543626	106.200000
3252.658497	73.600000
3253.770258	91.000000
3254.881861	79.800000
3255.994779	88.200000
3257.107537	79.800000
3258.217189	85.400000
3259.328156	79.000000
3260.438964	95.400000
3261.548140	90.200000
3262.655685	98.200000
3263.764545	87.800000
3264.873247	101.200000
3265.978846	70.000000
3267.085759	86.200000
3268.191043	65.200000
3269.297641	106.200000
3270.401139	64.200000
3271.505952	104.000000
3272.610606	93.400000
3273.712163	79.600000
3274.813563	68.800000
3275.916277	75.000000
3277.018835	81.400000
3278.118296	75.200000
3279.220541	65.000000
3280.319690	98.600000
3281.417215	83.000000
3282.514584	88.800000
3283.614735	92.600000
3284.711794	91.600000
3285.808697	65.800000
3286.905445	60.400000
3287.997634	91.400000
3289.094073	105.000000
3290.188889	85.600000
3291.283551	84.400000
3292.376591	75.400000
3293.469476	84.200000
3294.560741	60.600000
3295.653319	72.400000
3296.744277	84.200000
3297.833615	83.800000
3298.922800	73.800000
3300.013298	96.800000
3301.100711	56.000000
3302.187971	91.200000
3303.276544	82.200000
3304.364964	89.200000
3305.448838	80.000000
3306.536953	70.200000
3307.621986	62.600000
3308.705404	69.400000
3309.790134	69.600000
3310.873248	85.400000
3311.957675	78.000000
3313.039023	69.200000
3314.121683	71.400000
3315.202729	82.200000
3316.283624	67.000000
3317.362905	95.800000
3318.442036	72.400000
3319.522479	95.000000
3320.599847	84.600000
3321.678527	46.000000
3322.755595	61.200000
3323.832514	101.400000
3324.907821	64.800000
3325.982979	82.200000
3327.059448	85.200000
3328.132847	102.400000
3329.206096	95.800000
3330.280657	99.200000
3331.353609	88.800000
3332.424952	72.600000
3333.497606	70.000000
3334.567194	80.400000
3335.638092	78.000000
3336.707383	60.800000
3337.777985	75.000000
3338.846980	87.800000
3339.914369	68.000000
3340.980153	95.200000
3342.050163	57.600000
3343.117110	85.200000
3344.180995	75.400000
3345.247647	62.000000
3346.312696	56.000000
3347.376141	76.400000
3348.439440	103.400000
3349.502592	105.000000
3350.565598	59.600000
3351.628458	96.400000
3352.689716	65.000000
3353.747917	82.800000
3354.810338	66.200000
3355.869704	82.800000
3356.928924	76.600000
3357.989453	84.400000
3359.045474	65.200000
3360.104258	94.000000
3361.158535	72.800000
3362.215576	78.600000
3363.271018	71.000000
3364.327770	72.200000
3365.382923	62.000000
3366.436479	95.200000
3367.488439	93.200000
3368.543160	84.800000
3369.594832	70.200000
3370.646361	79.400000
3371.699198	99.200000
3372.748988	92.200000
3373.800087	77.400000
3374.848140	79.800000
3375.898952	85.000000
3376.946720	67.200000
3377.994344	82.800000
3379.041827	90.200000
3380.087717	77.200000
3381.134915	80.200000
3382.179071	56.200000
3383.225985	78.600000
3384.271307	99.000000
3385.313588	86.600000
3386.355728	76.000000
3387.399177	76.600000
3388.442484	68.800000
3389.484201	68.600000
3390.525778	48.000000
3391.567213	95.600000
3392.607060	80.400000
3393.645318	50.200000
3394.684884	51.800000
3395.724310	84.800000
3396.762148	54.200000
3397.798399	67.800000
3398.834511	47.800000
3399.871930	81.400000
3400.906316	78.400000
3401.942009	97.600000
3402.977563	89.400000
3404.010086	58.200000
3405.045362	77.800000
3406.077607	75.400000
3407.109714	70.200000
3408.140237	64.400000
3409.172067	69.200000
3410.203759	72.000000
3411.232423	69.600000
3412.260950	89.000000
3413.290783	89.600000
3414.320479	108.800000
3415.347149	68.400000
3416.375125	117.000000
3417.400078	63.200000
3418.427780	84.400000
3419.452459	62.600000
3420.478444	92.400000
3421.502849	76.400000
3422.527118	96.000000
3423.549808	78.000000
3424.572362	81.800000
3425.596222	69.800000
3426.617062	58.600000
3427.637766	96.800000
3428.659777	70.800000
3429.678769	65.800000
3430.697625	68.600000
3431.717788	59.600000
3432.734934	83.000000
