-116.521679	-6.400000
-113.852079	-23.600000
-111.185414	-1.000000
-108.519501	4.200000
-105.856521	1.400000
-103.192110	-15.400000
-100.530630	-12.200000
-97.867721	18.800000
-95.209918	-3.800000
-92.550686	-8.600000
-89.892202	2.200000
-87.236643	-14.400000
-84.579654	-10.800000
-81.927764	-18.000000
-79.274444	-10.000000
-76.624043	-9.800000
-73.972214	15.800000
-71.325474	-15.600000
-68.677306	-2.000000
-66.029880	1.800000
-63.385369	-9.200000
-60.739428	-34.800000
-58.098569	21.800000
-55.456281	15.000000
-52.816902	-27.800000
-50.176093	-2.600000
-47.536025	7.800000
-44.901030	2.400000
-42.264605	3.600000
-39.631083	8.200000
-36.996133	38.400000
-34.366248	0.800000
-31.732771	-0.200000
-29.104356	-1.400000
-26.476675	-19.800000
-23.847565	6.600000
-21.223512	23.200000
-18.595870	-6.600000
-15.973281	13.800000
-13.351424	22.800000
-10.730297	59.400000
-8.109901	132.400000
-5.492392	453.200000
-2.873455	1391.200000
-0.257403	3426.400000
2.357920	3466.200000
4.972515	1825.800000
7.584229	194.000000
10.197371	36.800000
12.805479	9.400000
15.417169	1.800000
18.023828	19.600000
20.631915	6.800000
23.239278	-18.000000
25.841616	-16.000000
28.447532	4.600000
31.048426	14.200000
33.650748	2.000000
36.248053	-15.800000
38.848933	6.000000
41.444798	-14.000000
44.042092	0.000000
46.638666	15.200000
49.230231	-5.800000
51.823224	5.200000
54.413356	3.000000
57.004915	-5.600000
59.593616	-3.400000
62.183743	-8.200000
64.768871	-7.200000
67.355427	-6.200000
69.941269	7.600000
72.524257	1.400000
75.108671	-6.800000
77.685957	15.000000
80.266809	-21.800000
82.844812	-16.000000
85.422105	-19.800000
88.000824	9.800000
90.574561	27.600000
93.149726	-4.800000
95.722047	-26.600000
98.293660	3.600000
100.862433	-14.600000
103.432633	-16.400000
105.999994	-0.200000
108.568782	19.600000
111.134733	0.200000
113.697849	10.600000
116.264521	-2.200000
118.821972	24.400000
121.385108	28.800000
123.943284	24.400000
126.505015	24.200000
129.061789	28.600000
131.619989	45.000000
134.173237	102.200000
136.725787	112.800000
139.281887	192.800000
141.833039	228.800000
144.383494	258.400000
146.933251	267.600000
149.480189	324.600000
152.026432	333.600000
154.574100	366.400000
157.121072	344.600000
159.663109	323.800000
162.204452	359.800000
164.745102	349.000000
167.287178	319.800000
169.826442	327.600000
172.362898	302.200000
174.898662	316.200000
177.435852	336.200000
179.972351	347.000000
182.506044	283.000000
185.036933	343.800000
187.567134	317.400000
190.098761	350.800000
192.627586	295.400000
195.153612	339.000000
197.678952	338.600000
200.205717	328.800000
202.729686	318.000000
205.252970	323.000000
207.775569	348.800000
210.295375	350.000000
212.814497	332.400000
215.332938	337.000000
217.852802	314.600000
220.365665	349.600000
222.882059	287.600000
225.397771	338.200000
227.908593	312.800000
230.420840	342.000000
232.930305	297.000000
235.439090	340.000000
237.947198	334.000000
240.456730	336.400000
242.961381	311.600000
245.465356	330.600000
247.970755	314.400000
250.471279	356.000000
252.975326	326.600000
255.472403	334.200000
257.973003	375.400000
260.470831	333.600000
262.967986	327.600000
265.464468	340.400000
267.956087	335.800000
270.451226	342.600000
272.943598	315.800000
275.435300	326.400000
277.924239	373.400000
280.414601	346.000000
282.902202	358.800000
285.387043	362.400000
287.875399	331.600000
290.356815	355.600000
292.841745	356.800000
295.321830	338.600000
297.805427	365.600000
300.284181	337.800000
302.764358	335.200000
305.241784	367.200000
307.718546	357.200000
310.194644	377.800000
312.667995	381.000000
315.140683	416.600000
317.612710	441.000000
320.084076	480.200000
322.552697	483.000000
325.020660	517.400000
327.490044	456.200000
329.954606	432.200000
332.422672	399.200000
334.885918	411.800000
337.348506	384.800000
339.810438	383.000000
342.271713	366.000000
344.730254	414.800000
347.190217	374.400000
349.647447	403.800000
352.104023	378.800000
354.559945	405.800000
357.013137	375.000000
359.467752	398.800000
361.917565	407.800000
364.370874	387.000000
366.819384	414.600000
369.267244	381.400000
371.716526	365.600000
374.161014	355.600000
376.606924	389.200000
379.052184	395.600000
381.494726	369.200000
383.936620	383.600000
386.377867	374.200000
388.816398	390.800000
391.256350	395.400000
393.693590	386.200000
396.128117	374.200000
398.566132	417.200000
400.999370	372.200000
403.434029	370.600000
405.863916	393.200000
408.297288	376.200000
410.725890	362.000000
413.153850	412.000000
415.583232	372.400000
418.007848	420.400000
420.433886	385.400000
422.859283	364.000000
425.284040	400.200000
427.704039	401.800000
430.125458	395.800000
432.544182	389.200000
434.964326	380.800000
437.381775	371.200000
439.800644	386.600000
442.216820	405.200000
444.628248	387.400000
447.043153	394.800000
449.455369	360.600000
451.866950	423.800000
454.277897	412.800000
456.686158	399.600000
459.093786	392.400000
461.500782	392.800000
463.907147	348.200000
466.310829	375.600000
468.713881	377.000000
471.116303	387.200000
473.518095	352.600000
475.917209	364.000000
478.317743	368.200000
480.717648	340.800000
483.112831	368.200000
485.511480	383.400000
487.905408	356.600000
490.298711	385.800000
492.691389	362.600000
495.083441	337.200000
497.476911	341.400000
499.865669	321.800000
502.251761	343.800000
504.639273	328.400000
507.026162	305.200000
509.410387	294.600000
511.796030	275.000000
514.179012	290.800000
516.559333	254.200000
518.941073	266.800000
521.320154	233.000000
523.700654	247.000000
526.078496	236.200000
528.453682	253.800000
530.828252	230.600000
533.204239	275.800000
535.577574	255.000000
537.952326	278.800000
540.322393	236.600000
542.691844	237.200000
545.062713	225.600000
547.428901	212.600000
549.796508	231.600000
552.161470	226.000000
554.525818	221.800000
556.889553	236.600000
559.254706	227.000000
561.615187	248.800000
563.977086	200.600000
566.336344	231.200000
568.692964	205.200000
571.053030	227.000000
573.406404	225.000000
575.763223	223.600000
578.117407	223.000000
580.470982	234.400000
582.823950	210.800000
585.174285	217.600000
587.526038	184.000000
589.871114	217.400000
592.221653	184.800000
594.565520	220.200000
596.914848	218.800000
599.259527	206.800000
601.601582	194.000000
603.945054	192.800000
606.285903	207.600000
608.626149	222.600000
610.963776	191.000000
613.304837	218.600000
615.641260	205.600000
617.979100	178.200000
620.314323	179.600000
622.646930	236.000000
624.980953	187.400000
627.312362	194.000000
629.643173	192.800000
631.973387	209.800000
634.303002	178.000000
636.627994	184.200000
638.958428	193.200000
641.284241	193.000000
643.607446	220.800000
645.932068	205.800000
648.254084	185.000000
650.575506	206.000000
652.894326	196.600000
655.214561	172.400000
657.534203	184.000000
659.851244	186.200000
662.167693	178.200000
664.481544	174.600000
666.796811	177.800000
669.109481	198.000000
671.423566	176.200000
673.733051	191.200000
676.043952	172.800000
678.352260	162.800000
680.659980	187.200000
682.969114	196.000000
685.273656	181.200000
687.577612	189.000000
689.880982	173.800000
692.185766	200.200000
694.485963	167.000000
696.787576	169.000000
699.088603	178.400000
701.385049	162.400000
703.682910	192.000000
705.980187	190.600000
708.276881	155.200000
710.568999	184.000000
712.864528	164.600000
715.155483	199.800000
717.447853	164.400000
719.737648	183.400000
722.026862	173.600000
724.315497	148.600000
726.601559	186.800000
728.889036	174.600000
731.173941	170.000000
733.458269	185.200000
735.740028	153.600000
738.023201	171.400000
740.305797	165.400000
742.583837	163.800000
744.863292	162.800000
747.142170	175.200000
749.420474	173.400000
751.694228	176.600000
753.969395	168.200000
756.243989	182.600000
758.516024	186.400000
760.789472	213.200000
763.060362	175.600000
765.328696	175.000000
767.598443	195.600000
769.865636	188.000000
772.132258	214.600000
774.398310	196.600000
776.661811	161.800000
778.926725	206.200000
781.191069	203.400000
783.450884	175.200000
785.712111	178.200000
787.972771	211.800000
790.230885	212.200000
792.486454	181.000000
794.745414	183.400000
796.997874	178.200000
799.255702	221.600000
801.509011	191.000000
803.759780	188.200000
806.011961	181.600000
808.261603	217.400000
810.512658	171.800000
812.759201	175.000000
815.007156	193.000000
817.252577	186.400000
819.499409	185.200000
821.745680	178.800000
823.987446	167.800000
826.232596	175.400000
828.471273	191.200000
830.713332	175.200000
832.950893	176.200000
835.189866	187.200000
837.426312	191.200000
839.664169	171.000000
841.899501	169.200000
844.132310	160.400000
846.366530	190.000000
848.598227	168.600000
850.829370	188.400000
853.059958	188.400000
855.289992	171.600000
857.519472	165.200000
859.744470	168.800000
861.972843	131.000000
864.196736	158.400000
866.422041	154.600000
868.642870	142.600000
870.867071	155.400000
873.086799	173.000000
875.307937	167.400000
877.528525	154.400000
879.746604	168.600000
881.966092	188.400000
884.181114	159.600000
886.395588	158.400000
888.609515	176.400000
890.822895	182.000000
893.035727	144.400000
895.248013	166.600000
897.457796	184.200000
899.667034	188.000000
901.875727	171.200000
904.081920	171.800000
906.289524	161.600000
908.494629	186.000000
910.699191	153.400000
912.901258	154.800000
915.104734	176.200000
917.305716	163.200000
919.506156	171.000000
921.708005	187.200000
923.903463	152.800000
926.102280	165.800000
928.296658	174.000000
930.494394	167.400000
932.687694	183.200000
934.882403	185.400000
937.074626	181.200000
939.266310	186.400000
941.457457	190.000000
943.646121	206.200000
945.834249	194.200000
948.019896	198.400000
950.208895	216.200000
952.393471	188.800000
954.577512	186.800000
956.764903	181.200000
958.943990	216.000000
961.126428	197.600000
963.308332	182.200000
965.487761	238.600000
967.664718	208.600000
969.843083	187.800000
972.022855	200.000000
974.196278	223.200000
976.373047	206.000000
978.545409	193.400000
980.719179	206.600000
982.888545	221.800000
985.061255	219.800000
987.231500	228.800000
989.401215	221.000000
991.570403	214.600000
993.735193	222.200000
995.903324	224.400000
998.067060	229.600000
1000.232204	227.000000
1002.394888	237.200000
1004.557047	258.600000
1006.716749	232.800000
1008.875926	262.000000
1011.036510	226.600000
1013.194639	239.400000
1015.352245	233.000000
1017.509327	254.400000
1019.665885	251.000000
1021.818064	223.800000
1023.971650	263.400000
1026.124714	256.600000
1028.275329	260.600000
1030.427351	271.400000
1032.574999	247.600000
1034.725979	254.600000
1036.872588	251.600000
1039.018678	276.000000
1041.164250	255.000000
1043.311227	303.000000
1045.451915	269.000000
1047.595933	281.200000
1049.737510	255.200000
1051.878571	286.200000
1054.021036	263.000000
1056.157221	281.200000
1058.296733	309.200000
1060.431890	300.600000
1062.570371	271.000000
1064.704498	254.200000
1066.838112	270.000000
1068.973130	283.600000
1071.103800	275.000000
1073.235874	261.600000
1075.365519	254.400000
1077.494652	260.800000
1079.623273	245.400000
1081.751383	243.200000
1083.877067	267.400000
1086.002241	251.200000
1088.128819	271.600000
1090.251059	239.000000
1092.374704	238.600000
1094.494014	253.800000
1096.618553	215.800000
1098.736848	231.200000
1100.856547	259.000000
1102.973827	253.200000
1105.090600	228.200000
1107.206868	258.000000
1109.320719	239.800000
1111.435975	234.600000
1113.546907	223.000000
1115.661152	258.600000
1117.771076	229.600000
1119.882404	230.400000
1121.993227	213.200000
1124.099734	240.200000
1126.209550	218.200000
1128.315053	227.200000
1130.421958	215.000000
1132.522648	213.800000
1134.628550	207.200000
1136.730143	236.000000
1138.833139	229.000000
1140.935634	249.800000
1143.031922	197.200000
1145.133417	247.400000
1147.230610	201.600000
1149.327305	206.200000
1151.423501	208.200000
1153.519199	226.600000
1155.614400	223.800000
1157.707204	229.600000
1159.801410	209.800000
1161.889425	224.800000
1163.982639	200.200000
1166.069664	229.400000
1168.159988	189.000000
1170.246024	229.800000
1172.335359	189.400000
1174.418512	212.400000
1176.503067	190.000000
1178.589024	202.800000
1180.670699	185.600000
1182.753775	235.000000
1184.834466	198.800000
1186.914666	217.400000
1188.994374	222.400000
1191.073591	226.800000
1193.150426	224.200000
1195.224879	206.600000
1197.302625	192.800000
1199.376101	208.600000
1201.450977	199.600000
1203.521586	207.000000
1205.593596	208.000000
1207.663231	224.200000
1209.734265	213.000000
1211.804813	243.200000
1213.871099	204.200000
1215.938786	214.000000
1218.004101	209.600000
1220.070816	209.000000
1222.133275	212.600000
1224.199019	210.200000
1226.260509	203.200000
1228.323400	210.200000
1230.383923	221.200000
1232.443962	213.800000
1234.503518	232.600000
1236.560710	224.400000
1238.617420	217.200000
1240.671766	225.000000
1242.729394	219.200000
1244.784659	215.200000
1246.835683	237.000000
1248.888107	215.400000
1250.940051	229.000000
1252.989637	215.400000
1255.038744	218.000000
1257.087372	202.800000
1259.135522	188.000000
1261.183194	223.800000
1263.226635	216.400000
1265.273352	227.600000
1267.317715	215.800000
1269.361602	239.000000
1271.403137	227.800000
1273.442323	214.800000
1275.484782	232.200000
1277.523018	237.400000
1279.562653	243.200000
1281.601813	226.000000
1283.636754	232.600000
1285.673094	235.600000
1287.707090	244.000000
1289.742483	274.000000
1291.773664	237.200000
1293.806242	279.000000
1295.838349	268.200000
1297.868115	297.200000
1299.899278	278.200000
1301.926235	298.600000
1303.954589	291.800000
1305.978738	308.200000
1308.006153	329.600000
1310.029365	322.000000
1312.053975	299.200000
1314.076251	334.600000
1316.099924	333.800000
1318.121263	393.800000
1320.142136	381.600000
1322.162541	376.800000
1324.178753	360.000000
1326.196362	372.200000
1328.211643	376.400000
1330.230183	422.400000
1332.244534	430.400000
1334.256558	438.600000
1336.271841	422.800000
1338.282938	427.000000
1340.295432	397.800000
1342.303743	396.000000
1344.315309	404.800000
1346.320837	406.400000
1348.329620	374.600000
1350.334225	372.000000
1352.342084	362.200000
1354.349481	381.800000
1356.350847	305.400000
1358.353609	342.600000
1360.355912	309.400000
1362.357755	297.800000
1364.359138	330.600000
1366.358208	303.000000
1368.356819	277.000000
1370.354971	287.400000
1372.352666	253.600000
1374.346198	246.000000
1376.341125	261.400000
1378.335596	287.400000
1380.329610	221.200000
1382.321317	277.000000
1384.312568	226.800000
1386.301514	253.600000
1388.291856	260.200000
1390.281742	242.600000
1392.269324	219.400000
1394.256453	254.000000
1396.241280	231.800000
1398.227502	233.600000
1400.211423	237.000000
1402.194892	238.000000
1404.177909	209.200000
1406.158628	216.400000
1408.140741	215.200000
1410.120558	201.600000
1412.099923	219.200000
1414.075150	227.600000
1416.053615	216.600000
1418.029787	207.400000
1420.005509	245.600000
1421.980783	235.000000
1423.953765	220.800000
1425.926299	204.800000
1427.898385	226.200000
1429.870024	240.400000
1431.837534	218.400000
1433.810118	228.200000
1435.774896	195.000000
1437.744747	224.200000
1439.710474	206.400000
1441.677593	195.800000
1443.642429	218.200000
1445.603145	211.400000
1447.568929	204.400000
1449.528758	216.600000
1451.489981	215.600000
1453.452595	216.400000
1455.411095	210.400000
1457.369153	227.600000
1459.326769	225.000000
1461.283942	203.400000
1463.238840	190.400000
1465.195131	218.400000
1467.149147	226.600000
1469.102722	200.400000
1471.054025	218.800000
1473.006721	237.600000
1474.957144	207.200000
1476.907129	214.400000
1478.856675	223.000000
1480.803952	227.000000
1482.748961	205.800000
1484.695363	227.600000
1486.641327	203.600000
1488.586854	227.000000
1490.530115	188.600000
1492.472941	211.600000
1494.413502	221.800000
1496.355456	217.600000
1498.295147	237.000000
1500.234403	226.800000
1502.173225	221.800000
1504.109787	215.000000
1506.047740	209.200000
1507.983434	228.200000
1509.918695	207.200000
1511.851699	234.800000
1513.784272	243.200000
1515.716412	239.000000
1517.648120	207.600000
1519.577574	230.000000
1521.508419	226.200000
1523.438832	226.200000
1525.365173	253.800000
1527.292904	253.400000
1529.218386	238.200000
1531.143438	248.000000
1533.068061	277.800000
1534.992254	278.400000
1536.914201	269.600000
1538.837538	287.000000
1540.758628	249.800000
1542.677474	274.600000
1544.597710	289.000000
1546.515703	308.400000
1548.433269	299.600000
1550.348593	336.800000
1552.265307	323.400000
1554.177966	366.400000
1556.093829	358.600000
1558.007452	365.000000
1559.918837	364.800000
1561.831612	363.600000
1563.740337	390.000000
1565.650451	420.600000
1567.560142	388.600000
1569.469410	409.600000
1571.376444	368.400000
1573.281245	354.200000
1575.187435	361.600000
1577.091393	369.400000
1578.994930	360.800000
1580.898047	348.000000
1582.798934	359.000000
1584.701210	324.200000
1586.601258	295.600000
1588.502693	338.200000
1590.400095	312.200000
1592.297078	339.000000
1594.193643	317.800000
1596.091595	328.400000
1597.983713	312.200000
1599.879025	311.200000
1601.773919	312.000000
1603.666591	294.600000
1605.558846	272.200000
1607.448882	308.600000
1609.338502	251.400000
1611.227707	252.800000
1613.116497	247.800000
1615.003069	260.400000
1616.891029	276.000000
1618.774972	261.000000
1620.660302	262.600000
1622.545219	260.400000
1624.427922	243.600000
1626.312012	237.400000
1628.192090	200.000000
1630.073556	236.000000
1631.952811	216.400000
1633.833452	227.400000
1635.708289	228.400000
1637.588107	247.000000
1639.463921	219.600000
1641.339324	232.600000
1643.216113	211.200000
1645.087106	236.800000
1646.961280	248.200000
1648.831455	211.000000
1650.704811	190.800000
1652.575964	195.400000
1654.444916	199.200000
1656.315252	215.400000
1658.181596	201.200000
1660.049325	204.800000
1661.914855	195.400000
1663.781771	187.200000
1665.644698	199.400000
1667.509010	190.400000
1669.371126	185.600000
1671.232837	216.400000
1673.095934	158.200000
1674.956835	206.200000
1676.815544	186.400000
1678.673849	200.200000
1680.533538	198.200000
1682.387461	210.200000
1684.244557	189.400000
1686.101249	202.000000
1687.953966	171.600000
1689.809854	201.400000
1691.661768	190.000000
1693.513281	203.200000
1695.364393	214.600000
1697.215105	207.400000
1699.065415	192.200000
1700.913542	213.600000
1702.763053	198.000000
1704.606814	180.800000
1706.455526	186.200000
1708.298491	222.600000
1710.144623	201.600000
1711.986792	190.600000
1713.832127	193.000000
1715.671721	203.000000
1717.512699	199.600000
1719.355060	200.800000
1721.193465	213.600000
1723.033253	191.800000
1724.870865	157.600000
1726.708083	195.400000
1728.543127	178.600000
1730.379554	190.000000
1732.213809	181.200000
1734.047669	183.200000
1735.881135	160.400000
1737.710656	176.600000
1739.543335	170.200000
1741.372070	212.600000
1743.203962	191.000000
1745.031912	187.800000
1746.859471	164.600000
1748.686637	204.600000
1750.513412	171.200000
1752.339795	192.000000
1754.162242	158.000000
1755.987844	192.600000
1757.809511	172.200000
1759.632560	205.800000
1761.453447	182.200000
1763.273946	184.200000
1765.095825	179.600000
1766.912006	176.600000
1768.731338	183.600000
1770.546742	197.200000
1772.365298	186.200000
1774.179928	183.000000
1775.994171	170.800000
1777.808028	196.200000
1779.621498	179.000000
1781.432815	213.000000
1783.245512	156.400000
1785.057824	210.000000
1786.866217	190.400000
1788.675992	203.200000
1790.481852	178.600000
1792.290857	199.400000
1794.095949	179.000000
1795.902422	221.400000
1797.708511	173.800000
1799.510689	185.000000
1801.316012	196.000000
1803.117426	200.400000
1804.920220	171.800000
1806.719108	199.600000
1808.519377	184.200000
1810.319264	176.000000
1812.117009	176.800000
1813.914374	164.200000
1815.711359	172.800000
1817.507963	182.800000
1819.302428	183.600000
1821.098272	182.600000
1822.888461	158.600000
1824.683547	185.800000
1826.472981	159.800000
1828.265551	184.800000
1830.055986	183.000000
1831.844287	166.600000
1833.635723	180.600000
1835.421513	159.600000
1837.208683	181.200000
1838.993721	178.800000
1840.781893	212.600000
1842.566179	210.200000
1844.348335	184.800000
1846.131871	203.200000
1847.913278	191.000000
1849.696064	185.400000
1851.474969	190.400000
1853.255253	195.200000
1855.033412	194.800000
1856.812949	200.800000
1858.590360	191.000000
1860.365649	198.600000
1862.142315	180.200000
1863.916859	178.200000
1865.692781	169.200000
1867.463082	207.800000
1869.236511	173.600000
1871.007820	196.400000
1872.778758	163.000000
1874.551074	236.600000
1876.317776	162.200000
1878.087603	197.800000
1879.853567	197.400000
1881.622655	212.600000
1883.387881	216.400000
1885.152739	193.800000
1886.918974	174.000000
1888.681350	195.800000
1890.443358	190.000000
1892.205000	198.200000
1893.966275	215.400000
1895.727182	204.800000
1897.487723	178.200000
1899.246154	199.000000
1901.004219	200.600000
1902.760177	202.800000
1904.517511	175.400000
1906.274480	185.600000
1908.029342	213.400000
1909.782100	209.200000
1911.534493	181.600000
1913.288263	195.800000
1915.039929	208.600000
1916.789493	173.600000
1918.540432	196.000000
1920.291009	168.800000
1922.037746	208.200000
1923.785860	186.000000
1925.531874	174.600000
1927.279263	170.600000
1929.024555	175.800000
1930.767749	187.800000
1932.512318	171.600000
1934.254791	189.200000
1935.996905	193.200000
1937.738658	186.000000
1939.480051	179.800000
1941.219351	213.000000
1942.958292	180.800000
1944.696874	196.600000
1946.433365	199.800000
1948.169498	188.100000
1949.907005	176.400000
1951.640690	202.400000
1953.375750	180.600000
1955.108721	200.000000
1956.841336	177.800000
1958.573595	205.000000
1960.305497	186.600000
1962.035313	211.200000
1963.763044	185.000000
1965.492150	180.000000
1967.220900	192.200000
1968.947568	197.200000
1970.673881	185.800000
1972.401567	182.200000
1974.123717	205.400000
1975.848968	208.800000
1977.570412	225.800000
1979.294957	241.800000
1981.017421	182.800000
1982.736083	216.000000
1984.457843	169.600000
1986.175801	192.600000
1987.895132	202.600000
1989.610664	207.000000
1991.331016	185.200000
1993.047570	236.000000
1994.760327	173.000000
1996.476180	226.800000
1998.189961	185.400000
1999.903392	215.800000
2001.614752	197.200000
2003.327484	234.200000
2005.036426	182.600000
2006.748460	210.200000
2008.454985	208.600000
2010.164603	178.800000
2011.872154	189.400000
2013.579356	192.600000
2015.284493	183.600000
2016.989284	170.400000
2018.695446	204.800000
2020.397826	185.000000
2022.101577	202.200000
2023.803266	212.600000
2025.504609	197.800000
2027.205608	227.000000
2028.904545	217.800000
2030.604854	216.600000
2032.301387	200.000000
2033.999292	200.400000
2035.695139	213.400000
2037.394071	189.600000
2039.087517	186.000000
2040.782334	216.000000
2042.476809	187.600000
2044.167515	227.000000
2045.861305	196.400000
2047.551328	185.800000
2049.242722	185.200000
2050.932063	247.600000
2052.622774	205.600000
2054.309722	223.400000
2055.996331	208.600000
2057.684309	187.000000
2059.368528	209.800000
2061.054118	198.200000
2062.739368	195.600000
2064.422569	208.400000
2066.107141	190.800000
2067.786249	209.600000
2069.470144	193.800000
2071.148577	215.800000
2072.830088	183.600000
2074.507847	198.800000
2076.185270	207.200000
2077.864062	194.200000
2079.540812	192.000000
2081.215519	197.400000
2082.891597	215.600000
2084.565633	198.600000
2086.239335	198.600000
2087.912701	195.600000
2089.584028	205.000000
2091.255021	219.000000
2092.925680	192.600000
2094.596005	221.400000
2096.265996	198.400000
2097.933951	182.800000
2099.601573	200.600000
2101.267160	220.600000
2102.934116	188.600000
2104.599039	202.800000
2106.263630	208.600000
2107.926189	232.600000
2109.590116	204.400000
2111.252012	223.400000
2112.913578	192.200000
2114.574812	221.000000
2116.234018	217.200000
2117.892893	203.800000
2119.551439	203.000000
2121.209654	192.200000
2122.864147	224.400000
2124.521704	202.800000
2126.178931	208.400000
2127.832438	216.400000
2129.487312	197.400000
2131.138467	239.600000
2132.792685	185.800000
2134.443185	239.000000
2136.095053	184.800000
2137.741512	213.800000
2139.392726	197.400000
2141.040226	197.400000
2142.689093	198.800000
2144.335941	211.200000
2145.982464	202.800000
2147.628661	215.600000
2149.271150	224.400000
2150.916697	205.000000
2152.558537	179.000000
2154.203434	233.200000
2155.844625	204.800000
2157.485494	227.000000
2159.126038	199.800000
2160.764570	217.800000
2162.404468	239.000000
2164.040666	207.200000
2165.678230	209.000000
2167.315472	210.800000
2168.950704	196.200000
2170.585614	226.800000
2172.220203	199.200000
2173.854471	216.800000
2175.485045	187.600000
2177.118671	202.600000
2178.748605	205.000000
2180.379904	195.000000
2182.009198	208.200000
2183.638173	214.000000
2185.266828	219.200000
2186.895164	204.200000
2188.521498	225.400000
2190.147513	189.600000
2191.771526	223.400000
2193.396905	224.000000
2195.020283	193.400000
2196.645026	219.400000
2198.266088	219.600000
2199.886833	191.400000
2201.508942	212.400000
2203.129054	206.600000
2204.747170	198.600000
2206.364970	233.000000
2207.982455	221.200000
2209.599624	245.400000
2211.216478	188.800000
2212.833016	217.800000
2214.447562	215.000000
2216.060115	209.000000
2217.674032	207.600000
2219.285958	219.400000
2220.899247	204.600000
2222.510546	196.400000
2224.119855	205.400000
2225.730528	219.600000
2227.339212	185.200000
2228.947583	223.400000
2230.553968	212.600000
2232.161715	215.600000
2233.767477	195.600000
2235.372927	200.800000
2236.976392	177.400000
2238.581220	197.000000
2240.184064	206.400000
2241.784925	225.800000
2243.387149	223.000000
2244.987391	205.600000
2246.588995	209.000000
2248.186946	220.200000
2249.786260	221.200000
2251.383594	222.600000
2252.980620	194.600000
2254.579008	238.800000
2256.173747	200.000000
2257.766509	240.000000
2259.360634	205.200000
2260.956120	217.400000
2262.547961	230.400000
2264.139496	223.200000
2265.732393	205.800000
2267.319980	223.600000
2268.912263	220.600000
2270.499240	229.000000
2272.089244	201.000000
2273.673944	210.600000
2275.263338	216.800000
2276.847430	224.000000
2278.432882	200.800000
2280.016366	230.800000
2281.602875	204.800000
2283.185751	200.000000
2284.768324	173.200000
2286.350593	205.600000
2287.929232	219.600000
2289.510896	206.400000
2291.088931	181.800000
2292.669989	193.000000
2294.247420	188.600000
2295.822888	184.200000
2297.401378	221.200000
2298.976244	189.600000
2300.550809	203.200000
2302.125073	204.800000
2303.699038	181.800000
2305.272701	189.600000
2306.846065	217.400000
2308.415810	189.200000
2309.985256	203.800000
2311.557720	191.400000
2313.124910	185.800000
2314.695118	220.000000
2316.261711	174.000000
2317.829664	181.600000
2319.395661	224.000000
2320.961361	202.000000
2322.526763	194.800000
2324.090212	216.800000
2325.655020	208.600000
2327.216220	263.000000
2328.780434	222.000000
2330.339386	194.400000
2331.901352	233.000000
2333.461368	204.800000
2335.021089	204.600000
2336.578860	214.800000
2338.136336	208.600000
2339.693518	228.800000
2341.248752	193.800000
2342.803693	203.800000
2344.358339	243.400000
2345.912692	229.600000
2347.466751	208.600000
2349.020517	191.400000
2350.572338	208.200000
2352.122217	186.600000
2353.675103	214.000000
2355.222746	196.400000
2356.773398	222.000000
2358.320458	198.800000
2359.868876	206.200000
2361.417003	191.400000
2362.961541	206.400000
2364.507437	232.200000
2366.051395	208.800000
2367.596709	209.600000
2369.138440	211.000000
2370.681527	209.000000
2372.222678	220.200000
2373.763540	203.800000
2375.304113	187.400000
2376.844397	199.200000
2378.384392	206.200000
2379.920809	202.200000
2381.460227	232.000000
2382.996067	232.800000
2384.533265	206.600000
2386.066887	216.000000
2387.603509	171.800000
2389.138201	243.800000
2390.670963	215.000000
2392.203438	212.000000
2393.733985	214.600000
2395.267530	213.000000
2396.795864	224.400000
2398.325554	228.800000
2399.854959	229.800000
2401.384079	222.000000
2402.912913	229.200000
2404.436543	240.600000
2405.964808	235.800000
2407.487871	225.200000
2409.015567	209.600000
2410.536424	226.600000
2412.061913	188.000000
2413.583843	216.400000
2415.107127	193.600000
2416.628491	217.400000
2418.147935	202.800000
2419.668734	244.000000
2421.187614	203.400000
2422.706213	226.800000
2424.222894	214.600000
2425.740929	251.000000
2427.258683	217.600000
2428.772885	216.000000
2430.286808	242.800000
2431.800450	222.200000
2433.315447	211.600000
2434.826895	238.000000
2436.339697	205.200000
2437.850587	221.200000
2439.361198	228.200000
2440.869897	206.400000
2442.381582	190.600000
2443.889724	182.000000
2445.397588	238.800000
2446.905174	231.600000
2448.409219	229.400000
2449.916249	227.400000
2451.421371	170.000000
2452.926216	225.200000
2454.429154	206.800000
2455.931816	208.400000
2457.434201	205.400000
2458.934681	219.600000
2460.436514	206.800000
2461.936442	213.000000
2463.436095	208.600000
2464.935473	231.000000
2466.432948	198.400000
2467.928521	215.600000
2469.427074	207.000000
2470.922099	215.600000
2472.418476	197.400000
2473.911327	212.800000
2475.405531	197.800000
2476.899461	244.200000
2478.389867	209.200000
2479.883251	211.800000
2481.374737	229.800000
2482.864326	204.200000
2484.353643	184.800000
2485.841064	205.000000
2487.331461	219.800000
2488.818340	210.400000
2490.306570	217.000000
2491.791283	218.400000
2493.275727	210.800000
2494.761521	203.200000
2496.245424	210.600000
2497.730677	224.600000
2499.210797	241.400000
2500.693890	211.400000
2502.175092	209.200000
2503.656025	222.800000
2505.135069	212.600000
2506.613844	215.800000
2508.092351	217.000000
2509.570590	226.400000
2511.048560	221.600000
2512.523025	233.600000
2514.000460	229.200000
2515.474391	226.200000
2516.949672	224.600000
2518.424686	223.200000
2519.896199	218.800000
2521.369063	218.400000
2522.840044	188.400000
2524.312375	221.000000
2525.779592	189.600000
2527.249776	213.400000
2528.718079	215.000000
2530.186117	220.200000
2531.653890	187.000000
2533.121398	214.000000
2534.588641	186.200000
2536.052392	216.600000
2537.517493	203.600000
2538.980717	236.600000
2540.445290	218.200000
2541.906375	240.600000
2543.368809	194.200000
2544.830980	212.200000
2546.289665	214.800000
2547.752921	221.000000
2549.211082	218.200000
2550.670591	230.800000
2552.125006	219.400000
2553.583992	237.400000
2555.041106	216.400000
2556.496348	241.000000
2557.951330	214.000000
2559.404443	196.600000
2560.858903	208.800000
2562.311495	243.000000
2563.763827	213.200000
2565.214292	202.200000
2566.667712	202.400000
2568.116050	241.200000
2569.567343	208.000000
2571.016771	225.200000
2572.462726	218.000000
2573.911636	229.000000
2575.357076	216.400000
2576.803863	224.800000
2578.248787	250.600000
2579.693454	234.400000
2581.139468	207.600000
2582.582016	229.600000
2584.025911	239.600000
2585.466340	255.200000
2586.908118	207.600000
2588.348036	250.400000
2589.789301	231.000000
2591.227104	252.200000
2592.667857	238.600000
2594.103548	223.000000
2595.542188	234.600000
2596.978970	239.400000
2598.413897	219.400000
2599.851771	239.600000
2601.284588	216.600000
2602.718752	229.200000
2604.151062	242.400000
2605.584718	221.800000
2607.016521	232.000000
2608.448070	256.800000
2609.879367	246.400000
2611.308811	255.200000
2612.738003	229.200000
2614.165345	227.800000
2615.594032	259.600000
2617.022468	238.800000
2618.447456	236.000000
2619.873791	226.400000
2621.298277	235.000000
2622.724109	246.200000
2624.146497	247.000000
2625.570231	257.200000
2626.992118	248.400000
2628.413756	276.400000
2629.833548	226.400000
2631.254686	262.600000
2632.675574	245.200000
2634.093023	266.600000
2635.513413	243.200000
2636.930365	254.000000
2638.347068	260.000000
2639.763523	283.200000
2641.179730	254.600000
2642.595689	255.200000
2644.009807	258.800000
2645.423677	258.600000
2646.835709	250.400000
2648.249084	218.400000
2649.659030	265.400000
2651.071912	293.600000
2652.481365	290.200000
2653.890572	287.000000
2655.297943	293.400000
2656.708248	280.600000
2658.116718	245.800000
2659.523352	256.200000
2660.929741	272.000000
2662.334296	272.200000
2663.740195	254.400000
2665.144261	260.200000
2666.548082	284.200000
2667.951659	284.800000
2669.353405	279.800000
2670.756494	266.400000
2672.156165	294.200000
2673.557180	269.600000
2674.954779	269.200000
2676.355307	270.000000
2677.752421	265.200000
2679.150878	262.400000
2680.547508	278.000000
2681.943895	286.800000
2683.340040	274.600000
2684.734359	280.800000
2686.130021	272.200000
2687.522274	294.000000
2688.915869	274.000000
2690.307640	272.400000
2691.700754	270.600000
2693.092044	278.800000
2694.481511	242.600000
2695.870738	251.800000
2697.259726	248.400000
2698.650055	235.200000
2700.035401	233.200000
2701.423670	261.400000
2702.810119	239.000000
2704.196329	254.600000
2705.582300	240.000000
2706.964873	274.200000
2708.348788	269.200000
2709.732465	251.600000
2711.115903	253.600000
2712.495946	273.200000
2713.877331	233.000000
2715.256901	235.600000
2716.637811	245.800000
2718.016907	231.800000
2719.394189	220.400000
2720.772812	241.000000
2722.149621	234.200000
2723.526195	234.800000
2724.902533	242.600000
2726.277060	238.000000
2727.652927	222.400000
2729.025407	230.200000
2730.400803	222.200000
2731.771239	237.000000
2733.143016	237.000000
2734.514558	238.200000
2735.884292	218.200000
2737.255367	220.800000
2738.624633	235.400000
2739.993666	253.600000
2741.360893	237.800000
2742.727886	221.200000
2744.094647	234.200000
2745.461176	255.600000
2746.825899	223.000000
2748.190390	238.000000
2749.554650	220.000000
2750.918677	248.400000
2752.282473	254.800000
2753.642895	219.600000
2755.006227	214.800000
2756.364617	265.000000
2757.725917	210.800000
2759.083847	236.400000
2760.444685	208.200000
2761.803724	235.800000
2763.159394	246.400000
2764.517972	235.200000
2765.873183	199.200000
2767.228165	229.000000
2768.581350	204.000000
2769.937442	240.600000
2771.290170	208.600000
2772.642670	205.000000
2773.994941	232.200000
2775.348550	214.200000
2776.698799	235.400000
2778.047253	235.800000
2779.398612	230.800000
2780.746613	236.600000
2782.095951	230.800000
2783.443497	227.600000
2784.790817	209.200000
2786.137910	194.600000
2787.483211	185.200000
2788.828287	218.800000
2790.173137	190.400000
2791.517761	206.200000
2792.859033	215.600000
2794.201643	221.000000
2795.544027	238.200000
2796.886186	228.600000
2798.224996	230.000000
2799.566706	207.400000
2800.905067	182.400000
2802.244766	254.200000
2803.582680	231.600000
2804.918809	237.600000
2806.254714	228.800000
2807.591957	232.400000
2808.927416	204.200000
2810.262652	238.800000
2811.596105	199.000000
2812.930895	230.000000
2814.262345	215.800000
2815.596690	231.400000
2816.926137	210.800000
2818.256920	181.200000
2819.587483	203.400000
2820.916266	221.400000
2822.246385	224.400000
2823.574726	229.000000
2824.902846	220.000000
2826.229188	233.400000
2827.556867	219.000000
2828.881212	211.200000
2830.206894	207.000000
2831.530800	234.600000
2832.854486	217.800000
2834.179509	212.000000
2835.501201	219.800000
2836.822675	229.200000
2838.143930	201.400000
2839.464966	245.600000
2840.784229	205.000000
2842.104828	216.200000
2843.423656	232.200000
2844.742265	216.400000
2846.059103	210.000000
2847.375724	236.200000
2848.692128	209.600000
2850.006762	214.200000
2851.322732	236.000000
2852.635381	239.200000
2853.949365	207.800000
2855.263133	229.800000
2856.576684	224.800000
2857.888469	219.200000
2859.198487	240.000000
2860.509840	256.400000
2861.817878	205.400000
2863.127250	237.000000
2864.436408	235.600000
2865.745350	246.600000
2867.052528	191.000000
2868.357944	233.800000
2869.664693	218.600000
2870.969681	228.000000
2872.274454	213.800000
2873.577467	235.800000
2874.883360	233.000000
2876.184399	244.000000
2877.486772	248.800000
2878.787385	210.200000
2880.089332	225.800000
2881.391065	224.800000
2882.689495	222.800000
2883.989258	218.200000
2885.287264	212.400000
2886.585058	223.400000
2887.881096	218.600000
2889.178467	234.000000
2890.474082	185.400000
2891.769486	225.800000
2893.064679	227.600000
2894.356575	229.200000
2895.651347	220.000000
2896.942822	198.200000
2898.235630	221.600000
2899.528228	209.000000
2900.817532	234.400000
2902.108168	278.800000
2903.397053	211.000000
2904.687270	221.400000
2905.974196	223.400000
2907.262454	209.600000
2908.548963	198.600000
2909.835263	217.200000
2911.121356	211.000000
2912.405700	222.800000
2913.692915	217.600000
2914.975304	226.200000
2916.259025	208.000000
2917.541000	235.200000
2918.822767	196.800000
2920.102789	250.000000
2921.385682	239.600000
2922.666829	200.600000
2923.944694	219.800000
2925.225428	259.400000
2926.502881	224.000000
2927.780128	194.200000
2929.055633	229.800000
2930.334006	212.000000
2931.607565	203.600000
2932.883991	247.400000
2934.158676	219.000000
2935.431620	210.600000
2936.705896	214.800000
2937.978432	220.200000
2939.250763	203.000000
2940.519822	201.800000
2941.791746	202.400000
2943.061932	191.600000
2944.331914	205.600000
2945.601693	185.600000
2946.869736	212.600000
2948.136042	231.600000
2949.402147	222.400000
2950.669581	212.200000
2951.935280	189.800000
2953.200778	221.400000
2954.466073	226.200000
2955.728103	210.400000
2956.991463	200.400000
2958.254622	205.200000
2959.516049	216.200000
2960.778805	228.000000
2962.039829	227.000000
2963.299123	202.200000
2964.558217	179.400000
2965.817110	248.800000
2967.075803	184.800000
2968.334296	229.800000
2969.591060	189.400000
2970.847624	236.600000
2972.102460	197.400000
2973.358626	212.000000
2974.611537	211.400000
2975.865777	216.400000
2977.119817	205.200000
2978.372132	210.400000
2979.624249	224.600000
2980.874641	206.200000
2982.127888	182.400000
2983.376358	241.000000
2984.627683	231.000000
2985.875758	213.000000
2987.123636	205.000000
2988.371318	200.000000
2989.618802	222.600000
2990.864565	215.600000
2992.110132	210.200000
2993.357026	206.200000
2994.600676	191.800000
2995.845654	222.800000
2997.087388	195.400000
2998.331974	228.600000
2999.574841	206.800000
3000.814467	209.000000
3002.056943	226.000000
3003.296179	190.600000
3004.536743	184.800000
3005.775590	203.000000
3007.014243	210.200000
3008.251180	224.600000
3009.489445	209.600000
3010.725994	219.600000
3011.962350	214.800000
3013.198512	205.400000
3014.432960	211.600000
3015.667216	204.200000
3016.901278	196.000000
3018.133627	234.600000
3019.364266	192.600000
3020.597750	202.800000
3021.829522	200.200000
3023.059584	235.400000
3024.289453	219.200000
3025.517613	202.800000
3026.747100	190.400000
3027.974877	212.800000
3029.202463	208.200000
3030.431375	218.600000
3031.655546	205.800000
3032.882559	235.800000
3034.106348	201.200000
3035.331464	243.800000
3036.554873	167.400000
3037.778092	207.400000
3038.999606	203.800000
3040.223961	225.800000
3041.443581	213.600000
3042.664527	210.200000
3043.885284	215.000000
3045.104337	237.400000
3046.324715	198.000000
3047.541877	208.800000
3048.760365	190.400000
3049.977150	211.200000
3051.193748	236.400000
3052.410157	225.400000
3053.623353	196.600000
3054.839388	209.200000
3056.052210	181.000000
3057.267869	207.000000
3058.478805	221.400000
3059.691066	226.800000
3060.903140	199.800000
3062.115028	237.200000
3063.325219	183.600000
3064.535223	218.200000
3065.745041	197.200000
3066.953163	229.600000
3068.161100	195.800000
3069.367341	213.200000
3070.574907	221.600000
3071.780778	215.300000
3072.986465	209.000000
3074.191966	189.400000
3075.395774	201.400000
3076.600906	204.400000
3077.804345	207.600000
3079.006093	222.200000
3080.207656	198.600000
3081.409036	194.000000
3082.610232	170.000000
3083.809738	173.200000
3085.009061	235.000000
3086.209707	218.600000
3087.408663	207.200000
3088.604425	217.400000
3089.803016	182.000000
3090.998413	206.400000
3092.195133	199.600000
3093.388661	192.000000
3094.585017	219.200000
3095.779686	209.200000
3096.971165	199.200000
3098.166976	216.000000
3099.358092	200.200000
3100.550532	230.200000
3101.739784	177.600000
3102.931861	206.200000
3104.122255	188.600000
3105.309463	209.600000
3106.497993	199.000000
3107.687846	201.600000
3108.874515	218.200000
3110.061003	213.800000
3111.247313	205.400000
3112.434944	255.800000
3113.619393	179.600000
3114.802163	192.000000
3115.987755	210.600000
3117.171668	185.600000
3118.353902	200.600000
3119.535957	207.200000
3120.717834	190.000000
3121.899533	205.600000
3123.079555	181.600000
3124.257900	214.000000
3125.439065	191.000000
3126.617055	209.000000
3127.794868	205.200000
3128.972504	208.000000
3130.148466	182.800000
3131.324250	228.400000
3132.501356	203.200000
3133.676787	210.200000
3134.850545	199.400000
3136.022630	226.400000
3137.196037	192.600000
3138.369267	229.600000
3139.540826	192.600000
3140.713705	205.800000
3141.883417	190.000000
3143.054450	212.800000
3144.223813	213.800000
3145.391505	191.400000
3146.562013	189.200000
3147.727863	212.600000
3148.898021	184.800000
3150.063523	192.000000
3151.228850	191.800000
3152.394004	203.800000
3153.558985	211.600000
3154.725285	203.800000
3155.886933	199.000000
3157.049900	199.200000
3158.212695	238.400000
3159.375317	192.600000
3160.536273	223.000000
3161.697058	203.200000
3162.857670	187.200000
3164.016618	214.600000
3165.175395	198.600000
3166.333999	196.000000
3167.492432	201.600000
3168.650694	209.000000
3169.807293	180.000000
3170.962231	211.400000
3172.118488	184.800000
3173.273084	198.800000
3174.427510	187.800000
3175.580276	188.400000
3176.732871	201.200000
3177.885297	192.600000
3179.037553	192.000000
3180.189638	201.200000
3181.338577	195.600000
3182.490324	221.600000
3183.640412	182.600000
3184.788844	206.400000
3185.937106	169.400000
3187.085200	212.000000
3188.233125	201.000000
3189.379394	242.800000
3190.525495	207.800000
3191.669942	200.400000
3192.814221	171.400000
3193.958332	216.800000
3195.103760	204.000000
3196.246050	231.000000
3197.388173	200.200000
3198.530128	229.200000
3199.671916	199.200000
3200.813537	210.800000
3201.952023	222.400000
3203.091826	226.400000
3204.232946	213.600000
3205.370933	210.400000
3206.507270	202.600000
3207.643441	212.000000
3208.780929	218.200000
3209.916769	181.600000
3211.053926	225.400000
3212.186470	213.000000
3213.323296	198.600000
3214.455510	190.600000
3215.589041	222.200000
3216.722408	203.000000
3217.852647	193.000000
3218.985684	225.400000
3220.115595	185.200000
3221.246822	214.800000
3222.374925	219.800000
3223.505824	180.400000
3224.635079	180.200000
3225.762691	187.400000
3226.887180	194.800000
3228.015945	220.000000
3229.141588	192.800000
3230.267069	202.000000
3231.390907	178.600000
3232.517541	197.200000
3233.639577	203.000000
3234.762929	182.200000
3235.886119	194.600000
3237.009146	186.400000
3238.130535	178.600000
3239.251761	198.000000
3240.371350	188.000000
3241.490777	182.400000
3242.608566	179.600000
3243.729147	181.200000
3244.846615	181.000000
3245.963922	229.400000
3247.081069	200.800000
3248.196579	208.800000
3249.313405	200.600000
3250.427121	190.800000
3251.543626	175.600000
3252.658497	215.000000
3253.770258	148.600000
3254.881861	160.000000
3255.994779	183.800000
3257.107537	216.000000
3258.217189	192.600000
3259.328156	220.800000
3260.438964	181.800000
3261.548140	223.000000
3262.655685	167.200000
3263.764545	215.400000
3264.873247	190.000000
3265.978846	178.200000
3267.085759	205.200000
3268.191043	200.000000
3269.297641	160.200000
3270.401139	183.000000
3271.505952	191.200000
3272.610606	200.600000
3273.712163	172.800000
3274.813563	203.200000
3275.916277	179.200000
3277.018835	194.400000
3278.118296	181.000000
3279.220541	202.000000
3280.319690	166.000000
3281.417215	208.600000
3282.514584	202.600000
3283.614735	202.200000
3284.711794	181.800000
3285.808697	179.200000
3286.905445	201.600000
3287.997634	228.400000
3289.094073	195.400000
3290.188889	224.600000
3291.283551	180.600000
3292.376591	183.200000
3293.469476	188.000000
3294.560741	169.400000
3295.653319	209.600000
3296.744277	172.000000
3297.833615	189.400000
3298.922800	192.800000
3300.013298	155.000000
3301.100711	206.000000
3302.187971	192.600000
3303.276544	184.000000
3304.364964	206.800000
3305.448838	231.200000
3306.536953	183.000000
3307.621986	203.800000
3308.705404	178.000000
3309.790134	175.400000
3310.873248	162.200000
3311.957675	184.600000
3313.039023	185.400000
3314.121683	194.200000
3315.202729	151.000000
3316.283624	187.800000
3317.362905	193.800000
3318.442036	207.200000
3319.522479	161.600000
3320.599847	192.800000
3321.678527	184.000000
3322.755595	194.400000
3323.832514	171.400000
3324.907821	201.000000
3325.982979	179.000000
3327.059448	217.000000
3328.132847	203.200000
3329.206096	206.200000
3330.280657	168.200000
3331.353609	166.200000
3332.424952	182.400000
3333.497606	191.600000
3334.567194	181.200000
3335.638092	215.800000
3336.707383	174.400000
3337.777985	172.400000
3338.846980	203.600000
3339.914369	193.200000
3340.980153	165.200000
3342.050163	220.200000
3343.117110	194.200000
3344.180995	200.600000
3345.247647	192.000000
3346.312696	196.400000
3347.376141	173.400000
3348.439440	191.400000
3349.502592	172.600000
3350.565598	187.200000
3351.628458	185.800000
3352.689716	209.600000
3353.747917	198.000000
3354.810338	166.200000
3355.869704	183.800000
3356.928924	201.400000
3357.989453	164.200000
3359.045474	197.800000
3360.104258	175.600000
3361.158535	226.000000
3362.215576	197.800000
3363.271018	167.600000
3364.327770	210.400000
3365.382923	195.000000
3366.436479	185.400000
3367.488439	216.600000
3368.543160	180.200000
3369.594832	194.600000
3370.646361	171.600000
3371.699198	218.600000
3372.748988	205.400000
3373.800087	176.600000
3374.848140	172.400000
3375.898952	167.400000
3376.946720	187.200000
3377.994344	197.200000
3379.041827	183.800000
3380.087717	183.000000
3381.134915	178.400000
3382.179071	217.200000
3383.225985	197.000000
3384.271307	210.600000
3385.313588	213.600000
3386.355728	208.000000
3387.399177	176.000000
3388.442484	187.200000
3389.484201	204.200000
3390.525778	182.200000
3391.567213	206.800000
3392.607060	211.200000
3393.645318	171.400000
3394.684884	184.400000
3395.724310	164.800000
3396.762148	169.400000
3397.798399	199.400000
3398.834511	201.200000
3399.871930	191.000000
3400.906316	196.000000
3401.942009	192.800000
3402.977563	193.000000
3404.010086	189.600000
3405.045362	218.200000
3406.077607	194.800000
3407.109714	198.200000
3408.140237	173.200000
3409.172067	196.600000
3410.203759	204.600000
3411.232423	210.400000
3412.260950	179.800000
3413.290783	215.400000
3414.320479	178.800000
3415.347149	206.600000
3416.375125	198.800000
3417.400078	168.000000
3418.427780	216.000000
3419.452459	225.200000
3420.478444	178.200000
3421.502849	200.400000
3422.527118	157.600000
3423.549808	195.800000
3424.572362	189.600000
3425.596222	191.200000
3426.617062	188.000000
3427.637766	201.000000
3428.659777	168.600000
3429.678769	201.000000
3430.697625	146.600000
3431.717788	165.800000
3432.734934	192.800000
