-165.528079	0.400000
-162.858479	-16.000000
-160.191814	9.000000
-157.525901	6.000000
-154.862921	1.200000
-152.198510	0.800000
-149.537030	12.400000
-146.874121	3.400000
-144.216318	3.400000
-141.557086	-14.200000
-138.898602	5.600000
-136.243043	-10.200000
-133.586054	-9.000000
-130.934164	9.800000
-128.280844	0.000000
-125.630443	6.000000
-122.978614	-22.000000
-120.331874	9.000000
-117.683706	4.600000
-115.036280	-23.200000
-112.391769	13.200000
-109.745828	-8.000000
-107.104969	-3.000000
-104.462681	8.800000
-101.823302	6.400000
-99.182493	6.400000
-96.542425	24.400000
-93.907430	17.400000
-91.271005	19.600000
-88.637483	-7.800000
-86.002533	10.200000
-83.372648	-1.000000
-80.739171	11.800000
-78.110756	8.000000
-75.483075	-4.800000
-72.853965	22.600000
-70.229912	-9.400000
-67.602270	12.200000
-64.979681	-23.400000
-62.357824	1.000000
-59.736697	38.200000
-57.116301	53.200000
-54.498792	143.800000
-51.879855	422.200000
-49.263803	1021.400000
-46.648480	1522.400000
-44.033885	912.800000
-41.422171	173.400000
-38.809029	-3.200000
-36.200921	28.200000
-33.589231	-2.400000
-30.982572	11.400000
-28.374485	27.200000
-25.767122	25.000000
-23.164784	14.400000
-20.558868	-11.800000
-17.957974	-3.800000
-15.355652	9.600000
-12.758347	9.000000
-10.157467	-4.200000
-7.561602	4.800000
-4.964308	-6.800000
-2.367734	15.200000
0.223831	-19.000000
2.816824	-1.600000
5.406956	17.600000
7.998515	3.000000
10.587216	-5.400000
13.177343	19.800000
15.762471	11.600000
18.349027	-17.600000
20.934869	18.600000
23.517857	-18.600000
26.102271	0.600000
28.679557	24.600000
31.260409	-13.000000
33.838412	-12.600000
36.415705	1.800000
38.994424	-5.600000
41.568161	22.800000
44.143326	13.600000
46.715647	12.000000
49.287260	-1.600000
51.856033	15.400000
54.426233	8.600000
56.993594	7.800000
59.562382	0.000000
62.128333	3.600000
64.691449	-0.400000
67.258121	27.400000
69.815572	-2.600000
72.378708	31.000000
74.936884	45.400000
77.498615	80.000000
80.055389	153.000000
82.613589	149.800000
85.166837	167.200000
87.719387	176.400000
90.275487	224.400000
92.826639	270.800000
95.377094	365.800000
97.926851	459.400000
100.473789	486.200000
103.020032	522.000000
105.567700	498.000000
108.114672	514.200000
110.656709	510.600000
113.198052	514.600000
115.738702	491.000000
118.280778	509.000000
120.820042	571.400000
123.356498	641.000000
125.892262	663.000000
128.429452	698.600000
130.965951	809.600000
133.499644	890.200000
136.030533	1041.200000
138.560735	1184.400000
141.092361	1426.800000
143.621186	1726.200000
146.147212	2056.200000
148.672552	2520.400000
151.199317	2932.600000
153.723286	3435.400000
156.246570	3905.000000
158.769169	4107.000000
161.288975	3969.800000
163.808098	3752.800000
166.326538	3241.800000
168.846402	2848.600000
171.359265	2325.600000
173.875659	1951.600000
176.391371	1629.600000
178.902193	1400.400000
181.414440	1232.400000
183.923905	1127.200000
186.432690	922.600000
188.940798	881.200000
191.450330	796.600000
193.954981	725.600000
196.458956	726.600000
198.964355	701.000000
201.464879	610.200000
203.968926	619.200000
206.466003	602.400000
208.966603	676.400000
211.464431	702.200000
213.961586	786.000000
216.458068	996.000000
218.949687	986.200000
221.444826	772.400000
223.937198	569.600000
226.428900	480.000000
228.917839	407.000000
231.408201	397.800000
233.895802	382.000000
236.380643	380.800000
238.868999	348.400000
241.350415	339.800000
243.835345	322.000000
246.315430	351.800000
248.799027	316.200000
251.277781	317.800000
253.757958	315.600000
256.235384	321.800000
258.712146	316.200000
261.188244	317.400000
263.661595	336.200000
266.134283	308.600000
268.606310	340.400000
271.077676	340.400000
273.546297	314.800000
276.014260	337.600000
278.483644	345.200000
280.948206	313.000000
283.416272	342.600000
285.879518	306.200000
288.342106	315.200000
290.804038	289.800000
293.265313	341.400000
295.723854	362.200000
298.183817	397.200000
300.641047	432.200000
303.097623	579.200000
305.553545	927.800000
308.006737	1231.800000
310.461352	1123.200000
312.911165	729.200000
315.364474	487.000000
317.812984	413.600000
320.260844	383.200000
322.710126	381.000000
325.154614	367.000000
327.600524	330.200000
330.045784	354.400000
332.488326	372.800000
334.930220	356.200000
337.371467	350.600000
339.809998	375.800000
342.249951	385.800000
344.687190	444.000000
347.121717	484.000000
349.559732	479.400000
351.992970	459.800000
354.427629	468.400000
356.857516	508.600000
359.290888	424.600000
361.719490	389.200000
364.147450	380.800000
366.576832	385.400000
369.001448	397.600000
371.427486	384.400000
373.852883	377.200000
376.277640	375.200000
378.697639	427.400000
381.119058	441.800000
383.537782	453.400000
385.957926	469.400000
388.375375	502.400000
390.794244	507.000000
393.210420	624.600000
395.621848	677.200000
398.036753	815.800000
400.448969	979.000000
402.860550	1249.200000
405.271497	1705.800000
407.679758	2586.400000
410.087386	4126.400000
412.494382	6856.000000
414.900747	10519.600000
417.304429	13180.600000
419.707481	11861.200000
422.109903	8152.800000
424.511695	4971.600000
426.910809	3241.400000
429.311343	2268.800000
431.711248	1781.800000
434.106431	1463.000000
436.505080	1232.200000
438.899009	1070.800000
441.292311	947.000000
443.684989	898.400000
446.077041	824.000000
448.470511	750.400000
450.859269	672.800000
453.245361	669.600000
455.632873	664.800000
458.019762	721.600000
460.403987	841.400000
462.789630	836.800000
465.172612	746.200000
467.552933	592.800000
469.934673	561.800000
472.313754	508.400000
474.694254	488.000000
477.072096	467.400000
479.447282	459.400000
481.821852	452.800000
484.197839	451.400000
486.571174	450.000000
488.945926	438.600000
491.315993	434.600000
493.685444	422.400000
496.056313	390.600000
498.422501	402.400000
500.790108	392.200000
503.155070	403.200000
505.519418	379.600000
507.883153	372.400000
510.248306	378.400000
512.608787	385.000000
514.970686	379.200000
517.329944	385.400000
519.686564	362.200000
522.046630	365.800000
524.400004	367.400000
526.756823	351.200000
529.111007	369.600000
531.464582	331.800000
533.817550	334.000000
536.167885	363.200000
538.519638	354.200000
540.864714	363.800000
543.215254	384.000000
545.559120	382.400000
547.908448	379.600000
550.253127	364.600000
552.595182	384.600000
554.938654	357.800000
557.279503	344.400000
559.619750	337.000000
561.957376	354.400000
564.298437	351.800000
566.634860	340.800000
568.972700	338.600000
571.307923	322.800000
573.640530	322.200000
575.974553	365.600000
578.305962	341.000000
580.636773	358.600000
582.966987	331.600000
585.296602	331.600000
587.621594	325.200000
589.952028	350.400000
592.277841	349.000000
594.601046	329.600000
596.925668	309.800000
599.247684	350.600000
601.569106	356.600000
603.887926	352.200000
606.208161	345.000000
608.527803	329.000000
610.844844	325.600000
613.161293	327.800000
615.475144	319.800000
617.790411	299.800000
620.103081	317.800000
622.417166	330.200000
624.726651	345.400000
627.037552	330.600000
629.345860	326.600000
631.653580	339.200000
633.962714	337.200000
636.267256	331.400000
638.571212	351.000000
640.874582	320.800000
643.179366	345.000000
645.479563	393.600000
647.781176	369.800000
650.082203	424.000000
652.378649	412.200000
654.676510	356.400000
656.973787	362.400000
659.270481	349.200000
661.562599	329.400000
663.858128	305.200000
666.149083	333.200000
668.441453	331.400000
670.731248	355.200000
673.020462	326.000000
675.309097	366.800000
677.595159	325.200000
679.882636	314.000000
682.167541	349.800000
684.451869	339.000000
686.733628	325.600000
689.016801	304.200000
691.299397	339.200000
693.577437	312.000000
695.856892	332.600000
698.135770	337.000000
700.414074	321.800000
702.687828	327.800000
704.962995	337.000000
707.237589	334.800000
709.509624	357.400000
711.783072	335.800000
714.053962	330.800000
716.322296	308.800000
718.592043	328.800000
720.859236	321.200000
723.125858	342.400000
725.391910	358.600000
727.655411	321.600000
729.920325	349.600000
732.184669	360.600000
734.444484	351.400000
736.705711	328.800000
738.966371	378.400000
741.224485	389.800000
743.480054	389.600000
745.739014	368.000000
747.991475	411.800000
750.249302	402.600000
752.502611	424.800000
754.753380	494.400000
757.005561	593.800000
759.255203	696.400000
761.506258	774.000000
763.752801	724.400000
766.000756	626.600000
768.246177	470.600000
770.493009	404.800000
772.739280	430.400000
774.981046	397.400000
777.226196	370.800000
779.464873	386.000000
781.706932	400.000000
783.944493	371.000000
786.183466	391.600000
788.419912	372.600000
790.657769	372.400000
792.893101	400.800000
795.125910	358.000000
797.360130	348.400000
799.591827	369.400000
801.822970	354.000000
804.053558	393.400000
806.283592	336.800000
808.513072	352.400000
810.738070	351.600000
812.966443	364.200000
815.190336	368.600000
817.415641	366.600000
819.636470	360.800000
821.860671	355.800000
824.080399	338.000000
826.301537	336.400000
828.522125	345.600000
830.740204	354.600000
832.959692	353.800000
835.174714	349.200000
837.389188	353.000000
839.603115	352.200000
841.816495	352.800000
844.029327	351.400000
846.241613	323.600000
848.451396	360.200000
850.660634	367.200000
852.869327	346.600000
855.075520	330.600000
857.283124	375.600000
859.488229	373.000000
861.692791	313.400000
863.894858	362.200000
866.098334	325.800000
868.299316	363.800000
870.499756	369.600000
872.701605	362.600000
874.897063	349.200000
877.095880	354.600000
879.290258	354.200000
881.487994	335.800000
883.681294	350.800000
885.876003	344.000000
888.068226	365.200000
890.259910	335.200000
892.451057	343.600000
894.639721	341.000000
896.827849	319.800000
899.013496	338.200000
901.202495	339.000000
903.387071	366.800000
905.571112	336.400000
907.758503	322.400000
909.937590	333.200000
912.120028	338.600000
914.301932	348.000000
916.481361	347.200000
918.658318	339.800000
920.836683	373.600000
923.016455	318.200000
925.189878	367.000000
927.366647	348.800000
929.539009	330.200000
931.712779	325.800000
933.882145	333.400000
936.054855	351.400000
938.225100	332.400000
940.394815	337.200000
942.564003	361.400000
944.728793	306.600000
946.896924	337.000000
949.060660	354.400000
951.225804	345.800000
953.388488	365.800000
955.550647	340.600000
957.710349	337.200000
959.869526	345.800000
962.030110	321.200000
964.188239	369.600000
966.345845	350.000000
968.502927	314.800000
970.659485	312.200000
972.811664	336.400000
974.965250	332.400000
977.118314	348.400000
979.268929	358.000000
981.420951	319.000000
983.568599	369.600000
985.719579	363.400000
987.866188	325.400000
990.012278	337.600000
992.157850	347.800000
994.304827	341.400000
996.445515	350.600000
998.589533	367.200000
1000.731110	366.000000
1002.872171	367.800000
1005.014636	355.400000
1007.150821	393.200000
1009.290333	355.000000
1011.425490	373.600000
1013.563971	374.200000
1015.698098	375.200000
1017.831712	399.000000
1019.966731	361.200000
1022.097400	420.400000
1024.229474	424.600000
1026.359119	429.600000
1028.488252	489.000000
1030.616873	570.800000
1032.744983	657.400000
1034.870667	695.200000
1036.995841	654.000000
1039.122419	524.800000
1041.244659	426.800000
1043.368304	406.600000
1045.487614	396.600000
1047.612153	376.200000
1049.730448	343.200000
1051.850147	335.000000
1053.967427	362.400000
1056.084200	350.800000
1058.200468	376.200000
1060.314319	367.000000
1062.429575	339.400000
1064.540507	364.600000
1066.654752	325.400000
1068.764676	349.200000
1070.876004	348.000000
1072.986827	339.200000
1075.093334	368.200000
1077.203150	344.200000
1079.308653	353.800000
1081.415558	351.400000
1083.516248	359.200000
1085.622150	335.400000
1087.723743	333.200000
1089.826739	340.200000
1091.929234	362.200000
1094.025522	337.000000
1096.127017	358.200000
1098.224210	346.000000
1100.320905	335.800000
1102.417101	352.400000
1104.512800	399.600000
1106.608000	387.400000
1108.700804	429.400000
1110.795011	466.800000
1112.883025	478.400000
1114.976239	483.000000
1117.063264	444.200000
1119.153588	397.400000
1121.239624	381.000000
1123.328959	378.600000
1125.412112	375.000000
1127.496667	347.200000
1129.582624	359.800000
1131.664299	340.800000
1133.747376	325.400000
1135.828066	360.600000
1137.908266	375.600000
1139.987974	342.200000
1142.067191	327.200000
1144.144026	356.600000
1146.218479	324.000000
1148.296225	343.000000
1150.369701	348.400000
1152.444577	368.800000
1154.515186	363.800000
1156.587196	340.800000
1158.656831	364.200000
1160.727865	359.600000
1162.798413	353.800000
1164.864699	361.800000
1166.932386	356.400000
1168.997701	385.200000
1171.064416	367.200000
1173.126875	371.800000
1175.192619	359.600000
1177.254109	343.000000
1179.317000	372.200000
1181.377523	382.000000
1183.437562	389.600000
1185.497118	370.000000
1187.554310	375.000000
1189.611020	356.600000
1191.665366	369.000000
1193.722994	342.200000
1195.778259	341.400000
1197.829283	354.800000
1199.881707	333.200000
1201.933651	333.200000
1203.983237	348.600000
1206.032344	350.200000
1208.080973	346.600000
1210.129122	351.200000
1212.176794	316.400000
1214.220235	334.600000
1216.266952	339.400000
1218.311315	331.400000
1220.355202	359.600000
1222.396737	320.600000
1224.435923	306.400000
1226.478382	310.800000
1228.516618	356.200000
1230.556253	344.600000
1232.595413	346.600000
1234.630354	305.000000
1236.666694	372.600000
1238.700690	329.200000
1240.736083	346.400000
1242.767264	317.800000
1244.799842	352.200000
1246.831949	342.600000
1248.861715	338.200000
1250.892878	344.200000
1252.919835	345.800000
1254.948189	343.000000
1256.972338	339.000000
1258.999753	331.200000
1261.022965	337.800000
1263.047575	313.800000
1265.069851	338.200000
1267.093524	315.600000
1269.114863	353.800000
1271.135736	319.600000
1273.156141	336.000000
1275.172353	335.000000
1277.189962	339.800000
1279.205243	317.200000
1281.223783	330.800000
1283.238134	320.200000
1285.250158	366.200000
1287.265441	367.200000
1289.276538	358.600000
1291.289032	323.400000
1293.297343	324.800000
1295.308909	325.200000
1297.314437	340.400000
1299.323220	341.600000
1301.327825	338.400000
1303.335684	309.800000
1305.343081	310.000000
1307.344447	326.400000
1309.347209	314.600000
1311.349512	333.800000
1313.351355	314.400000
1315.352738	317.800000
1317.351808	327.600000
1319.350419	308.800000
1321.348572	318.200000
1323.346266	299.600000
1325.339798	327.800000
1327.334725	305.200000
1329.329196	304.600000
1331.323210	308.000000
1333.314917	326.400000
1335.306168	332.800000
1337.295114	316.000000
1339.285456	315.400000
1341.275342	328.600000
1343.262924	336.800000
1345.250053	328.000000
1347.234880	325.800000
1349.221102	326.400000
1351.205023	323.600000
1353.188492	339.200000
1355.171509	307.400000
1357.152228	323.600000
1359.134341	318.000000
1361.114158	345.400000
1363.093523	298.800000
1365.068750	340.800000
1367.047215	333.600000
1369.023387	319.000000
1370.999110	316.200000
1372.974383	341.400000
1374.947365	305.400000
1376.919899	327.200000
1378.891985	308.600000
1380.863624	340.000000
1382.831134	317.800000
1384.803718	327.000000
1386.768496	316.000000
1388.738347	313.800000
1390.704074	310.400000
1392.671193	324.000000
1394.636029	300.400000
1396.596745	295.000000
1398.562529	334.600000
1400.522358	330.400000
1402.483581	314.800000
1404.446195	312.800000
1406.404695	312.800000
1408.362753	342.000000
1410.320369	303.400000
1412.277542	298.600000
1414.232440	317.400000
1416.188731	329.400000
1418.142747	334.800000
1420.096322	315.000000
1422.047625	350.000000
1424.000321	338.600000
1425.950744	321.000000
1427.900729	353.200000
1429.850275	316.400000
1431.797552	312.800000
1433.742561	308.200000
1435.688963	314.000000
1437.634927	307.000000
1439.580454	340.600000
1441.523715	308.600000
1443.466541	314.000000
1445.407103	307.400000
1447.349056	313.800000
1449.288747	296.400000
1451.228004	295.200000
1453.166825	292.200000
1455.103387	338.600000
1457.041340	324.600000
1458.977034	316.800000
1460.912295	315.400000
1462.845299	346.800000
1464.777872	332.200000
1466.710012	301.000000
1468.641720	314.800000
1470.571174	310.400000
1472.502019	323.000000
1474.432432	283.400000
1476.358773	327.000000
1478.286504	313.200000
1480.211986	311.400000
1482.137038	313.600000
1484.061661	319.400000
1485.985854	302.600000
1487.907801	308.800000
1489.831138	317.600000
1491.752228	299.200000
1493.671074	310.600000
1495.591310	329.600000
1497.509303	305.800000
1499.426869	313.000000
1501.342193	320.200000
1503.258907	315.200000
1505.171566	294.600000
1507.087429	325.000000
1509.001052	318.800000
1510.912437	294.000000
1512.825212	302.200000
1514.733937	311.600000
1516.644051	313.400000
1518.553742	316.200000
1520.463010	331.400000
1522.370044	316.000000
1524.274845	320.200000
1526.181035	303.800000
1528.084993	324.000000
1529.988530	324.000000
1531.891647	291.400000
1533.792534	317.000000
1535.694810	337.000000
1537.594858	302.000000
1539.496293	345.000000
1541.393695	320.000000
1543.290678	316.200000
1545.187243	314.600000
1547.085196	336.000000
1548.977313	314.800000
1550.872625	308.800000
1552.767519	341.800000
1554.660191	294.000000
1556.552446	333.600000
1558.442482	315.000000
1560.332102	340.400000
1562.221307	334.600000
1564.110097	323.400000
1565.996669	312.400000
1567.884629	317.600000
1569.768572	281.600000
1571.653902	291.800000
1573.538819	324.800000
1575.421522	300.200000
1577.305612	326.200000
1579.185690	321.400000
1581.067156	343.200000
1582.946411	297.400000
1584.827052	287.800000
1586.701889	284.400000
1588.581707	313.200000
1590.457521	298.600000
1592.332924	337.800000
1594.209713	293.400000
1596.080706	319.200000
1597.954880	324.400000
1599.825055	323.200000
1601.698411	342.000000
1603.569564	301.400000
1605.438516	299.200000
1607.308852	304.000000
1609.175196	305.000000
1611.042925	304.600000
1612.908455	313.400000
1614.775371	293.600000
1616.638298	301.800000
1618.502610	301.200000
1620.364726	269.400000
1622.226437	291.800000
1624.089534	266.400000
1625.950435	314.800000
1627.809144	310.400000
1629.667449	326.600000
1631.527138	295.600000
1633.381061	310.200000
1635.238157	276.200000
1637.094849	287.000000
1638.947566	289.800000
1640.803454	281.800000
1642.655368	286.000000
1644.506881	297.000000
1646.357993	290.400000
1648.208705	271.200000
1650.059015	292.400000
1651.907142	297.000000
1653.756653	299.400000
1655.600414	270.200000
1657.449126	262.400000
1659.292091	281.400000
1661.138223	299.000000
1662.980392	297.200000
1664.825727	294.800000
1666.665321	273.800000
1668.506299	293.800000
1670.348660	299.400000
1672.187065	275.600000
1674.026853	293.400000
1675.864465	284.000000
1677.701683	269.400000
1679.536727	284.800000
1681.373154	293.200000
1683.207409	261.800000
1685.041269	293.600000
1686.874735	273.000000
1688.704256	294.400000
1690.536935	270.200000
1692.365670	275.800000
1694.197562	272.600000
1696.025512	300.600000
1697.853071	299.800000
1699.680237	299.200000
1701.507012	262.000000
1703.333395	281.600000
1705.155842	278.600000
1706.981444	293.200000
1708.803111	289.000000
1710.626160	270.600000
1712.447047	274.200000
1714.267546	285.200000
1716.089425	264.600000
1717.905606	285.400000
1719.724938	271.400000
1721.540342	274.800000
1723.358898	293.600000
1725.173528	272.800000
1726.987771	291.400000
1728.801628	266.200000
1730.615098	278.200000
1732.426415	258.000000
1734.239112	250.600000
1736.051424	292.000000
1737.859817	266.000000
1739.669592	263.400000
1741.475452	252.600000
1743.284457	263.400000
1745.089549	291.400000
1746.896022	261.200000
1748.702111	284.200000
1750.504289	269.600000
1752.309612	282.600000
1754.111026	250.600000
1755.913820	263.600000
1757.712708	266.400000
1759.512977	264.600000
1761.312864	273.400000
1763.110609	276.200000
1764.907974	268.200000
1766.704959	258.600000
1768.501563	285.400000
1770.296028	283.400000
1772.091872	283.000000
1773.882061	275.600000
1775.677147	237.400000
1777.466581	278.000000
1779.259151	261.200000
1781.049586	262.200000
1782.837887	268.200000
1784.629323	261.200000
1786.415113	299.800000
1788.202283	252.800000
1789.987321	277.000000
1791.775493	288.600000
1793.559779	299.200000
1795.341935	296.000000
1797.125471	297.400000
1798.906878	264.800000
1800.689664	267.400000
1802.468569	274.600000
1804.248853	259.600000
1806.027012	267.600000
1807.806549	251.200000
1809.583961	252.400000
1811.359249	266.400000
1813.135915	281.800000
1814.910459	288.800000
1816.686381	279.400000
1818.456682	263.600000
1820.230111	257.600000
1822.001420	260.200000
1823.772358	276.000000
1825.544674	250.000000
1827.311376	253.400000
1829.081203	230.600000
1830.847167	260.800000
1832.616255	273.200000
1834.381481	260.200000
1836.146339	276.400000
1837.912574	255.600000
1839.674950	268.600000
1841.436959	288.400000
1843.198600	261.600000
1844.959875	263.400000
1846.720782	268.200000
1848.481323	283.200000
1850.239754	258.800000
1851.997819	257.400000
1853.753777	272.400000
1855.511111	252.600000
1857.268080	246.200000
1859.022942	262.000000
1860.775700	264.800000
1862.528093	251.600000
1864.281863	282.800000
1866.033529	260.800000
1867.783093	253.000000
1869.534032	246.800000
1871.284609	267.000000
1873.031346	260.000000
1874.779460	249.600000
1876.525474	252.000000
1878.272863	252.400000
1880.018155	255.200000
1881.761349	255.600000
1883.505918	264.400000
1885.248391	227.000000
1886.990505	226.000000
1888.732258	265.400000
1890.473651	291.200000
1892.212951	268.000000
1893.951892	287.000000
1895.690474	276.400000
1897.426965	271.600000
1899.163098	276.700000
1900.900605	281.800000
1902.634290	249.200000
1904.369350	272.400000
1906.102321	264.200000
1907.834936	265.600000
1909.567195	256.200000
1911.299097	267.400000
1913.028913	235.600000
1914.756644	265.400000
1916.485750	273.600000
1918.214500	258.000000
1919.941168	243.600000
1921.667481	268.000000
1923.395167	244.200000
1925.117317	247.600000
1926.842568	249.400000
1928.564012	255.000000
1930.288557	270.000000
1932.011021	252.000000
1933.729683	266.000000
1935.451443	245.200000
1937.169401	260.400000
1938.888732	243.800000
1940.604264	265.600000
1942.324616	240.600000
1944.041170	260.400000
1945.753927	278.800000
1947.469780	253.000000
1949.183561	237.200000
1950.896992	274.400000
1952.608352	273.200000
1954.321084	265.000000
1956.030026	268.400000
1957.742060	231.800000
1959.448585	273.200000
1961.158203	249.800000
1962.865754	268.800000
1964.572956	274.600000
1966.278093	290.000000
1967.982884	247.600000
1969.689046	292.200000
1971.391426	258.200000
1973.095177	267.600000
1974.796866	275.200000
1976.498210	227.000000
1978.199208	250.000000
1979.898145	241.000000
1981.598454	247.400000
1983.294987	256.400000
1984.992893	250.400000
1986.688739	246.800000
1988.387671	285.600000
1990.081117	281.400000
1991.775934	216.600000
1993.470409	253.200000
1995.161115	249.800000
1996.854905	277.000000
1998.544928	251.000000
2000.236322	240.200000
2001.925663	251.400000
2003.616374	216.200000
2005.303322	262.800000
2006.989931	257.600000
2008.677909	252.600000
2010.362128	227.600000
2012.047718	285.000000
2013.732968	248.800000
2015.416169	214.000000
2017.100741	253.400000
2018.779849	250.800000
2020.463744	222.800000
2022.142177	264.200000
2023.823688	227.400000
2025.501447	254.000000
2027.178870	247.400000
2028.857662	255.000000
2030.534412	216.000000
2032.209120	272.400000
2033.885197	254.000000
2035.559233	229.800000
2037.232935	242.400000
2038.906301	247.600000
2040.577628	238.400000
2042.248621	239.000000
2043.919280	233.000000
2045.589605	233.200000
2047.259596	241.200000
2048.927551	207.400000
2050.595173	262.600000
2052.260760	253.200000
2053.927716	246.800000
2055.592639	234.000000
2057.257230	234.000000
2058.919789	234.800000
2060.583716	230.600000
2062.245612	235.200000
2063.907178	218.000000
2065.568412	213.600000
2067.227618	251.200000
2068.886493	280.200000
2070.545039	237.000000
2072.203254	222.600000
2073.857747	231.200000
2075.515304	240.400000
2077.172531	257.800000
2078.826038	261.400000
2080.480912	231.000000
2082.132067	234.400000
2083.786285	236.600000
2085.436785	252.000000
2087.088653	239.800000
2088.735112	251.600000
2090.386326	252.200000
2092.033826	239.800000
2093.682693	250.800000
2095.329541	244.400000
2096.976064	249.000000
2098.622261	256.000000
2100.264750	251.600000
2101.910297	226.200000
2103.552137	230.800000
2105.197034	225.800000
2106.838225	249.800000
2108.479094	240.200000
2110.119638	249.800000
2111.758170	231.800000
2113.398068	222.000000
2115.034266	247.400000
2116.671830	266.200000
2118.309072	252.600000
2119.944304	219.600000
2121.579214	237.800000
2123.213803	232.200000
2124.848071	222.200000
2126.478645	239.800000
2128.112271	238.800000
2129.742205	241.200000
2131.373504	253.000000
2133.002798	276.400000
2134.631773	245.600000
2136.260428	234.400000
2137.888764	214.800000
2139.515098	266.000000
2141.141113	247.000000
2142.765126	227.600000
2144.390505	248.600000
2146.013883	243.200000
2147.638626	260.400000
2149.259688	261.800000
2150.880433	230.400000
2152.502543	216.400000
2154.122655	233.800000
2155.740770	231.800000
2157.358570	232.000000
2158.976055	228.800000
2160.593224	247.400000
2162.210078	234.000000
2163.826616	227.400000
2165.441162	213.000000
2167.053715	212.400000
2168.667632	207.200000
2170.279558	224.000000
2171.892847	220.600000
2173.504146	247.200000
2175.113455	229.200000
2176.724128	210.200000
2178.332812	223.200000
2179.941183	217.400000
2181.547568	232.200000
2183.155315	220.000000
2184.761077	200.800000
2186.366527	211.600000
2187.969992	213.200000
2189.574820	258.800000
2191.177664	231.400000
2192.778525	226.800000
2194.380749	219.000000
2195.980991	198.000000
2197.582595	226.400000
2199.180546	239.400000
2200.779860	218.000000
2202.377194	212.800000
2203.974220	237.000000
2205.572608	199.800000
2207.167347	221.800000
2208.760109	225.600000
2210.354234	214.000000
2211.949720	242.800000
2213.541561	240.000000
2215.133096	219.800000
2216.725993	226.400000
2218.313580	220.000000
2219.905863	201.000000
2221.492840	211.800000
2223.082844	217.600000
2224.667544	219.200000
2226.256938	211.800000
2227.841030	224.800000
2229.426482	237.400000
2231.009966	225.400000
2232.596475	215.200000
2234.179351	211.200000
2235.761924	198.000000
2237.344193	228.400000
2238.922832	234.800000
2240.504496	227.800000
2242.082531	235.000000
2243.663589	207.800000
2245.241020	219.600000
2246.816488	231.400000
2248.394978	211.600000
2249.969844	216.200000
2251.544409	233.200000
2253.118673	219.600000
2254.692638	218.800000
2256.266301	201.800000
2257.839665	228.000000
2259.409410	204.200000
2260.978856	234.400000
2262.551320	220.800000
2264.118510	243.400000
2265.688718	200.400000
2267.255311	219.200000
2268.823264	225.400000
2270.389261	211.000000
2271.954961	217.200000
2273.520363	192.800000
2275.083812	204.600000
2276.648620	210.200000
2278.209820	207.400000
2279.774034	240.400000
2281.332986	241.600000
2282.894952	224.200000
2284.454968	228.000000
2286.014689	204.600000
2287.572460	224.400000
2289.129936	206.200000
2290.687118	214.600000
2292.242352	214.400000
2293.797293	220.200000
2295.351939	212.200000
2296.906292	234.000000
2298.460351	236.000000
2300.014117	198.400000
2301.565938	234.800000
2303.115817	180.800000
2304.668703	241.800000
2306.216346	209.200000
2307.766998	222.600000
2309.314058	213.600000
2310.862476	205.800000
2312.410603	201.400000
2313.955141	231.000000
2315.501037	195.000000
2317.044995	193.200000
2318.590309	208.800000
2320.132040	193.800000
2321.675127	205.800000
2323.216278	218.600000
2324.757140	194.400000
2326.297713	214.000000
2327.837997	203.200000
2329.377992	210.400000
2330.914409	225.200000
2332.453827	207.800000
2333.989667	189.000000
2335.526865	208.400000
2337.060487	209.600000
2338.597109	191.000000
2340.131801	203.200000
2341.664563	198.200000
2343.197038	207.400000
2344.727585	215.000000
2346.261130	184.400000
2347.789464	177.000000
2349.319154	190.000000
2350.848559	186.200000
2352.377679	187.400000
2353.906513	186.400000
2355.430143	212.200000
2356.958408	198.200000
2358.481471	201.400000
2360.009167	223.800000
2361.530024	221.000000
2363.055513	189.200000
2364.577443	210.800000
2366.100727	213.400000
2367.622091	205.800000
2369.141535	196.000000
2370.662334	202.600000
2372.181214	195.200000
2373.699813	192.400000
2375.216494	187.400000
2376.734529	204.400000
2378.252283	207.400000
2379.766485	215.000000
2381.280408	211.200000
2382.794050	203.800000
2384.309047	194.600000
2385.820495	173.200000
2387.333298	188.400000
2388.844187	198.400000
2390.354798	179.600000
2391.863497	188.200000
2393.375182	201.600000
2394.883324	180.800000
2396.391188	188.600000
2397.898774	222.600000
2399.402819	207.600000
2400.909849	188.600000
2402.414971	178.800000
2403.919816	202.800000
2405.422754	196.200000
2406.925416	194.800000
2408.427801	210.400000
2409.928281	196.400000
2411.430114	183.400000
2412.930042	197.200000
2414.429695	180.800000
2415.929073	187.600000
2417.426548	174.800000
2418.922121	180.800000
2420.420674	164.600000
2421.915699	193.000000
2423.412076	172.400000
2424.904927	207.000000
2426.399131	178.400000
2427.893061	174.800000
2429.383467	187.600000
2430.876851	182.600000
2432.368337	177.200000
2433.857926	191.600000
2435.347243	185.400000
2436.834664	195.200000
2438.325061	180.000000
2439.811940	189.600000
2441.300170	159.600000
2442.784883	207.800000
2444.269327	198.600000
2445.755121	198.800000
2447.239024	171.200000
2448.724277	184.600000
2450.204397	174.000000
2451.687490	193.200000
2453.168692	189.000000
2454.649625	199.000000
2456.128669	193.600000
2457.607444	182.400000
2459.085951	185.400000
2460.564190	224.800000
2462.042160	186.200000
2463.516625	187.400000
2464.994060	171.600000
2466.467991	198.000000
2467.943272	174.000000
2469.418286	204.800000
2470.889799	176.000000
2472.362663	205.000000
2473.833644	188.000000
2475.305975	182.200000
2476.773192	171.800000
2478.243376	184.400000
2479.711679	186.600000
2481.179717	183.600000
2482.647490	180.000000
2484.114998	175.600000
2485.582241	201.600000
2487.045992	169.800000
2488.511093	186.000000
2489.974317	180.600000
2491.438890	212.400000
2492.899975	189.600000
2494.362409	167.400000
2495.824580	192.400000
2497.283265	183.200000
2498.746521	198.600000
2500.204682	178.200000
2501.664191	186.400000
2503.118606	186.800000
2504.577592	180.200000
2506.034706	180.800000
2507.489948	189.000000
2508.944930	170.800000
2510.398043	157.600000
2511.852504	176.000000
2513.305095	169.400000
2514.757427	192.400000
2516.207892	168.600000
2517.661312	179.600000
2519.109650	174.600000
2520.560943	175.600000
2522.010371	177.000000
2523.456326	175.400000
2524.905236	181.600000
2526.350676	172.400000
2527.797463	187.600000
2529.242387	142.400000
2530.687054	160.000000
2532.133068	165.000000
2533.575616	185.600000
2535.019511	175.800000
2536.459941	174.400000
2537.901718	186.000000
2539.341636	164.200000
2540.782901	186.600000
2542.220704	204.000000
2543.661457	200.200000
2545.097148	169.400000
2546.535788	178.000000
2547.972570	150.600000
2549.407497	167.800000
2550.845371	189.400000
2552.278188	166.600000
2553.712352	149.400000
2555.144662	159.600000
2556.578318	190.400000
2558.010121	169.000000
2559.441670	174.200000
2560.872967	160.000000
2562.302411	190.400000
2563.731603	190.200000
2565.158945	188.800000
2566.587632	147.400000
2568.016068	151.400000
2569.441056	158.400000
2570.867391	188.800000
2572.291877	180.600000
2573.717709	161.200000
2575.140097	175.600000
2576.563831	184.400000
2577.985718	172.400000
2579.407356	177.600000
2580.827148	169.200000
2582.248286	185.400000
2583.669174	159.200000
2585.086623	172.400000
2586.507013	177.800000
2587.923965	177.400000
2589.340668	165.200000
2590.757123	170.600000
2592.173330	159.600000
2593.589289	175.000000
2595.003407	187.600000
2596.417277	154.000000
2597.829309	153.800000
2599.242684	191.200000
2600.652630	158.000000
2602.065512	154.600000
2603.474965	186.400000
2604.884172	186.400000
2606.291543	214.800000
2607.701848	170.600000
2609.110318	180.400000
2610.516952	185.600000
2611.923341	158.000000
2613.327896	159.400000
2614.733795	179.200000
2616.137861	162.400000
2617.541682	167.200000
2618.945259	155.800000
2620.347005	166.400000
2621.750094	160.800000
2623.149765	175.400000
2624.550780	170.200000
2625.948379	186.200000
2627.348907	200.400000
2628.746021	175.600000
2630.144478	166.800000
2631.541108	176.000000
2632.937495	164.400000
2634.333640	155.200000
2635.727959	144.000000
2637.123621	167.800000
2638.515874	152.600000
2639.909469	158.000000
2641.301240	173.600000
2642.694354	177.000000
2644.085644	161.400000
2645.475111	160.000000
2646.864338	159.600000
2648.253326	182.600000
2649.643655	171.400000
2651.029001	150.000000
2652.417270	167.200000
2653.803719	154.800000
2655.189929	172.200000
2656.575900	143.000000
2657.958473	139.400000
2659.342388	145.800000
2660.726065	163.400000
2662.109503	153.200000
2663.489546	178.400000
2664.870931	138.400000
2666.250501	161.600000
2667.631411	173.800000
2669.010507	176.200000
2670.387789	182.800000
2671.766412	149.800000
2673.143222	136.000000
2674.519795	144.200000
2675.896133	160.400000
2677.270660	153.800000
2678.646527	165.200000
2680.019007	151.400000
2681.394403	178.800000
2682.764839	167.000000
2684.136616	152.600000
2685.508158	180.200000
2686.877892	127.400000
2688.248967	171.400000
2689.618233	127.200000
2690.987266	134.800000
2692.354493	167.000000
2693.721486	161.400000
2695.088247	169.800000
2696.454776	152.400000
2697.819499	129.800000
2699.183990	145.000000
2700.548250	148.800000
2701.912277	128.800000
2703.276073	173.800000
2704.636495	167.800000
2705.999827	155.800000
2707.358217	152.600000
2708.719517	149.800000
2710.077447	150.200000
2711.438285	165.400000
2712.797324	155.800000
2714.152994	162.000000
2715.511572	147.000000
2716.866783	150.400000
2718.221765	129.600000
2719.574950	156.600000
2720.931042	119.400000
2722.283770	153.200000
2723.636270	157.400000
2724.988541	153.400000
2726.342150	137.000000
2727.692399	140.000000
2729.040853	164.800000
2730.392212	147.600000
2731.740213	141.400000
2733.089551	121.600000
2734.437097	143.000000
2735.784417	156.200000
2737.131510	129.600000
2738.476812	143.200000
2739.821887	172.000000
2741.166737	151.200000
2742.511361	127.200000
2743.852633	140.200000
2745.195243	154.800000
2746.537627	135.800000
2747.879786	142.800000
2749.218596	150.400000
2750.560306	156.600000
2751.898667	127.600000
2753.238366	148.400000
2754.576280	169.600000
2755.912409	131.800000
2757.248314	146.600000
2758.585557	151.800000
2759.921016	148.200000
2761.256252	177.800000
2762.589705	149.200000
2763.924495	152.200000
2765.255945	141.600000
2766.590290	161.200000
2767.919737	150.200000
2769.250520	150.600000
2770.581083	161.600000
2771.909866	151.200000
2773.239985	136.200000
2774.568326	165.200000
2775.896446	125.400000
2777.222788	123.000000
2778.550467	154.400000
2779.874812	141.200000
2781.200494	149.200000
2782.524400	169.200000
2783.848086	142.600000
2785.173109	156.200000
2786.494801	155.400000
2787.816275	147.400000
2789.137530	131.600000
2790.458566	132.000000
2791.777829	125.400000
2793.098428	145.600000
2794.417256	107.800000
2795.735865	141.600000
2797.052703	142.400000
2798.369324	140.200000
2799.685728	142.800000
2801.000362	152.200000
2802.316332	139.600000
2803.628981	163.200000
2804.942965	117.000000
2806.256733	140.800000
2807.570284	132.800000
2808.882069	125.400000
2810.192087	159.000000
2811.503440	151.600000
2812.811478	125.400000
2814.120850	139.400000
2815.430008	147.400000
2816.738950	150.400000
2818.046128	143.800000
2819.351544	122.200000
2820.658293	161.200000
2821.963281	129.600000
2823.268054	150.200000
2824.571067	125.400000
2825.876960	120.000000
2827.177999	128.400000
2828.480372	124.800000
2829.780985	142.600000
2831.082932	163.000000
2832.384665	111.600000
2833.683095	148.800000
2834.982858	132.800000
2836.280864	123.200000
2837.578658	118.800000
2838.874696	137.400000
2840.172067	142.000000
2841.467682	117.600000
2842.763086	133.600000
2844.058279	147.800000
2845.350175	146.200000
2846.644947	139.600000
2847.936422	121.200000
2849.229230	120.400000
2850.521828	138.200000
2851.811132	127.200000
2853.101768	154.600000
2854.390653	125.600000
2855.680870	119.400000
2856.967796	146.600000
2858.256054	153.400000
2859.542563	142.200000
2860.828863	137.600000
2862.114956	155.000000
2863.399300	115.400000
2864.686515	139.600000
2865.968904	148.000000
2867.252625	155.400000
2868.534600	137.600000
2869.816367	147.600000
2871.096390	132.600000
2872.379282	138.600000
2873.660429	133.000000
2874.938294	150.000000
2876.219028	159.000000
2877.496481	143.400000
2878.773728	127.000000
2880.049233	133.600000
2881.327606	124.600000
2882.601165	113.400000
2883.877591	137.800000
2885.152276	135.600000
2886.425220	156.200000
2887.699496	138.800000
2888.972032	124.200000
2890.244363	136.000000
2891.513422	137.200000
2892.785346	139.200000
2894.055532	113.400000
2895.325514	132.800000
2896.595293	119.200000
2897.863336	124.400000
2899.129642	144.400000
2900.395747	118.200000
2901.663181	133.400000
2902.928880	144.600000
2904.194378	130.000000
2905.459673	121.200000
2906.721703	136.200000
2907.985063	123.000000
2909.248222	143.600000
2910.509649	109.600000
2911.772405	100.200000
2913.033429	137.800000
2914.292723	98.800000
2915.551817	113.400000
2916.810710	158.600000
2918.069403	136.200000
2919.327896	146.800000
2920.584660	128.200000
2921.841224	122.200000
2923.096061	137.600000
2924.352226	110.000000
2925.605137	138.600000
2926.859377	136.800000
2928.113417	146.200000
2929.365732	139.000000
2930.617849	126.200000
2931.868241	125.400000
2933.121488	125.400000
2934.369958	120.000000
2935.621283	126.600000
2936.869358	110.800000
2938.117237	110.600000
2939.364918	124.000000
2940.612402	129.000000
2941.858165	119.200000
2943.103732	130.000000
2944.350626	107.600000
2945.594276	143.400000
2946.839254	133.000000
2948.080988	153.600000
2949.325574	142.000000
2950.568441	104.400000
2951.808067	131.800000
2953.050543	107.600000
2954.289779	104.800000
2955.530343	96.200000
2956.769190	105.200000
2958.007843	112.200000
2959.244780	148.400000
2960.483045	136.000000
2961.719594	105.800000
2962.955950	124.000000
2964.192112	124.600000
2965.426560	117.000000
2966.660816	139.400000
2967.894878	112.600000
2969.127227	138.200000
2970.357866	100.000000
2971.591350	116.200000
2972.823122	116.600000
2974.053184	93.400000
2975.283053	110.000000
2976.511213	144.200000
2977.740700	137.800000
2978.968477	111.000000
2980.196063	116.000000
2981.424975	124.800000
2982.649146	134.000000
2983.876159	117.200000
2985.099948	130.600000
2986.325064	93.000000
2987.548473	111.200000
2988.771692	129.200000
2989.993206	110.000000
2991.217561	123.800000
2992.437181	141.600000
2993.658127	109.800000
2994.878884	121.200000
2996.097937	115.200000
2997.318315	123.000000
2998.535477	108.000000
2999.753965	120.400000
3000.970750	143.000000
3002.187348	101.800000
3003.403757	115.600000
3004.616953	106.800000
3005.832988	101.400000
3007.045810	134.600000
3008.261469	109.000000
3009.472405	137.800000
3010.684666	118.400000
3011.896741	103.800000
3013.108628	119.800000
3014.318819	128.400000
3015.528823	124.600000
3016.738641	103.800000
3017.946763	143.000000
3019.154700	104.800000
3020.360941	99.400000
3021.568507	123.000000
3022.774378	128.500000
3023.980065	134.000000
3025.185566	110.000000
3026.389374	97.600000
3027.594506	114.800000
3028.797945	109.000000
3029.999693	125.200000
3031.201256	121.000000
3032.402636	125.200000
3033.603832	137.400000
3034.803338	95.000000
3036.002661	114.000000
3037.203307	93.400000
3038.402263	128.400000
3039.598025	124.000000
3040.796616	97.600000
3041.992013	119.600000
3043.188733	116.800000
3044.382261	101.800000
3045.578617	122.600000
3046.773286	120.400000
3047.964765	99.200000
3049.160576	97.200000
3050.351692	139.400000
3051.544132	113.400000
3052.733384	92.000000
3053.925461	104.400000
3055.115855	106.200000
3056.303063	114.800000
3057.491593	97.800000
3058.681446	119.800000
3059.868115	107.000000
3061.054603	101.200000
3062.240913	118.000000
3063.428544	98.000000
3064.612993	94.600000
3065.795763	78.800000
3066.981355	101.800000
3068.165268	96.800000
3069.347502	120.000000
3070.529557	107.000000
3071.711434	116.200000
3072.893133	96.800000
3074.073155	103.000000
3075.251500	121.800000
3076.432665	115.000000
3077.610655	107.000000
3078.788468	96.000000
3079.966104	95.400000
3081.142066	89.200000
3082.317850	117.600000
3083.494956	87.400000
3084.670387	99.600000
3085.844145	77.400000
3087.016230	127.400000
3088.189637	113.400000
3089.362867	111.000000
3090.534426	111.000000
3091.707305	113.200000
3092.877017	87.400000
3094.048050	83.000000
3095.217413	77.200000
3096.385105	126.000000
3097.555613	87.400000
3098.721463	123.600000
3099.891621	110.000000
3101.057123	103.600000
3102.222450	120.600000
3103.387604	106.400000
3104.552585	115.400000
3105.718885	96.400000
3106.880533	109.000000
3108.043500	94.000000
3109.206295	93.600000
3110.368917	98.800000
3111.529873	83.800000
3112.690658	96.800000
3113.851270	93.800000
3115.010218	88.400000
3116.168995	84.400000
3117.327599	84.200000
3118.486032	110.800000
3119.644294	91.200000
3120.800893	100.000000
3121.955831	111.800000
3123.112088	82.400000
3124.266684	90.800000
3125.421110	112.400000
3126.573876	93.800000
3127.726471	122.200000
3128.878897	69.200000
3130.031153	92.600000
3131.183238	95.400000
3132.332177	89.800000
3133.483924	109.000000
3134.634012	100.000000
3135.782444	84.600000
3136.930706	81.000000
3138.078800	97.200000
3139.226725	97.800000
3140.372994	99.000000
3141.519095	89.600000
3142.663542	78.000000
3143.807821	96.800000
3144.951932	82.800000
3146.097360	82.200000
3147.239650	96.600000
3148.381773	121.600000
3149.523728	103.600000
3150.665516	102.200000
3151.807137	81.400000
3152.945623	79.400000
3154.085426	89.600000
3155.226546	81.200000
3156.364533	85.200000
3157.500870	96.200000
3158.637041	86.800000
3159.774529	75.800000
3160.910369	102.800000
3162.047526	74.000000
3163.180070	96.400000
3164.316896	108.000000
3165.449110	100.800000
3166.582641	70.400000
3167.716008	104.600000
3168.846247	87.400000
3169.979284	102.000000
3171.109195	84.600000
3172.240422	96.200000
3173.368525	103.200000
3174.499424	82.600000
3175.628679	77.600000
3176.756291	95.800000
3177.880780	101.800000
3179.009545	89.800000
3180.135188	94.200000
3181.260669	90.600000
3182.384507	106.200000
3183.511141	100.000000
3184.633177	60.600000
3185.756529	119.000000
3186.879719	109.200000
3188.002746	89.800000
3189.124135	90.400000
3190.245361	73.200000
3191.364950	102.800000
3192.484377	104.600000
3193.602166	97.000000
3194.722747	68.000000
3195.840215	99.600000
3196.957522	56.400000
3198.074669	88.800000
3199.190179	107.600000
3200.307005	58.200000
3201.420721	101.800000
3202.537226	110.800000
3203.652097	74.200000
3204.763858	89.200000
3205.875461	87.600000
3206.988379	79.200000
3208.101137	73.400000
3209.210789	80.000000
3210.321756	64.000000
3211.432564	96.400000
3212.541740	88.400000
3213.649285	70.200000
3214.758145	98.800000
3215.866847	72.200000
3216.972446	104.200000
3218.079359	97.000000
3219.184643	105.600000
3220.291241	88.600000
3221.394739	72.600000
3222.499552	75.200000
3223.604206	98.800000
3224.705763	109.800000
3225.807163	102.600000
3226.909877	69.200000
3228.012435	92.000000
3229.111896	97.400000
3230.214141	98.000000
3231.313290	87.800000
3232.410815	70.200000
3233.508184	97.600000
3234.608335	106.400000
3235.705394	82.600000
3236.802297	94.000000
3237.899045	81.400000
3238.991235	72.000000
3240.087673	91.400000
3241.182489	79.600000
3242.277151	99.000000
3243.370191	73.800000
3244.463076	83.200000
3245.554341	83.200000
3246.646919	84.800000
3247.737877	80.600000
3248.827215	92.400000
3249.916400	75.000000
3251.006898	70.400000
3252.094311	81.400000
3253.181571	75.200000
3254.270144	77.600000
3255.358564	85.400000
3256.442438	99.600000
3257.530553	45.600000
3258.615586	72.600000
3259.699004	77.600000
3260.783734	89.600000
3261.866848	75.800000
3262.951275	69.800000
3264.032623	80.600000
3265.115283	96.600000
3266.196329	94.200000
3267.277224	86.000000
3268.356505	81.200000
3269.435636	103.000000
3270.516079	93.400000
3271.593447	84.200000
3272.672127	69.600000
3273.749195	95.800000
3274.826114	89.400000
3275.901421	67.800000
3276.976579	92.600000
3278.053048	106.000000
3279.126447	58.400000
3280.199696	72.000000
3281.274257	80.800000
3282.347209	65.600000
3283.418552	98.400000
3284.491206	106.000000
3285.560794	92.000000
3286.631692	73.800000
3287.700983	83.400000
3288.771585	80.000000
3289.840580	79.600000
3290.907969	90.600000
3291.973753	93.400000
3293.043763	106.800000
3294.110710	87.000000
3295.174595	64.600000
3296.241247	85.400000
3297.306296	67.200000
3298.369741	84.800000
3299.433040	91.400000
3300.496192	100.800000
3301.559198	81.000000
3302.622058	51.800000
3303.683316	83.000000
3304.741517	77.600000
3305.803938	75.600000
3306.863304	66.400000
3307.922524	60.800000
3308.983053	93.200000
3310.039074	89.800000
3311.097858	73.400000
3312.152135	84.000000
3313.209176	73.800000
3314.264618	84.400000
3315.321370	77.400000
3316.376523	74.400000
3317.430079	92.400000
3318.482039	69.600000
3319.536760	76.600000
3320.588432	78.600000
3321.639961	50.600000
3322.692798	92.400000
3323.742588	89.200000
3324.793687	77.400000
3325.841740	94.800000
3326.892552	80.200000
3327.940320	71.400000
3328.987944	103.400000
3330.035427	61.000000
3331.081317	90.400000
3332.128515	77.600000
3333.172671	87.800000
3334.219585	62.200000
3335.264907	90.400000
3336.307188	61.600000
3337.349329	65.800000
3338.392777	109.800000
3339.436084	69.000000
3340.477802	49.200000
3341.519378	103.800000
3342.560813	83.000000
3343.600660	81.400000
3344.638918	83.000000
3345.678484	60.600000
3346.717910	49.800000
3347.755748	86.400000
3348.791999	94.800000
3349.828111	82.200000
3350.865530	73.600000
3351.899916	69.000000
3352.935609	69.600000
3353.971163	72.200000
3355.003686	73.800000
3356.038962	71.200000
3357.071207	98.200000
3358.103314	87.200000
3359.133837	94.200000
3360.165667	72.400000
3361.197359	101.800000
3362.226023	82.200000
3363.254550	75.800000
3364.284383	59.600000
3365.314079	80.400000
3366.340749	88.600000
3367.368725	73.200000
3368.393678	71.600000
3369.421380	59.600000
3370.446059	73.000000
3371.472044	76.200000
3372.496449	70.400000
3373.520718	88.800000
3374.543408	71.400000
3375.565962	69.000000
3376.589822	83.800000
3377.610662	77.200000
3378.631366	70.800000
3379.653377	85.600000
3380.672369	81.000000
3381.691225	83.800000
3382.711388	41.000000
3383.728534	73.400000
