-118.059454	7.045055
-115.389854	10.975824
-112.723189	13.962937
-110.057276	16.081918
-107.394295	17.408292
-104.729885	18.017582
-102.068405	17.985315
-99.405496	16.360140
-96.747693	15.323776
-94.088461	14.487413
-91.429977	13.365734
-88.774417	14.923776
-86.117429	14.534965
-83.465539	13.641259
-80.812218	10.790210
-78.161818	10.007692
-75.509988	10.110490
-72.863249	9.863636
-70.215081	8.909790
-67.567655	7.423776
-64.923143	9.766434
-62.277203	13.200699
-59.636344	14.673427
-56.994056	16.479021
-54.354677	18.223077
-51.713868	16.899301
-49.073800	18.327972
-46.438804	17.446853
-43.802380	20.695105
-41.168858	20.180420
-38.533908	21.418881
-35.904023	23.193007
-33.270546	26.542657
-30.642131	29.481119
-28.014450	30.306294
-25.385340	21.166434
-22.761287	-33.023077
-20.133645	-196.234965
-17.511056	-644.460839
-14.889199	-1029.583916
-12.268072	397.762238
-9.647675	3207.304895
-7.030167	5572.144755
-4.411230	7244.570629
-1.795178	8211.895804
0.820145	8472.747552
3.434741	8029.358042
6.046454	6887.983916
8.659596	5083.246154
11.267704	2750.074126
13.879394	257.374825
16.486053	-1343.160140
19.094140	-942.974825
21.701503	-75.997203
24.303841	28.499301
26.909757	30.544755
29.510651	27.827972
32.112973	24.146853
34.710278	22.353147
37.311158	21.644755
39.907023	19.774126
42.504317	22.836364
45.100891	23.665734
47.692456	24.886014
50.285449	24.116084
52.875581	23.812587
55.467141	20.754545
58.055841	19.482517
60.645968	16.387413
63.231096	14.439161
65.817652	16.681818
68.403494	15.976224
70.986482	13.579720
73.570896	15.189510
76.148182	16.181818
78.729034	17.679720
81.307037	17.224476
83.884330	18.147552
86.463049	14.795804
89.036786	12.423776
91.611951	13.882517
94.184272	15.251748
96.755885	16.716783
99.324658	14.134965
101.894858	12.328671
104.462220	16.127273
107.031007	19.062937
109.596958	20.142657
112.160074	22.681119
114.726746	30.037762
117.284197	35.885315
119.847333	46.670629
122.405509	64.017483
124.967240	90.711888
127.524014	135.567133
130.082215	208.443357
132.635462	312.606993
135.188012	453.202098
137.744112	612.061538
140.295264	787.519580
142.845719	964.370629
145.395476	1125.087413
147.942414	1254.656643
150.488657	1348.490909
153.036325	1407.951748
155.583297	1431.406294
158.125334	1432.552448
160.666677	1423.623077
163.207327	1404.918182
165.749403	1391.995804
168.288667	1378.566434
170.825123	1377.232168
173.360887	1377.026573
175.898077	1377.192308
178.434576	1378.776923
180.968269	1384.481119
183.499158	1396.460140
186.029360	1402.641259
188.560986	1412.037762
191.089811	1416.502098
193.615837	1415.865734
196.141177	1418.045455
198.667942	1415.708392
201.191911	1405.513986
203.715195	1396.275524
206.237794	1383.092308
208.757600	1374.605594
211.276723	1372.963636
213.795163	1382.895105
216.315027	1395.184615
218.827890	1412.104895
221.344284	1430.488112
223.859996	1459.495804
226.370818	1483.108392
228.883065	1502.054545
231.392530	1510.474825
233.901316	1525.221678
236.409423	1530.690909
238.918955	1540.430070
241.423606	1545.467133
243.927581	1550.823776
246.432980	1547.356643
248.933504	1543.235664
251.437552	1539.901399
253.934628	1539.060839
256.435228	1534.774126
258.933056	1531.102797
261.430211	1525.432867
263.926693	1521.941958
266.418312	1518.518881
268.913451	1520.678322
271.405823	1524.788811
273.897525	1525.398601
276.386464	1523.099301
278.876827	1522.722378
281.364427	1527.788112
283.849268	1533.581818
286.337624	1546.145455
288.819040	1558.088112
291.303970	1579.446154
293.784055	1602.167832
296.267652	1625.884615
298.746406	1646.637762
301.226584	1662.965734
303.704009	1664.104196
306.180771	1658.532168
308.656870	1647.256643
311.130220	1645.331469
313.602908	1635.184615
316.074935	1626.654545
318.546301	1617.430769
321.014922	1613.835664
323.482885	1604.803497
325.952269	1589.609091
328.416831	1572.023776
330.884897	1556.043357
333.348143	1537.824476
335.810731	1522.698601
338.272663	1511.984615
340.733938	1504.034266
343.192479	1487.944755
345.652442	1471.006993
348.109672	1448.079720
350.566248	1428.746154
353.022170	1408.027972
355.475362	1390.811888
357.929977	1377.202797
360.379790	1368.486014
362.833099	1359.549650
365.281610	1349.132168
367.729469	1335.716783
370.178751	1313.755944
372.623239	1292.415385
375.069149	1277.473427
377.514409	1257.986713
379.956951	1245.725175
382.398845	1239.683217
384.840092	1236.814685
387.278623	1235.963636
389.718576	1241.358741
392.155815	1242.095105
394.590342	1243.295105
397.028357	1243.241958
399.461595	1240.755245
401.896254	1239.049650
404.326141	1242.379021
406.759513	1240.760839
409.188115	1241.929371
411.616075	1244.995105
414.045457	1242.934965
416.470073	1243.414685
418.896111	1239.939161
421.321508	1234.774825
423.746265	1225.904196
426.166264	1217.820280
428.587684	1208.556643
431.006407	1194.706294
433.426551	1181.223077
435.844000	1163.483916
438.262869	1146.190210
440.679045	1128.698601
443.090473	1111.146853
445.505379	1093.397902
447.917594	1078.093706
450.329175	1070.046853
452.740122	1061.134266
455.148383	1057.937762
457.556011	1058.440559
459.963007	1058.318881
462.369372	1060.993007
464.773054	1060.407692
467.176106	1067.087413
469.578528	1070.695105
471.980320	1073.692308
474.379435	1075.660839
476.779969	1077.822378
479.179874	1084.815385
481.575056	1094.742657
483.973705	1104.876224
486.367634	1123.569231
488.760937	1145.011189
491.153614	1172.216783
493.545666	1202.211189
495.939136	1254.359441
498.327894	1345.334965
500.713986	1541.262238
503.101498	1921.918182
505.488387	2639.361538
507.872612	3667.003497
510.258255	4879.013287
512.641237	6074.264336
515.021558	7086.102797
517.403298	7765.951748
519.782379	8038.982517
522.162879	7871.503497
524.540721	7308.361538
526.915908	6443.695105
529.290477	5442.411189
531.666464	4497.934266
534.039799	3790.867832
536.414551	3300.925175
538.784618	2972.468531
541.154069	2738.255944
543.524938	2550.206294
545.891127	2384.293706
548.258734	2241.415385
550.623695	2115.315385
552.988043	2015.133566
555.351778	1936.157343
557.716931	1869.019580
560.077412	1813.721678
562.439311	1755.874126
564.798569	1712.646853
567.155190	1673.780420
569.515255	1644.622378
571.868629	1607.789510
574.225448	1571.651049
576.579632	1537.841958
578.933208	1506.133566
581.286175	1481.016783
583.636510	1457.060839
585.988263	1432.851049
588.333339	1410.782517
590.683879	1381.580420
593.027745	1362.842657
595.377073	1344.018182
597.721752	1324.095105
600.063807	1301.724476
602.407279	1288.686713
604.748128	1296.726573
607.088375	1315.493007
609.426001	1346.526573
611.767062	1372.374126
614.103485	1397.628671
616.441325	1409.968531
618.776548	1410.234965
621.109155	1400.527273
623.443178	1373.914685
625.774587	1336.183916
628.105398	1294.787413
630.435612	1261.801399
632.765227	1243.190909
635.090220	1225.541958
637.420653	1217.306294
639.746466	1204.073427
642.069671	1198.960140
644.394293	1193.216783
646.716309	1184.106993
649.037731	1177.351049
651.356551	1169.393706
653.676786	1160.955245
655.996428	1157.348951
658.313469	1155.214685
660.629918	1153.083217
662.943769	1150.871329
665.259036	1153.676923
667.571706	1153.351049
669.885791	1162.693007
672.195276	1166.596503
674.506177	1167.255245
676.814485	1173.073427
679.122205	1170.686713
681.431339	1162.569231
683.735881	1150.370629
686.039837	1139.094406
688.343207	1120.212587
690.647991	1102.316084
692.948189	1084.029371
695.249801	1067.025175
697.550829	1052.402797
699.847274	1035.955944
702.145135	1027.185315
704.442412	1019.670629
706.739106	1009.481818
709.031224	1003.720280
711.326753	999.453846
713.617708	1002.304196
715.910078	1002.175524
718.199873	1008.348951
720.489087	1016.574126
722.777722	1024.845455
725.063784	1028.046853
727.351261	1032.167832
729.636166	1033.466434
731.920494	1033.393706
734.202253	1027.186713
736.485426	1021.470629
738.768022	1010.755245
741.046062	1001.809790
743.325517	991.997902
745.604395	983.987413
747.882699	979.103497
750.156453	978.120979
752.431620	974.446853
754.706214	970.649650
756.978249	968.678322
759.251697	967.388112
761.522587	966.615385
763.790921	968.195804
766.060668	965.336364
768.327861	967.834965
770.594483	966.752448
772.860535	971.271329
775.124036	978.955245
777.388950	987.060839
779.653294	991.763636
781.913109	992.827972
784.174336	995.820280
786.434996	992.925874
788.693110	993.348951
790.948679	990.940559
793.207639	987.731469
795.460100	987.605594
797.717927	983.370629
799.971236	984.542657
802.222005	983.823077
804.474186	981.518182
806.723828	983.835664
808.974883	985.144056
811.221426	979.533566
813.469381	977.079720
815.714802	977.895105
817.961634	973.784615
820.207905	972.358042
822.449671	967.828671
824.694821	955.255944
826.933498	949.032867
829.175557	942.402797
831.413118	937.958042
833.652091	940.626573
835.888537	948.370629
838.126394	947.277622
840.361726	958.179021
842.594535	964.064336
844.828755	966.385315
847.060452	974.509790
849.291595	977.241958
851.522183	970.113986
853.752217	963.838462
855.981697	964.094406
858.206695	963.554545
860.435068	964.888112
862.658961	965.413287
864.884266	961.644755
867.105095	959.051049
869.329296	953.331469
871.549024	955.196503
873.770162	957.440559
875.990750	959.362937
878.208829	957.659441
880.428317	960.893706
882.643339	979.004895
884.857814	985.822378
887.071740	991.031469
889.285120	991.537063
891.497952	992.507692
893.710238	988.970629
895.920021	980.897203
898.129259	974.979021
900.337952	969.265734
902.544146	965.588811
904.751749	965.540559
906.956854	970.275524
909.161416	985.681818
911.363483	994.216783
913.566959	1007.017483
915.767941	1022.940559
917.968381	1038.927972
920.170230	1065.744755
922.365688	1097.617483
924.564505	1143.238462
926.758883	1203.302098
928.956619	1272.980420
931.149919	1353.044755
933.344628	1442.281818
935.536851	1529.381119
937.728535	1602.518182
939.919682	1657.492308
942.108346	1691.750350
944.296474	1712.926573
946.482121	1728.174825
948.671120	1729.472727
950.855696	1727.308392
953.039737	1724.431469
955.227128	1725.293706
957.406215	1722.031469
959.588653	1727.435664
961.770557	1728.246853
963.949986	1724.137063
966.126943	1712.785315
968.305308	1702.206993
970.485080	1701.041958
972.658503	1704.862937
974.835272	1700.663636
977.007634	1696.585315
979.181404	1679.681818
981.350770	1654.683217
983.523480	1613.076224
985.693725	1566.441259
987.863441	1512.720979
990.032628	1445.858741
992.197418	1378.667133
994.365549	1317.465734
996.529286	1275.113986
998.694429	1239.000000
1000.857113	1201.526573
1003.019272	1183.011189
1005.178974	1167.738462
1007.338151	1150.530070
1009.498735	1143.474825
1011.656865	1140.683217
1013.814470	1134.998601
1015.971552	1125.192308
1018.128110	1117.377622
1020.280289	1097.659441
1022.433875	1088.621678
1024.586939	1077.961538
1026.737554	1073.891608
1028.889576	1073.356643
1031.037224	1067.303497
1033.188204	1054.095105
1035.334813	1054.434965
1037.480903	1046.946154
1039.626475	1035.100000
1041.773452	1029.877622
1043.914140	1020.179720
1046.058158	999.376224
1048.199735	1000.231469
1050.340796	1007.111189
1052.483261	1012.800000
1054.619447	1004.399301
1056.758958	1005.851049
1058.894115	1006.417483
1061.032596	997.230769
1063.166723	987.212587
1065.300337	987.343357
1067.435356	985.611888
1069.566025	981.689510
1071.698099	976.258042
1073.827744	988.074126
1075.956877	982.172727
1078.085498	974.564336
1080.213608	963.888811
1082.339292	969.439161
1084.464466	963.929371
1086.591044	949.851049
1088.713284	947.318182
1090.836929	945.545455
1092.956239	942.333566
1095.080779	936.611189
1097.199073	930.146853
1099.318772	927.689510
1101.436052	917.107692
1103.552826	912.314685
1105.669093	910.293007
1107.782944	915.235664
1109.898200	909.800699
1112.009132	910.644755
1114.123377	911.706993
1116.233301	908.190210
1118.344629	909.632168
1120.455452	904.838462
1122.561959	899.846853
1124.671776	906.742657
1126.777278	911.242657
1128.884183	907.375524
1130.984873	906.552448
1133.090775	895.899301
1135.192368	889.434266
1137.295364	884.472028
1139.397859	880.714685
1141.494147	868.951748
1143.595643	858.664336
1145.692835	851.913986
1147.789530	850.990210
1149.885726	862.641958
1151.981425	875.127972
1154.076625	882.479021
1156.169429	893.904196
1158.263636	910.565734
1160.351651	934.299301
1162.444864	948.176923
1164.531889	969.956643
1166.622213	974.067133
1168.708250	981.301399
1170.797584	985.078322
1172.880737	984.204196
1174.965292	991.613986
1177.051249	994.927273
1179.132924	991.913986
1181.216001	1000.083916
1183.296692	1009.181119
1185.376891	1014.924476
1187.456599	1013.476923
1189.535816	1022.252448
1191.612651	1021.785315
1193.687105	1025.157343
1195.764850	1025.657343
1197.838326	1021.367832
1199.913202	1027.807692
1201.983811	1027.030070
1204.055821	1027.690909
1206.125456	1032.168531
1208.196491	1030.281119
1210.267038	1027.484615
1212.333324	1019.146853
1214.401011	1011.462937
1216.466326	1007.330070
1218.533041	1005.248951
1220.595500	1011.838462
1222.661244	1010.983217
1224.722734	1017.839860
1226.785625	1028.243357
1228.846148	1035.930769
1230.906187	1039.886014
1232.965744	1051.495105
1235.022935	1057.974825
1237.079645	1064.968531
1239.133991	1075.186713
1241.191619	1088.164336
1243.246884	1105.325175
1245.297908	1121.993007
1247.350332	1129.093007
1249.402276	1145.825175
1251.451862	1160.544056
1253.500969	1168.964336
1255.549598	1175.294406
1257.597748	1195.176923
1259.645419	1205.474126
1261.688860	1219.621678
1263.735577	1238.174825
1265.779940	1256.939161
1267.823827	1279.281119
1269.865362	1300.343357
1271.904548	1320.698601
1273.947007	1339.719580
1275.985243	1361.314685
1278.024878	1379.774825
1280.064038	1391.874825
1282.098979	1401.258741
1284.135319	1408.639860
1286.169315	1417.491608
1288.204708	1425.116084
1290.235889	1437.614685
1292.268467	1454.826573
1294.300574	1472.379720
1296.330340	1483.027972
1298.361504	1495.539860
1300.388460	1508.351748
1302.416814	1511.722378
1304.440963	1511.846853
1306.468378	1514.633566
1308.491590	1518.799301
1310.516200	1528.846853
1312.538476	1542.320979
1314.562149	1560.720979
1316.583489	1586.881119
1318.604361	1608.320979
1320.624766	1618.023077
1322.640978	1624.181119
1324.658587	1621.703497
1326.673868	1611.061538
1328.692408	1585.066434
1330.706759	1566.144056
1332.718784	1539.341259
1334.734066	1523.967832
1336.745163	1509.995105
1338.757657	1495.353147
1340.765968	1480.858042
1342.777534	1468.913287
1344.783062	1441.619580
1346.791845	1426.049650
1348.796450	1408.322378
1350.804309	1380.193706
1352.811706	1355.265734
1354.813072	1349.646154
1356.815834	1340.926573
1358.818137	1341.220979
1360.819980	1343.000699
1362.821363	1338.932867
1364.820433	1332.685315
1366.819044	1332.628671
1368.817197	1326.031469
1370.814891	1322.771329
1372.808423	1310.745455
1374.803351	1294.198601
1376.797821	1287.499301
1378.791835	1278.237063
1380.783542	1258.700000
1382.774794	1243.403497
1384.763740	1225.922378
1386.754081	1200.937762
1388.743967	1178.113986
1390.731549	1160.902098
1392.718678	1143.940559
1394.703505	1131.281818
1396.689727	1122.227273
1398.673649	1113.017483
1400.657118	1112.125874
1402.640134	1108.979021
1404.620853	1099.139161
1406.602966	1101.754545
1408.582783	1098.767832
1410.562148	1093.504895
1412.537375	1087.035664
1414.515840	1084.148951
1416.492012	1081.225874
1418.467735	1076.943357
1420.443008	1070.532168
1422.415990	1067.595105
1424.388524	1063.936364
1426.360610	1060.341958
1428.332249	1050.724476
1430.299759	1053.809790
1432.272343	1052.648951
1434.237122	1049.644056
1436.206972	1052.128671
1438.172699	1057.218182
1440.139818	1059.417483
1442.104654	1062.191608
1444.065370	1070.982517
1446.031154	1081.718182
1447.990983	1087.093706
1449.952206	1099.705594
1451.914821	1110.034965
1453.873321	1124.051049
1455.831378	1128.763636
1457.788994	1134.393706
1459.746167	1143.830070
1461.701065	1150.434965
1463.657356	1151.450350
1465.611372	1150.675524
1467.564947	1147.809790
1469.516250	1136.604196
1471.468946	1129.769930
1473.419369	1125.332168
1475.369354	1115.526573
1477.318900	1107.354545
1479.266177	1098.818182
1481.211186	1094.723077
1483.157588	1094.776224
1485.103552	1090.685315
1487.049079	1086.951748
1488.992340	1084.672727
1490.935166	1082.770629
1492.875728	1081.095105
1494.817681	1088.213287
1496.757372	1085.609091
1498.696629	1082.781119
1500.635450	1085.488811
1502.572012	1083.958042
1504.509965	1086.777622
1506.445659	1087.183916
1508.380920	1088.062238
1510.313925	1095.675524
1512.246497	1098.250350
1514.178637	1105.877622
1516.110345	1112.667832
1518.039799	1122.644056
1519.970644	1128.681119
1521.901057	1132.513986
1523.827398	1141.792308
1525.755130	1145.939161
1527.680611	1156.977622
1529.605663	1161.665035
1531.530286	1172.170629
1533.454480	1176.061538
1535.376426	1181.098601
1537.299763	1195.613287
1539.220853	1203.807692
1541.139700	1225.006294
1543.059935	1248.504895
1544.977928	1269.628671
1546.895494	1296.409091
1548.810818	1319.696503
1550.727532	1343.783916
1552.640191	1361.402797
1554.556054	1384.144755
1556.469677	1401.780420
1558.381062	1427.044056
1560.293837	1455.448252
1562.202562	1493.645455
1564.112676	1549.765035
1566.022367	1624.956643
1567.931635	1722.063636
1569.838669	1845.059441
1571.743470	1987.474126
1573.649660	2135.750350
1575.553618	2293.502098
1577.457155	2440.302098
1579.360272	2562.123776
1581.261159	2641.052448
1583.163435	2658.179021
1585.063483	2617.751748
1586.964918	2529.170629
1588.862320	2413.110490
1590.759303	2273.082517
1592.655868	2141.611189
1594.553821	2021.211888
1596.445939	1920.611888
1598.341250	1849.873427
1600.236144	1808.592308
1602.128816	1784.841958
1604.021071	1766.884615
1605.911107	1743.311189
1607.800727	1725.872028
1609.689932	1697.990210
1611.578722	1671.241259
1613.465294	1629.711888
1615.353254	1592.187413
1617.237197	1547.137762
1619.122527	1503.854545
1621.007444	1454.938462
1622.890147	1409.769930
1624.774237	1357.809790
1626.654315	1308.068531
1628.535781	1270.597902
1630.415036	1234.104895
1632.295677	1202.437063
1634.170514	1173.573427
1636.050332	1144.362937
1637.926146	1120.617483
1639.801549	1102.072028
1641.678338	1092.384615
1643.549331	1086.656643
1645.423505	1075.248951
1647.293680	1065.674126
1649.167037	1054.813287
1651.038190	1043.793706
1652.907141	1028.527273
1654.777477	1018.101399
1656.643821	1002.997203
1658.511550	987.229371
1660.377080	974.584615
1662.243996	960.946853
1664.106923	954.271329
1665.971235	949.302098
1667.833351	939.980420
1669.695062	941.068531
1671.558159	939.809790
1673.419060	934.337762
1675.277769	931.365734
1677.136074	922.251049
1678.995764	918.660140
1680.849686	915.727972
1682.706782	914.690210
1684.563475	903.797203
1686.416191	896.974126
1688.272079	886.195804
1690.123993	874.953846
1691.975506	873.982517
1693.826618	864.401399
1695.677330	859.041958
1697.527641	849.856643
1699.375767	848.620979
1701.225278	853.709790
1703.069040	850.853147
1704.917751	847.265734
1706.760716	838.995804
1708.606848	834.671329
1710.449017	829.387413
1712.294352	817.177622
1714.133946	812.453846
1715.974924	813.313986
1717.817285	812.673427
1719.655690	817.133566
1721.495478	831.593007
1723.333091	834.211189
1725.170308	836.434965
1727.005352	846.394406
1728.841779	838.066434
1730.676034	830.306294
1732.509894	811.622378
1734.343360	787.264336
1736.172881	773.395804
1738.005560	765.524476
1739.834295	754.637762
1741.666187	761.395105
1743.494137	766.614685
1745.321696	766.160839
1747.148862	780.421678
1748.975637	794.967832
1750.802020	790.486713
1752.624467	787.058741
1754.450069	776.230070
1756.271736	772.160140
1758.094785	781.119580
1759.915672	787.812587
1761.736171	798.322378
1763.558051	802.284615
1765.374231	788.424476
1767.193563	781.998601
1769.008968	789.595105
1770.827523	792.309091
1772.642153	782.244755
1774.456396	779.765734
1776.270253	790.461538
1778.083723	804.215385
1779.895040	823.079720
1781.707737	833.169930
1783.520049	838.708392
1785.328443	833.181818
1787.138217	829.640559
1788.944077	834.168531
1790.753082	821.001399
1792.558174	808.886014
1794.364647	801.072028
1796.170736	798.087413
1797.972914	798.786713
1799.778237	792.918182
1801.579651	787.151049
1803.382445	773.523077
1805.181333	767.410490
1806.981602	764.058042
1808.781489	767.033566
1810.579234	768.046853
1812.376599	761.327273
1814.173584	774.997203
1815.970188	783.864336
1817.764653	793.286713
1819.560497	794.305594
1821.350686	800.346154
1823.145772	808.134965
1824.935206	808.193007
1826.727776	808.644056
1828.518211	806.679720
1830.306512	803.146853
1832.097948	804.497203
1833.883738	808.844755
1835.670908	811.599301
1837.455946	805.930070
1839.244118	807.390210
1841.028404	798.681818
1842.810560	799.922378
1844.594096	802.034965
1846.375503	801.086014
1848.158289	791.597203
1849.937194	791.243357
1851.717479	791.804895
1853.495637	795.931469
1855.275174	803.866434
1857.052586	804.078322
1858.827874	802.508392
1860.604540	804.217483
1862.379084	800.143357
1864.155006	799.757343
1865.925307	799.815385
1867.698736	797.410490
1869.470045	798.346853
1871.240983	808.258741
1873.013299	815.662937
1874.780001	819.286014
1876.549829	825.196503
1878.315793	824.594406
1880.084880	820.514685
1881.850106	816.231469
1883.614964	814.079720
1885.381199	806.871329
1887.143575	804.204895
1888.905584	801.191608
1890.667225	796.959441
1892.428500	793.942657
1894.189407	787.723776
1895.949948	779.508392
1897.708379	771.536364
1899.466444	763.409790
1901.222402	758.297203
1902.979736	753.970629
1904.736705	745.006294
1906.491567	741.162238
1908.244325	743.853846
1909.996718	736.323077
1911.750488	732.565734
1913.502154	729.459441
1915.251718	730.539161
1917.002657	738.594406
1918.753234	745.776923
1920.499971	749.377622
1922.248085	757.500699
1923.994099	762.184615
1925.741488	759.220979
1927.486780	761.944056
1929.229974	764.549650
1930.974543	761.084615
1932.717017	761.660839
1934.459130	753.087413
1936.200883	750.362238
1937.942276	748.207692
1939.681576	739.849650
1941.420517	735.758741
1943.159099	738.030769
1944.895590	739.395105
1946.631723	736.258741
1948.369230	734.621678
1950.102915	734.523077
1951.837975	727.552448
1953.570946	719.247552
1955.303561	707.637063
1957.035820	697.726573
1958.767722	690.895804
1960.497538	688.815385
1962.225269	694.459441
1963.954375	699.948252
1965.683126	712.465734
1967.409793	714.997203
1969.136106	718.109790
1970.863792	717.486014
1972.585942	715.540559
1974.311193	709.100699
1976.032637	703.250350
1977.757182	693.216084
1979.479646	682.938462
1981.198308	674.779021
1982.920068	672.018881
1984.638026	673.390210
1986.357357	682.813986
1988.072889	684.409790
1989.793241	691.365734
1991.509795	694.660140
1993.222552	700.581818
1994.938405	702.227972
1996.652186	711.791608
1998.365617	705.416084
2000.076977	704.898601
2001.789709	705.476224
2003.498651	708.248951
2005.210685	710.304196
2006.917211	712.044056
2008.626828	705.992308
2010.334379	699.818881
2012.041581	699.639860
2013.746718	699.344755
2015.451509	694.415385
2017.157671	699.990210
2018.860051	704.019580
2020.563802	717.699301
2022.265491	724.756643
2023.966835	732.552448
2025.667833	733.410490
2027.366770	734.161538
2029.067079	731.468531
2030.763613	725.496503
2032.461518	717.732168
2034.157364	712.720280
2035.856296	698.169930
2037.549742	694.410490
2039.244559	692.379720
2040.939034	688.670629
2042.629740	679.797203
2044.323530	675.359441
2046.013553	669.712587
2047.704947	672.489510
2049.394288	671.447552
2051.084999	669.383217
2052.771947	665.886014
2054.458556	666.383916
2056.146534	655.255245
2057.830753	650.479720
2059.516343	645.076923
2061.201593	639.097902
2062.884794	636.153147
2064.569366	634.867832
2066.248475	636.283916
2067.932369	642.116783
2069.610802	645.418182
2071.292313	653.167832
2072.970072	653.396503
2074.647495	652.748252
2076.326287	654.002098
2078.003037	654.465734
2079.677745	657.546154
2081.353822	657.834266
2083.027859	657.916084
2084.701560	659.808392
2086.374926	658.600000
2088.046253	661.459441
2089.717246	658.480420
2091.387905	656.732168
2093.058230	655.537762
2094.728221	661.174126
2096.396176	666.193706
2098.063798	667.842657
2099.729385	677.776923
2101.396341	677.971329
2103.061264	683.618182
2104.725855	687.467133
2106.388414	684.253846
2108.052341	681.938462
2109.714237	672.637762
2111.375803	663.282517
2113.037037	659.709790
2114.696243	659.383916
2116.355118	651.509790
2118.013664	649.311888
2119.671880	651.257343
2121.326372	652.446853
2122.983929	657.737762
2124.641157	659.744755
2126.294663	660.326573
2127.949537	661.962937
2129.600692	657.872727
2131.254910	653.195804
2132.905411	649.731469
2134.557278	650.714685
2136.203737	647.125874
2137.854951	646.643357
2139.502451	648.327972
2141.151318	647.802098
2142.798166	643.145455
2144.444689	644.054545
2146.090886	645.388811
2147.733375	649.465035
2149.378922	649.576923
2151.020762	653.105594
2152.665659	660.301399
2154.306850	672.407692
2155.947719	676.641259
2157.588263	679.703497
2159.226795	677.470629
2160.866693	670.795105
2162.502891	663.827972
2164.140455	664.169231
2165.777697	661.589510
2167.412929	661.693007
2169.047840	655.726573
2170.682428	654.717483
2172.316696	663.051748
2173.947270	666.289510
2175.580896	670.676224
2177.210830	673.179720
2178.842129	672.125874
2180.471423	676.037063
2182.100398	674.592308
2183.729053	679.480420
2185.357389	674.706993
2186.983723	669.355944
2188.609738	661.569231
2190.233751	659.076923
2191.859130	659.584615
2193.482508	651.340559
2195.107251	649.965035
2196.728313	647.103497
2198.349058	647.172028
2199.971168	650.372727
2201.591280	645.655944
2203.209395	647.281818
2204.827195	642.939161
2206.444680	645.953147
2208.061849	653.838462
2209.678703	659.148951
2211.295241	664.519580
2212.909787	663.053846
2214.522340	665.082517
2216.136257	668.566434
2217.748183	670.246154
2219.361472	672.807692
2220.972771	668.120280
2222.582080	664.418182
2224.192753	664.599301
2225.801437	667.644056
2227.409808	669.705594
2229.016193	674.069231
2230.623941	673.153846
2232.229702	666.465734
2233.835152	666.327972
2235.438617	659.379720
2237.043445	653.932867
2238.646289	652.091608
2240.247150	645.239161
2241.849374	638.097203
2243.449616	646.213986
2245.051220	648.507692
2246.649171	653.377622
2248.248485	663.834965
2249.845819	673.333566
2251.442845	683.695804
2253.041233	692.795105
2254.635972	691.906993
2256.228734	697.253147
2257.822859	703.402797
2259.418345	700.808392
2261.010186	691.925175
2262.601721	690.306993
2264.194618	684.506294
2265.782205	683.123776
2267.374488	683.079021
2268.961465	688.233566
2270.551469	690.195105
2272.136169	686.872727
2273.725563	681.646154
2275.309655	676.435664
2276.895107	668.901399
2278.478591	656.796503
2280.065100	637.072727
2281.647976	631.179720
2283.230549	627.420280
2284.812818	623.382517
2286.391457	618.380420
2287.973121	621.343357
2289.551156	624.837063
2291.132214	626.263636
2292.709645	617.184615
2294.285113	617.076224
2295.863603	614.208392
2297.438469	615.093007
2299.013034	610.732168
2300.587299	613.127273
2302.161263	608.213287
2303.734926	610.598601
2305.308290	614.844755
2306.878035	616.818881
2308.447481	616.944056
2310.019945	615.440559
2311.587135	608.425874
2313.157343	615.865035
2314.723936	611.053846
2316.291889	610.181818
2317.857886	613.206294
2319.423586	608.774126
2320.988988	610.730070
2322.552437	620.172727
2324.117245	628.672028
2325.678445	622.009790
2327.242659	621.139860
2328.801611	615.560140
2330.363578	601.486713
2331.923593	589.570629
2333.483314	576.509790
2335.041085	566.505594
2336.598561	567.035664
2338.155743	566.181818
2339.710977	575.060140
2341.265918	576.277622
2342.820564	584.597203
2344.374917	593.462937
2345.928977	602.902098
2347.482742	601.602098
2349.034564	599.804895
2350.584442	601.052448
2352.137328	608.889510
2353.684972	608.972028
2355.235623	607.177622
2356.782683	614.626573
2358.331101	607.432168
2359.879228	611.313287
2361.423766	615.123776
2362.969662	624.593007
2364.513620	621.173427
2366.058935	619.913287
2367.600665	618.776224
2369.143752	617.420280
2370.684903	616.446853
2372.225765	604.776923
2373.766338	595.607692
2375.306622	603.135664
2376.846617	597.005594
2378.383034	600.998601
2379.922452	593.467832
2381.458293	596.072028
2382.995490	595.978322
2384.529112	598.881818
2386.065734	611.174126
2387.600426	612.144755
2389.133188	616.927972
2390.665663	618.890909
2392.196210	615.553846
2393.729755	623.854545
2395.258089	617.224476
2396.787780	618.623776
2398.317184	618.669930
2399.846304	617.465035
2401.375139	629.209790
2402.898768	642.744755
2404.427033	661.171329
2405.950096	663.940559
2407.477792	660.953846
2408.998649	659.753147
2410.524139	652.656643
2412.046068	655.365734
2413.569353	641.491608
2415.090716	643.844056
2416.610160	639.488811
2418.130959	639.402797
2419.649840	645.372028
2421.168438	646.411189
2422.685119	649.781818
2424.203154	642.982517
2425.720908	635.902797
2427.235111	636.702797
2428.749033	637.905594
2430.262675	631.883916
2431.777672	627.478322
2433.289120	638.145455
2434.801923	647.594406
2436.312812	659.989510
2437.823423	662.015385
2439.332122	665.210490
2440.843807	674.006294
2442.351949	676.695105
2443.859813	693.623776
2445.367399	695.835664
2446.871444	714.590210
2448.378474	719.534266
2449.883597	727.292308
2451.388441	739.302797
2452.891379	753.701399
2454.394041	755.757343
2455.896426	750.296503
2457.396906	742.920979
2458.898739	742.872028
2460.398667	746.111189
2461.898320	747.593007
2463.397698	736.293007
2464.895173	743.684615
2466.390746	734.557343
2467.889299	726.966434
2469.384324	716.895804
2470.880701	708.377622
2472.373552	685.083217
2473.867756	676.439161
2475.361686	662.489510
2476.852092	667.325175
2478.345476	669.369231
2479.836962	672.573427
2481.326551	667.973427
2482.815868	674.539161
2484.303289	671.681818
2485.793686	671.150350
2487.280565	663.782517
2488.768795	653.093007
2490.253508	648.653147
2491.737952	648.618182
2493.223746	642.649650
2494.707649	649.053846
2496.192902	641.401399
2497.673022	651.240559
2499.156115	645.416084
2500.637317	640.783916
2502.118250	636.597203
2503.597294	633.824476
2505.076069	629.178322
2506.554576	622.911189
2508.032815	620.318881
2509.510785	607.874126
2510.985250	604.881119
2512.462685	599.104895
2513.936616	596.490210
2515.411897	604.455245
2516.886911	602.842657
2518.358425	599.537762
2519.831288	599.026573
2521.302269	599.353846
2522.774600	599.002098
2524.241817	597.378322
2525.712001	587.380420
2527.180304	584.779720
2528.648342	583.860140
2530.116115	574.418881
2531.583623	570.415385
2533.050866	568.691608
2534.514617	566.980420
2535.979718	571.558042
2537.442942	570.394406
2538.907516	569.148951
2540.368600	573.396503
2541.831034	582.946154
2543.293205	581.283217
2544.751890	586.696503
2546.215147	590.371329
2547.673307	589.775524
2549.132816	590.530769
2550.587231	599.381818
2552.046217	605.109790
2553.503331	614.831469
2554.958574	614.779021
2556.413555	621.143357
2557.866668	636.844755
2559.321129	645.500699
2560.773720	641.332168
2562.226052	650.990909
2563.676517	647.610490
2565.129937	642.753147
2566.578275	644.498601
2568.029569	644.986014
2569.478996	639.375524
2570.924951	639.929371
2572.373861	641.252448
2573.819301	647.006294
2575.266088	653.721678
2576.711013	653.881818
2578.155679	657.306294
2579.601693	674.232168
2581.044241	670.255245
2582.488136	677.737762
2583.928566	683.967832
2585.370343	685.032168
2586.810261	679.654545
2588.251526	684.517483
2589.689329	689.060839
2591.130082	681.689510
2592.565773	674.942657
2594.004413	661.767133
2595.441195	655.474825
2596.876122	655.730070
2598.313996	645.892308
2599.746813	642.248252
2601.180977	637.819580
2602.613287	642.419580
2604.046943	630.697203
2605.478746	634.488112
2606.910295	634.674825
2608.341592	631.369231
2609.771036	630.403497
2611.200228	628.309091
2612.627570	636.293706
2614.056257	637.431469
2615.484693	643.667133
2616.909681	654.091608
2618.336016	658.746154
2619.760502	672.606993
2621.186334	661.890210
2622.608722	665.118881
2624.032456	671.422378
2625.454343	677.117483
2626.875981	680.269231
2628.295773	689.867133
2629.716911	699.555944
2631.137799	709.492308
2632.555249	738.117483
2633.975638	756.216783
2635.392590	765.890909
2636.809293	784.324476
2638.225748	787.600699
2639.641955	792.449650
2641.057914	803.865035
2642.472032	810.211888
2643.885902	824.213986
2645.297934	845.216783
2646.711309	866.545455
2648.121255	894.428671
2649.534137	926.676923
2650.943590	952.088112
2652.352797	984.500699
2653.760168	1014.434266
2655.170473	1042.861538
2656.578943	1067.665035
2657.985577	1114.772727
2659.391966	1158.966434
2660.796521	1224.350350
2662.202420	1290.849650
2663.606486	1365.467133
2665.010307	1446.823077
2666.413884	1530.734266
2667.815630	1623.292308
2669.218719	1715.807692
2670.618390	1810.435664
2672.019405	1917.127972
2673.417004	2015.830769
2674.817533	2117.523776
2676.214646	2216.193706
2677.613103	2326.607692
2679.009733	2406.865035
2680.406120	2478.836364
2681.802265	2539.432168
2683.196585	2578.898601
2684.592246	2596.609091
2685.984499	2595.769231
2687.378094	2581.132168
2688.769865	2541.820979
2690.162979	2475.751049
2691.554269	2399.169231
2692.943736	2319.731469
2694.332963	2225.546853
2695.721951	2120.913287
2697.112280	2013.473427
2698.497626	1911.758042
2699.885895	1809.310490
2701.272344	1709.737762
2702.658554	1610.818881
2704.044525	1518.539161
2705.427098	1431.988811
2706.811013	1357.693706
2708.194690	1288.432867
2709.578128	1228.913287
2710.958172	1178.870629
2712.339556	1134.063636
2713.719126	1086.365035
2715.100036	1044.877622
2716.479132	1003.686713
2717.856414	964.469930
2719.235037	920.748951
2720.611847	892.637762
2721.988420	863.894406
2723.364758	843.085315
2724.739285	820.648951
2726.115152	805.365035
2727.487632	791.300000
2728.863028	772.204196
2730.233464	760.897902
2731.605241	752.939860
2732.976783	740.049650
2734.346517	731.179720
2735.717592	722.560140
2737.086858	725.989510
2738.455891	717.328671
2739.823118	713.881119
2741.190112	704.080420
2742.556872	693.623776
2743.923401	682.590210
2745.288124	667.276923
2746.652615	658.049650
2748.016875	647.955245
2749.380902	636.883916
2750.744698	631.394406
2752.105120	622.333566
2753.468452	617.395105
2754.826842	610.974825
2756.188142	595.133566
2757.546072	585.403497
2758.906910	570.678322
2760.265949	566.633566
2761.621619	557.265035
2762.980197	555.017483
2764.335408	547.574126
2765.690390	550.744755
2767.043576	551.772028
2768.399668	555.360140
2769.752395	557.340559
2771.104895	562.643357
2772.457166	556.696503
2773.810776	555.660140
2775.161024	543.909790
2776.509478	555.965734
2777.860838	560.269930
2779.208838	559.857343
2780.558176	566.764336
2781.905722	571.908392
2783.253042	570.214685
2784.600135	582.909091
2785.945437	585.709091
2787.290512	584.601399
2788.635362	582.744056
2789.979986	572.944755
2791.321258	564.492308
2792.663868	567.999301
2794.006252	562.459441
2795.348411	552.255944
2796.687221	554.402098
2798.028931	557.481119
2799.367293	557.791608
2800.706991	562.275524
2802.044905	570.320979
2803.381034	572.800699
2804.716939	572.680420
2806.054182	569.189510
2807.389641	572.751049
2808.724877	570.999301
2810.058330	566.565035
2811.393120	566.228671
2812.724570	573.981119
2814.058915	581.291608
2815.388362	582.891608
2816.719146	581.520979
2818.049708	589.400000
2819.378491	584.869231
2820.708610	580.366434
2822.036951	566.989510
2823.365071	562.400000
2824.691413	551.088112
2826.019092	543.888112
2827.343437	536.044056
2828.669119	541.062937
2829.993025	531.933566
2831.316712	532.578322
2832.641734	526.993706
2833.963426	523.293007
2835.284900	522.970629
2836.606155	516.996503
2837.927191	512.576224
2839.246454	515.418881
2840.567053	517.260839
2841.885881	520.735664
2843.204490	521.286014
2844.521328	530.426573
2845.837949	518.244755
2847.154353	515.905594
2848.468987	515.439161
2849.784957	507.393706
2851.097606	507.423077
2852.411590	512.820280
2853.725358	520.858741
2855.038909	517.741958
2856.350694	514.221678
2857.660712	520.426573
2858.972065	520.238462
2860.280103	523.419580
2861.589475	514.283217
2862.898633	510.418182
2864.207575	503.329371
2865.514753	497.197203
2866.820169	496.730769
2868.126919	498.445455
2869.431906	491.767832
2870.736680	489.167832
2872.039692	487.429371
2873.345585	492.361538
2874.646624	492.855944
2875.948997	495.004196
2877.249610	490.380420
2878.551557	481.286014
2879.853290	475.651748
2881.151720	475.932168
2882.451483	476.270629
2883.749489	478.965035
2885.047283	481.937063
2886.343321	486.461538
2887.640692	486.208392
2888.936307	489.964336
2890.231711	485.368531
2891.526904	479.785315
2892.818800	474.032867
2894.113572	461.793706
2895.405047	463.444056
2896.697855	458.055944
2897.990453	461.889510
2899.279757	465.016084
2900.570393	463.575524
2901.859278	464.725175
2903.149495	472.123077
2904.436421	472.373427
2905.724679	470.118182
2907.011188	478.434266
2908.297489	486.213986
2909.583581	486.308392
2910.867925	495.629371
2912.155140	502.151049
2913.437529	514.716783
2914.721250	520.498601
2916.003225	524.346853
2917.284992	522.095804
2918.565015	519.558741
2919.847907	509.810490
2921.129054	503.692308
2922.406919	497.188811
2923.687653	486.041958
2924.965106	471.079021
2926.242353	466.859441
2927.517858	465.262937
2928.796231	469.306993
2930.069790	468.223077
2931.346216	470.403497
2932.620901	467.895804
2933.893845	469.406993
2935.168121	471.106993
2936.440657	461.853147
2937.712988	464.767832
2938.982047	460.430070
2940.253971	465.608392
2941.524157	464.612587
2942.794139	469.291608
2944.063918	476.594406
2945.331961	473.462937
2946.598267	475.730070
2947.864372	472.297203
2949.131806	473.663636
2950.397506	475.372727
2951.663003	467.341958
2952.928298	466.925175
2954.190328	456.715385
2955.453688	457.373427
2956.716847	454.686713
2957.978274	456.426573
2959.241030	457.686014
2960.502054	456.141259
2961.761348	449.978322
2963.020442	440.268531
2964.279335	445.281818
2965.538028	435.246154
2966.796521	427.055944
2968.053285	422.830769
2969.309849	416.514685
2970.564686	415.784615
2971.820851	426.827972
2973.073762	431.675524
2974.328002	439.789510
2975.582043	447.565734
2976.834358	445.231469
2978.086474	447.592308
2979.336866	453.195804
2980.590113	451.029371
2981.838583	458.650350
2983.089908	459.195105
2984.337983	456.802098
2985.585862	450.530769
2986.833543	456.557343
2988.081027	448.330070
2989.326790	443.098601
2990.572357	440.632867
2991.819251	433.253846
2993.062901	435.618881
2994.307879	433.674126
2995.549613	436.087413
2996.794199	433.464336
2998.037066	434.170629
2999.276692	435.384615
3000.519168	428.667133
3001.758404	430.915385
3002.998968	427.318182
3004.237816	428.511189
3005.476468	428.791608
3006.713406	425.546154
3007.951670	431.441259
3009.188219	427.483217
3010.424575	428.755944
3011.660737	430.758741
3012.895185	433.451049
3014.129441	423.464336
3015.363503	417.606294
3016.595853	413.741259
3017.826491	416.395804
3019.059975	415.286014
3020.291747	413.141259
3021.521809	411.754545
3022.751679	418.611189
3023.979839	419.186713
3025.209325	425.040559
3026.437102	433.397902
3027.664688	431.864336
3028.893601	429.818881
3030.117771	430.786713
3031.344784	428.546154
3032.568573	433.937762
3033.793689	428.139860
3035.017098	423.468531
3036.240317	419.590909
3037.461831	420.286713
3038.686186	418.054545
3039.905806	420.451748
3041.126752	418.263636
3042.347509	412.474126
3043.566562	414.018881
3044.786940	412.180420
3046.004102	411.158042
3047.222590	405.110490
3048.439375	393.645455
3049.655973	388.070629
3050.872382	384.922378
3052.085579	390.381119
3053.301613	391.192308
3054.514435	393.410490
3055.730094	392.480420
3056.941030	392.516084
3058.153291	399.905594
3059.365366	394.879720
3060.577253	389.048252
3061.787444	380.516783
3062.997448	374.091259
3064.207266	368.379021
3065.415388	366.611538
3066.623325	369.630070
3067.829566	372.665385
3069.037132	374.548252
3070.243003	374.567483
3071.448690	373.367133
3072.654191	372.800350
3073.857999	365.600699
3075.063131	364.882168
3076.266570	358.590909
3077.468318	355.417832
3078.669881	347.924476
3079.871261	350.100699
3081.072457	343.299301
3082.271963	348.534266
3083.471286	348.011888
3084.671932	347.609790
3085.870888	344.595105
3087.066650	347.713986
3088.265241	348.278322
3089.460638	346.980420
3090.657358	347.284615
3091.850886	347.167133
3093.047242	342.020280
3094.241912	344.074825
3095.433391	338.604196
3096.629201	341.697902
3097.820318	345.718881
3099.012757	347.520280
3100.202009	347.728671
3101.394086	357.019580
3102.584480	360.225874
3103.771688	365.837762
3104.960219	374.865035
3106.150071	377.688811
3107.336740	380.842657
3108.523228	383.776224
3109.709538	385.880420
3110.897169	381.516084
3112.081618	380.369930
3113.264388	379.188811
3114.449980	370.481119
3115.633893	367.904196
3116.816127	361.251748
3117.998182	354.810490
3119.180059	354.782517
3120.361758	349.590210
3121.541780	345.567133
3122.720125	342.260839
3123.901290	336.502797
3125.079280	335.770629
3126.257094	340.125874
3127.434730	344.545455
3128.610691	348.617483
3129.786475	347.251748
3130.963581	345.056643
3132.139012	348.541259
3133.312770	352.413287
3134.484855	346.143357
3135.658262	341.116084
3136.831492	335.849650
3138.003051	335.344755
3139.175930	341.253846
3140.345642	346.907692
3141.516675	347.738462
3142.686038	357.500699
3143.853730	354.364336
3145.024238	354.200000
3146.190088	357.563636
3147.360246	350.439161
3148.525748	346.560839
3149.691075	342.972727
3150.856229	340.329371
3152.021210	343.651049
3153.187510	343.125175
3154.349158	346.932168
3155.512125	350.910490
3156.674920	357.848252
3157.837542	360.155944
3158.998499	355.283217
3160.159283	356.299301
3161.319895	352.020979
3162.478843	358.124476
3163.637620	353.661538
3164.796225	350.115385
3165.954657	344.989510
3167.112919	340.498601
3168.269518	343.676224
3169.424456	343.392308
3170.580713	344.679720
3171.735309	340.166434
3172.889735	333.638462
3174.042501	335.693706
3175.195096	344.599301
3176.347522	355.953147
3177.499778	355.905594
3178.651863	360.113287
3179.800803	362.984615
3180.952549	369.828671
3182.102637	373.027972
3183.251069	369.544056
3184.399331	365.353147
3185.547425	356.669231
3186.695350	353.169930
3187.841619	356.320979
3188.987720	363.289510
3190.132167	365.520979
3191.276446	366.781119
3192.420557	365.922378
3193.565985	362.409790
3194.708275	360.409790
3195.850398	349.083217
3196.992353	345.374126
3198.134141	332.462937
3199.275762	332.019580
3200.414248	326.192308
3201.554051	320.102098
3202.695172	317.382517
3203.833158	315.293007
3204.969495	316.035664
3206.105666	312.930070
3207.243154	319.370629
3208.378994	329.208392
3209.516151	328.213986
3210.648695	333.574126
3211.785521	332.350350
3212.917735	341.987413
3214.051266	337.220280
3215.184633	329.068531
3216.314872	329.906294
3217.447909	325.495804
3218.577820	325.937762
3219.709047	325.526573
3220.837150	335.229371
3221.968049	334.360140
3223.097304	329.085315
3224.224916	328.097203
3225.349405	333.116084
3226.478170	332.851748
3227.603813	330.202098
3228.729294	331.674126
3229.853133	335.430070
3230.979766	338.414685
3232.101802	349.852448
3233.225154	355.877622
3234.348344	371.383217
3235.471372	383.028671
3236.592760	387.799301
3237.713986	394.089510
3238.833575	391.416783
3239.953002	388.670629
3241.070791	387.948252
3242.191372	385.267133
3243.308840	374.951748
3244.426147	366.684615
3245.543294	370.534965
3246.658805	368.655944
3247.775630	370.568531
3248.889346	374.595105
3250.005851	367.031469
3251.120722	363.826573
3252.232484	354.541259
3253.344086	346.797203
3254.457004	336.059441
3255.569762	324.769231
3256.679414	307.904196
3257.790381	302.044755
3258.901189	306.083217
3260.010365	312.092308
3261.117911	312.074126
3262.226770	316.346853
3263.335472	321.954545
3264.441071	321.497902
3265.547984	323.551049
3266.653268	315.760839
3267.759866	307.818182
3268.863364	304.852448
3269.968177	298.024476
3271.072832	303.330769
3272.174388	303.490909
3273.275788	308.342657
3274.378502	307.108392
3275.481060	313.367133
3276.580521	315.034266
3277.682766	314.597902
3278.781915	318.818881
3279.879440	312.569231
3280.976809	303.768531
3282.076960	298.964336
3283.174019	291.943357
3284.270922	290.473427
3285.367670	283.258741
3286.459860	276.341958
3287.556298	276.918182
3288.651114	275.527273
3289.745776	275.093706
3290.838816	282.186713
3291.931701	278.255944
3293.022967	274.451049
3294.115544	273.122378
3295.206502	271.376923
3296.295840	273.879021
3297.385025	274.872028
3298.475523	271.841958
3299.562936	265.214685
3300.650196	274.810490
3301.738769	277.446154
3302.827190	286.387413
3303.911063	295.783916
3304.999178	298.006993
3306.084211	304.183217
3307.167629	305.562937
3308.252359	307.099301
3309.335473	299.297203
3310.419900	291.539860
3311.501248	284.974825
3312.583908	275.225175
3313.664954	275.856643
3314.745849	266.257343
3315.825130	263.616783
3316.904261	270.414685
3317.984704	271.229371
3319.062072	280.379720
3320.140752	281.373427
3321.217820	282.994406
3322.294739	281.926573
3323.370046	290.735664
3324.445204	290.702098
3325.521673	282.398601
3326.595072	275.672028
3327.668322	272.829371
3328.742882	271.847552
3329.815834	274.037762
3330.887177	271.878322
3331.959831	271.328671
3333.029419	269.239860
3334.100317	261.308392
3335.169608	258.678322
3336.240210	255.127972
3337.309205	252.095804
3338.376594	252.868531
3339.442378	264.341259
3340.512388	275.103497
3341.579335	277.148252
3342.643220	285.084615
3343.709873	287.872028
3344.774921	290.420979
3345.838366	291.058741
3346.901665	280.751049
3347.964817	277.655944
3349.027823	271.220280
3350.090683	276.837063
3351.151941	279.865734
3352.210142	286.362238
3353.272563	281.074825
3354.331929	281.548252
3355.391149	282.702098
3356.451679	274.898601
3357.507699	275.705594
3358.566483	271.881119
3359.620760	267.503497
3360.677801	265.148252
3361.733243	264.679720
3362.789995	265.674825
3363.845148	265.741958
3364.898704	270.986014
3365.950664	270.667832
3367.005385	276.642657
3368.057057	268.372028
3369.108586	262.066434
3370.161423	266.112587
3371.211213	268.654545
3372.262312	261.023077
3373.310365	262.722378
3374.361177	267.027972
3375.408945	270.119580
3376.456570	274.152448
3377.504052	281.118881
3378.549942	283.118881
3379.597140	278.204196
3380.641296	275.618881
3381.688210	267.447552
3382.733532	264.722378
3383.775813	256.939161
3384.817954	250.560839
3385.861402	256.186713
3386.904709	251.013287
3387.946427	253.650350
3388.988003	256.668531
3390.029438	260.153846
3391.069285	257.690909
3392.107543	259.608392
3393.147109	265.675524
3394.186535	261.868531
3395.224373	273.545455
3396.260624	273.541259
3397.296736	279.532867
3398.334155	280.972028
3399.368541	279.056643
3400.404234	277.699301
3401.439788	272.652448
3402.472311	269.937063
3403.507587	261.832867
3404.539832	263.433566
3405.571939	255.470629
3406.602462	249.786014
3407.634292	254.797203
3408.665984	248.689510
3409.694648	256.195804
3410.723175	261.376224
3411.753008	270.262238
3412.782704	269.663636
3413.809374	271.255944
3414.837351	284.976224
3415.862303	284.352448
3416.890005	284.453147
3417.914684	278.956643
3418.940669	277.054545
3419.965074	277.379021
3420.989343	272.170629
3422.012033	270.134965
3423.034587	265.611189
3424.058447	266.513986
3425.079287	263.811888
3426.099991	264.559441
3427.122002	264.548002
3428.140994	262.888412
3429.159850	258.691508
3430.180013	251.068132
3431.197159	239.129121
