-118.059454	21.539560
-115.389854	18.161538
-112.723189	15.370130
-110.057276	13.106593
-107.394295	11.312188
-104.729885	9.928172
-102.068405	8.895804
-99.405496	5.497902
-96.747693	8.697902
-94.088461	8.820280
-91.429977	10.320979
-88.774417	9.393706
-86.117429	9.637063
-83.465539	9.035664
-80.812218	8.459441
-78.161818	6.656643
-75.509988	6.296503
-72.863249	4.044755
-70.215081	4.456643
-67.567655	3.801399
-64.923143	7.420979
-62.277203	8.133566
-59.636344	10.659441
-56.994056	11.493007
-54.354677	13.939860
-51.713868	14.734266
-49.073800	14.935664
-46.438804	14.176224
-43.802380	11.351748
-41.168858	11.265734
-38.533908	11.171329
-35.904023	11.367832
-33.270546	10.769930
-30.642131	11.081818
-28.014450	13.590210
-25.385340	11.090909
-22.761287	-11.669930
-20.133645	-98.481119
-17.511056	-309.976923
-14.889199	-547.532168
-12.268072	186.076923
-9.647675	1572.956643
-7.030167	2726.349650
-4.411230	3540.560839
-1.795178	4012.638462
0.820145	4142.072028
3.434741	3928.725175
6.046454	3373.555944
8.659596	2488.400699
11.267704	1337.429371
13.879394	117.192308
16.486053	-693.198601
19.094140	-440.385315
21.701503	-26.295804
24.303841	18.597902
26.909757	16.229371
29.510651	16.643357
32.112973	15.395105
34.710278	16.155944
37.311158	15.609790
39.907023	13.562937
42.504317	14.052448
45.100891	16.128671
47.692456	16.772727
50.285449	15.625874
52.875581	11.679720
55.467141	10.258042
58.055841	6.312587
60.645968	6.733566
63.231096	7.541259
65.817652	11.041958
68.403494	10.119580
70.986482	10.369231
73.570896	10.132168
76.148182	11.076224
78.729034	9.958042
81.307037	8.379720
83.884330	5.955944
86.463049	5.926573
89.036786	3.423776
91.611951	5.304196
94.184272	6.644755
96.755885	10.213986
99.324658	11.069930
101.894858	12.475524
104.462220	12.518881
107.031007	13.660140
109.596958	13.904895
112.160074	16.220979
114.726746	17.846154
117.284197	20.354545
119.847333	24.494406
122.405509	30.762937
124.967240	41.492308
127.524014	64.883916
130.082215	100.793706
132.635462	154.009790
135.188012	228.244755
137.744112	319.026573
140.295264	415.327273
142.845719	518.596503
145.395476	613.646853
147.942414	690.169231
150.488657	748.101399
153.036325	779.899301
155.583297	794.481818
158.125334	792.155245
160.666677	779.579021
163.207327	765.633566
165.749403	757.313287
168.288667	752.689510
170.825123	752.040559
173.360887	758.494406
175.898077	763.262238
178.434576	767.060839
180.968269	772.343357
183.499158	778.460839
186.029360	786.583217
188.560986	785.921678
191.089811	784.402797
193.615837	780.859441
196.141177	779.977622
198.667942	776.639860
201.191911	765.069231
203.715195	758.243357
206.237794	753.054545
208.757600	753.382517
211.276723	754.473427
213.795163	760.713986
216.315027	770.397203
218.827890	783.769930
221.344284	798.436364
223.859996	816.683916
226.370818	834.876923
228.883065	847.439860
231.392530	853.877622
233.901316	865.839860
236.409423	870.587413
238.918955	873.216783
241.423606	871.460839
243.927581	869.094406
246.432980	864.500000
248.933504	864.516783
251.437552	864.394406
253.934628	865.053846
256.435228	863.626573
258.933056	861.076923
261.430211	858.534965
263.926693	855.640559
266.418312	851.484615
268.913451	849.649650
271.405823	846.918182
273.897525	850.699301
276.386464	850.775524
278.876827	853.257343
281.364427	860.670629
283.849268	860.922378
286.337624	865.954545
288.819040	871.339161
291.303970	882.863636
293.784055	895.866434
296.267652	908.959441
298.746406	919.283217
301.226584	924.782517
303.704009	930.640559
306.180771	926.133566
308.656870	920.587413
311.130220	916.480420
313.602908	909.960839
316.074935	906.657343
318.546301	905.253147
321.014922	905.748951
323.482885	906.567832
325.952269	903.506993
328.416831	895.189510
330.884897	887.448951
333.348143	880.399301
335.810731	871.807692
338.272663	864.699301
340.733938	856.999301
343.192479	852.713287
345.652442	844.478322
348.109672	840.134266
350.566248	830.639860
353.022170	822.137063
355.475362	809.296503
357.929977	798.353846
360.379790	791.601399
362.833099	784.783916
365.281610	777.948951
367.729469	769.086014
370.178751	756.827972
372.623239	750.308392
375.069149	743.480420
377.514409	740.935664
379.956951	736.049650
382.398845	731.689510
384.840092	731.111888
387.278623	730.384615
389.718576	729.166434
392.155815	728.563636
394.590342	730.069930
397.028357	728.084615
399.461595	726.054545
401.896254	728.550350
404.326141	732.115385
406.759513	740.289510
409.188115	746.902098
411.616075	754.193706
414.045457	757.415385
416.470073	756.035664
418.896111	752.469231
421.321508	748.666434
423.746265	736.656643
426.166264	724.583217
428.587684	709.837762
431.006407	702.862937
433.426551	693.275524
435.844000	691.238462
438.262869	689.762238
440.679045	691.979720
443.090473	688.716084
445.505379	689.121678
447.917594	684.050350
450.329175	682.451049
452.740122	674.246154
455.148383	673.582517
457.556011	670.243357
459.963007	673.874126
462.369372	673.270629
464.773054	679.758042
467.176106	685.496503
469.578528	692.856643
471.980320	697.395804
474.379435	700.206294
476.779969	699.612587
479.179874	707.936364
481.575056	709.423077
483.973705	720.669231
486.367634	724.397203
488.760937	734.944755
491.153614	744.180420
493.545666	754.895804
495.939136	778.315385
498.327894	819.739860
500.713986	906.757343
503.101498	1081.028671
505.488387	1407.586014
507.872612	1897.929371
510.258255	2473.830070
512.641237	3053.100699
515.021558	3530.443357
517.403298	3857.174825
519.782379	3985.661538
522.162879	3912.092308
524.540721	3649.313287
526.915908	3243.750350
529.290477	2766.404895
531.666464	2318.585315
534.039799	1979.360839
536.414551	1756.554545
538.784618	1600.771329
541.154069	1490.032168
543.524938	1391.711189
545.891127	1306.845455
548.258734	1231.314685
550.623695	1169.806993
552.988043	1115.611189
555.351778	1076.303497
557.716931	1040.948252
560.077412	1017.681119
562.439311	993.602797
564.798569	972.316084
567.155190	952.151748
569.515255	944.279021
571.868629	928.958042
574.225448	917.239161
576.579632	901.545455
578.933208	889.014685
581.286175	874.834266
583.636510	863.122378
585.988263	851.546154
588.333339	840.225175
590.683879	831.271329
593.027745	817.644755
595.377073	806.327273
597.721752	798.172028
600.063807	786.439161
602.407279	783.782517
604.748128	781.621678
607.088375	788.816783
609.426001	804.920280
611.767062	821.490909
614.103485	833.626573
616.441325	843.868531
618.776548	848.493007
621.109155	840.195105
623.443178	825.683916
625.774587	807.438462
628.105398	788.080420
630.435612	773.063636
632.765227	756.776923
635.090220	744.974126
637.420653	736.461538
639.746466	728.360140
642.069671	722.722378
644.394293	720.775524
646.716309	719.689510
649.037731	720.218182
651.356551	716.370629
653.676786	717.423077
655.996428	714.834266
658.313469	717.169231
660.629918	716.859441
662.943769	716.378322
665.259036	715.034965
667.571706	715.805594
669.885791	718.463636
672.195276	723.944755
674.506177	730.429371
676.814485	734.233566
679.122205	733.405594
681.431339	732.488811
683.735881	727.671329
686.039837	724.306294
688.343207	715.421678
690.647991	708.020979
692.948189	698.732867
695.249801	686.590909
697.550829	678.400699
699.847274	670.802098
702.145135	665.013287
704.442412	658.711189
706.739106	653.824476
709.031224	652.921678
711.326753	652.093706
713.617708	651.566434
715.910078	654.570629
718.199873	660.863636
720.489087	664.159441
722.777722	668.260839
725.063784	671.937063
727.351261	675.666434
729.636166	675.947552
731.920494	675.635664
734.202253	673.594406
736.485426	672.669930
738.768022	665.335664
741.046062	660.976224
743.325517	655.372028
745.604395	647.697902
747.882699	640.825874
750.156453	636.525175
752.431620	634.791608
754.706214	633.566434
756.978249	628.058741
759.251697	632.154545
761.522587	634.686014
763.790921	636.590909
766.060668	632.520280
768.327861	636.141958
770.594483	637.227972
772.860535	637.680420
775.124036	644.993706
777.388950	649.708392
779.653294	652.544056
781.913109	652.946154
784.174336	652.456643
786.434996	657.109790
788.693110	653.976923
790.948679	651.032168
793.207639	644.461538
795.460100	641.790210
797.717927	642.093007
799.971236	642.834266
802.222005	647.376224
804.474186	644.830070
806.723828	642.101399
808.974883	640.918182
811.221426	637.011888
813.469381	633.906993
815.714802	633.211888
817.961634	627.855944
820.207905	620.225874
822.449671	613.237063
824.694821	609.144056
826.933498	609.055245
829.175557	609.097203
831.413118	605.255944
833.652091	606.598601
835.888537	609.522378
838.126394	615.868531
840.361726	622.579720
842.594535	631.280420
844.828755	634.232867
847.060452	638.449650
849.291595	636.954545
851.522183	638.560839
853.752217	643.481119
855.981697	640.001399
858.206695	637.382517
860.435068	635.324476
862.658961	634.497902
864.884266	632.720280
867.105095	630.220280
869.329296	628.721678
871.549024	627.418182
873.770162	631.455944
875.990750	634.078322
878.208829	638.497902
880.428317	641.840559
882.643339	645.109790
884.857814	650.994406
887.071740	650.397203
889.285120	652.158741
891.497952	649.281119
893.710238	654.439860
895.920021	653.430769
898.129259	652.588811
900.337952	658.951748
902.544146	657.831469
904.751749	656.603497
906.956854	660.056643
909.161416	661.390210
911.363483	659.692308
913.566959	664.253846
915.767941	669.106993
917.968381	672.258741
920.170230	684.784615
922.365688	697.958741
924.564505	719.958042
926.758883	751.904895
928.956619	788.144056
931.149919	831.267832
933.344628	877.023776
935.536851	917.015385
937.728535	954.450350
939.919682	991.717483
942.108346	1015.087413
944.296474	1026.041259
946.482121	1035.169231
948.671120	1035.440559
950.855696	1029.120979
953.039737	1024.175524
955.227128	1017.759441
957.406215	1009.683217
959.588653	1000.083217
961.770557	991.689510
963.949986	988.108392
966.126943	986.436364
968.305308	987.232867
970.485080	990.718881
972.658503	997.163636
974.835272	994.472727
977.007634	993.920979
979.181404	990.045455
981.350770	974.081119
983.523480	950.239161
985.693725	926.845455
987.863441	896.566434
990.032628	864.179720
992.197418	831.010490
994.365549	799.758042
996.529286	776.183916
998.694429	755.804196
1000.857113	732.484615
1003.019272	721.509091
1005.178974	718.353846
1007.338151	711.450350
1009.498735	710.833566
1011.656865	714.344056
1013.814470	715.101399
1015.971552	712.620280
1018.128110	707.451049
1020.280289	700.447552
1022.433875	695.463636
1024.586939	688.088811
1026.737554	682.298601
1028.889576	687.600000
1031.037224	688.774126
1033.188204	675.854545
1035.334813	674.156643
1037.480903	672.002098
1039.626475	668.069930
1041.773452	663.309091
1043.914140	664.068531
1046.058158	666.839860
1048.199735	664.199301
1050.340796	669.379720
1052.483261	673.953846
1054.619447	671.830070
1056.758958	657.283916
1058.894115	643.386014
1061.032596	645.158741
1063.166723	640.725175
1065.300337	638.462238
1067.435356	636.088811
1069.566025	634.348252
1071.698099	630.714685
1073.827744	621.579720
1075.956877	622.251049
1078.085498	612.265734
1080.213608	601.072028
1082.339292	593.075524
1084.464466	596.123077
1086.591044	599.130070
1088.713284	595.686713
1090.836929	597.176923
1092.956239	592.811888
1095.080779	592.053846
1097.199073	594.059441
1099.318772	595.438462
1101.436052	596.718881
1103.552826	589.948951
1105.669093	586.530070
1107.782944	589.193007
1109.898200	593.094406
1112.009132	588.771329
1114.123377	582.865734
1116.233301	578.369930
1118.344629	574.051049
1120.455452	574.353846
1122.561959	579.007692
1124.671776	584.288112
1126.777278	587.732867
1128.884183	591.241259
1130.984873	594.675524
1133.090775	593.179720
1135.192368	593.170629
1137.295364	585.056643
1139.397859	575.355944
1141.494147	567.286014
1143.595643	559.535664
1145.692835	558.453147
1147.789530	558.688811
1149.885726	565.601399
1151.981425	576.844056
1154.076625	583.827972
1156.169429	587.806993
1158.263636	594.642657
1160.351651	606.993007
1162.444864	608.720280
1164.531889	612.339860
1166.622213	617.511888
1168.708250	613.464336
1170.797584	614.083217
1172.880737	615.885315
1174.965292	615.731469
1177.051249	617.972028
1179.132924	617.365734
1181.216001	622.974126
1183.296692	632.583916
1185.376891	645.457343
1187.456599	648.706993
1189.535816	652.939161
1191.612651	654.596503
1193.687105	650.718881
1195.764850	646.815385
1197.838326	644.252448
1199.913202	637.716783
1201.983811	633.377622
1204.055821	629.443357
1206.125456	624.984615
1208.196491	618.981818
1210.267038	617.968531
1212.333324	610.816783
1214.401011	606.307692
1216.466326	601.368531
1218.533041	596.387413
1220.595500	590.848951
1222.661244	591.077622
1224.722734	591.249650
1226.785625	590.230070
1228.846148	592.958741
1230.906187	595.494406
1232.965744	601.688112
1235.022935	611.897902
1237.079645	618.020280
1239.133991	623.748951
1241.191619	631.811888
1243.246884	637.793007
1245.297908	640.568531
1247.350332	641.598601
1249.402276	643.133566
1251.451862	647.280420
1253.500969	649.590210
1255.549598	658.676224
1257.597748	667.416783
1259.645419	676.490909
1261.688860	681.507692
1263.735577	685.345455
1265.779940	694.851748
1267.823827	700.850350
1269.865362	702.407692
1271.904548	704.060839
1273.947007	706.117483
1275.985243	707.587413
1278.024878	710.031469
1280.064038	716.635664
1282.098979	717.372028
1284.135319	722.245455
1286.169315	724.737762
1288.204708	724.133566
1290.235889	729.166434
1292.268467	733.906993
1294.300574	739.488811
1296.330340	741.532867
1298.361504	739.979021
1300.388460	739.749650
1302.416814	738.262238
1304.440963	729.945455
1306.468378	720.546154
1308.491590	710.997203
1310.516200	702.890909
1312.538476	703.746853
1314.562149	703.557343
1316.583489	710.063636
1318.604361	718.313287
1320.624766	724.432867
1322.640978	728.468531
1324.658587	733.578322
1326.673868	730.641958
1328.692408	724.295105
1330.706759	718.307692
1332.718784	705.536364
1334.734066	701.051049
1336.745163	695.257343
1338.757657	679.867133
1340.765968	668.662937
1342.777534	665.638462
1344.783062	663.999301
1346.791845	656.217483
1348.796450	653.745455
1350.804309	649.402098
1352.811706	649.755944
1354.813072	651.404196
1356.815834	651.301399
1358.818137	657.529371
1360.819980	659.997902
1362.821363	660.243357
1364.820433	665.744056
1366.819044	674.267832
1368.817197	679.895804
1370.814891	679.820280
1372.808423	680.317483
1374.803351	681.178322
1376.797821	681.946154
1378.791835	680.493007
1380.783542	681.608392
1382.774794	678.526573
1384.763740	678.269231
1386.754081	668.357343
1388.743967	666.722378
1390.731549	662.125175
1392.718678	659.242657
1394.703505	654.430769
1396.689727	654.576224
1398.673649	657.903497
1400.657118	659.903497
1402.640134	663.454545
1404.620853	666.933566
1406.602966	666.698601
1408.582783	669.844056
1410.562148	665.160839
1412.537375	667.462238
1414.515840	661.207692
1416.492012	656.357343
1418.467735	655.233566
1420.443008	661.039161
1422.415990	665.010490
1424.388524	669.792308
1426.360610	672.681119
1428.332249	672.657343
1430.299759	673.965734
1432.272343	674.791608
1434.237122	677.883916
1436.206972	677.586014
1438.172699	676.168531
1440.139818	676.725175
1442.104654	682.294406
1444.065370	691.075524
1446.031154	699.956643
1447.990983	711.627273
1449.952206	717.999301
1451.914821	727.891608
1453.873321	733.439860
1455.831378	740.184615
1457.788994	746.120280
1459.746167	751.996503
1461.701065	756.438462
1463.657356	751.884615
1465.611372	745.791608
1467.564947	740.074825
1469.516250	736.104895
1471.468946	730.881818
1473.419369	721.169231
1475.369354	718.717483
1477.318900	714.257343
1479.266177	714.730769
1481.211186	712.424476
1483.157588	711.839860
1485.103552	708.407692
1487.049079	701.736364
1488.992340	694.504196
1490.935166	689.440559
1492.875728	686.172727
1494.817681	677.741958
1496.757372	674.353846
1498.696629	679.592308
1500.635450	679.950350
1502.572012	677.139860
1504.509965	673.486014
1506.445659	676.288811
1508.380920	681.804895
1510.313925	687.450350
1512.246497	688.939161
1514.178637	694.185315
1516.110345	700.316783
1518.039799	704.134266
1519.970644	711.472028
1521.901057	715.260839
1523.827398	711.894406
1525.755130	709.276224
1527.680611	707.935664
1529.605663	708.123077
1531.530286	707.013986
1533.454480	707.860839
1535.376426	706.345455
1537.299763	716.402797
1539.220853	725.037762
1541.139700	738.165035
1543.059935	755.696503
1544.977928	770.335664
1546.895494	784.688112
1548.810818	797.193007
1550.727532	804.035664
1552.640191	807.750350
1554.556054	809.346853
1556.469677	809.787413
1558.381062	807.684615
1560.293837	815.855245
1562.202562	824.618182
1564.112676	841.602797
1566.022367	863.414685
1567.931635	894.486713
1569.838669	932.705594
1571.743470	983.828671
1573.649660	1042.297203
1575.553618	1102.961538
1577.457155	1149.647552
1579.360272	1184.644755
1581.261159	1196.904196
1583.163435	1191.980420
1585.063483	1163.420979
1586.964918	1117.704895
1588.862320	1059.057343
1590.759303	998.641958
1592.655868	939.835664
1594.553821	893.988112
1596.445939	859.264336
1598.341250	831.716783
1600.236144	806.089510
1602.128816	793.592308
1604.021071	783.839161
1605.911107	777.094406
1607.800727	771.311888
1609.689932	772.625175
1611.578722	766.446853
1613.465294	763.640559
1615.353254	758.441259
1617.237197	752.994406
1619.122527	747.644056
1621.007444	743.334965
1622.890147	741.595804
1624.774237	740.483916
1626.654315	738.177622
1628.535781	733.672028
1630.415036	730.083916
1632.295677	731.679720
1634.170514	727.270629
1636.050332	722.679021
1637.926146	713.265734
1639.801549	704.451748
1641.678338	700.160140
1643.549331	698.497203
1645.423505	695.105594
1647.293680	678.318182
1649.167037	668.073427
1651.038190	661.450350
1652.907141	655.379021
1654.777477	652.595804
1656.643821	649.733566
1658.511550	646.860839
1660.377080	637.797902
1662.243996	634.558042
1664.106923	633.714685
1665.971235	642.200699
1667.833351	640.178322
1669.695062	640.270629
1671.558159	646.556643
1673.419060	653.762238
1675.277769	659.103497
1677.136074	660.329371
1678.995764	660.783217
1680.849686	655.167133
1682.706782	649.925874
1684.563475	647.445455
1686.416191	640.558741
1688.272079	640.457343
1690.123993	629.840559
1691.975506	624.463636
1693.826618	608.953147
1695.677330	598.143357
1697.527641	599.416084
1699.375767	599.079021
1701.225278	597.858042
1703.069040	600.912587
1704.917751	606.172727
1706.760716	603.902098
1708.606848	605.432867
1710.449017	608.905594
1712.294352	602.821678
1714.133946	594.975524
1715.974924	583.834266
1717.817285	586.361538
1719.655690	591.380420
1721.495478	596.497203
1723.333091	595.793706
1725.170308	601.929371
1727.005352	593.581818
1728.841779	583.064336
1730.676034	577.402098
1732.509894	572.018182
1734.343360	560.488811
1736.172881	552.698601
1738.005560	544.155245
1739.834295	545.302098
1741.666187	539.092308
1743.494137	543.890909
1745.321696	546.613986
1747.148862	551.659441
1748.975637	546.271329
1750.802020	543.303497
1752.624467	543.037063
1754.450069	542.020979
1756.271736	542.416783
1758.094785	542.707692
1759.915672	545.259441
1761.736171	548.598601
1763.558051	547.076923
1765.374231	550.368531
1767.193563	554.183916
1769.008968	559.978322
1770.827523	558.723077
1772.642153	562.303497
1774.456396	566.311189
1776.270253	566.289510
1778.083723	575.693706
1779.895040	583.652448
1781.707737	592.192308
1783.520049	596.681119
1785.328443	599.993007
1787.138217	606.395105
1788.944077	610.718881
1790.753082	616.823776
1792.558174	607.057343
1794.364647	601.634965
1796.170736	592.267133
1797.972914	581.279021
1799.778237	573.725175
1801.579651	564.053147
1803.382445	556.402797
1805.181333	551.187413
1806.981602	558.525175
1808.781489	562.672028
1810.579234	563.553147
1812.376599	569.003497
1814.173584	558.356643
1815.970188	559.790210
1817.764653	557.060140
1819.560497	562.001399
1821.350686	557.195105
1823.145772	557.237762
1824.935206	562.051049
1826.727776	566.759441
1828.518211	577.822378
1830.306512	581.612587
1832.097948	587.638462
1833.883738	591.822378
1835.670908	593.995804
1837.455946	597.385315
1839.244118	598.481818
1841.028404	599.994406
1842.810560	594.179720
1844.594096	594.312587
1846.375503	596.378322
1848.158289	595.951748
1849.937194	597.051049
1851.717479	600.409790
1853.495637	605.477622
1855.275174	606.705594
1857.052586	609.253846
1858.827874	605.422378
1860.604540	603.367133
1862.379084	596.723077
1864.155006	595.452448
1865.925307	596.442657
1867.698736	600.801399
1869.470045	607.888811
1871.240983	609.816084
1873.013299	615.977622
1874.780001	619.089510
1876.549829	617.655944
1878.315793	622.190909
1880.084880	625.234965
1881.850106	620.689510
1883.614964	621.262937
1885.381199	624.754545
1887.143575	629.170629
1888.905584	631.086713
1890.667225	629.906993
1892.428500	620.662937
1894.189407	614.229371
1895.949948	601.597902
1897.708379	592.716783
1899.466444	582.590210
1901.222402	573.425874
1902.979736	562.701399
1904.736705	564.862937
1906.491567	562.478322
1908.244325	565.033566
1909.996718	564.004196
1911.750488	563.841958
1913.502154	559.700000
1915.251718	555.213287
1917.002657	550.651049
1918.753234	548.318881
1920.499971	542.482517
1922.248085	546.270629
1923.994099	547.108392
1925.741488	549.846154
1927.486780	546.307692
1929.229974	551.490909
1930.974543	557.646154
1932.717017	557.090909
1934.459130	555.755245
1936.200883	551.286014
1937.942276	547.358042
1939.681576	542.827972
1941.420517	542.212587
1943.159099	543.110490
1944.895590	539.525175
1946.631723	534.383916
1948.369230	535.046154
1950.102915	536.781818
1951.837975	537.863636
1953.570946	534.354545
1955.303561	533.634266
1957.035820	531.796503
1958.767722	529.639860
1960.497538	530.521678
1962.225269	536.533566
1963.954375	542.615385
1965.683126	546.708392
1967.409793	550.656643
1969.136106	553.075524
1970.863792	550.290909
1972.585942	547.327273
1974.311193	540.734965
1976.032637	531.071329
1977.757182	525.437762
1979.479646	516.474825
1981.198308	509.731469
1982.920068	509.269231
1984.638026	511.800699
1986.357357	512.683916
1988.072889	512.421678
1989.793241	511.114685
1991.509795	514.673427
1993.222552	514.378322
1994.938405	516.297902
1996.652186	516.987413
1998.365617	519.960140
2000.076977	516.472727
2001.789709	515.751748
2003.498651	517.750350
2005.210685	516.731469
2006.917211	512.351049
2008.626828	508.627273
2010.334379	508.252448
2012.041581	510.273427
2013.746718	508.328671
2015.451509	514.000000
2017.157671	517.735664
2018.860051	519.566434
2020.563802	517.695804
2022.265491	519.868531
2023.966835	516.853147
2025.667833	515.232168
2027.366770	515.306993
2029.067079	513.441259
2030.763613	513.447552
2032.461518	512.769231
2034.157364	510.070629
2035.856296	510.121678
2037.549742	508.395804
2039.244559	503.681818
2040.939034	498.398601
2042.629740	497.167832
2044.323530	491.221678
2046.013553	490.366434
2047.704947	485.237063
2049.394288	483.739161
2051.084999	481.034266
2052.771947	485.768531
2054.458556	486.779720
2056.146534	483.355245
2057.830753	484.715385
2059.516343	483.370629
2061.201593	483.608392
2062.884794	489.755944
2064.569366	487.934965
2066.248475	486.472028
2067.932369	485.030769
2069.610802	487.362937
2071.292313	487.012587
2072.970072	494.720280
2074.647495	496.786014
2076.326287	499.116084
2078.003037	502.883916
2079.677745	503.664336
2081.353822	503.998601
2083.027859	506.132867
2084.701560	502.544755
2086.374926	498.925874
2088.046253	495.125175
2089.717246	493.998601
2091.387905	489.236364
2093.058230	486.558741
2094.728221	488.702098
2096.396176	490.374126
2098.063798	494.848951
2099.729385	497.871329
2101.396341	499.400699
2103.061264	502.831469
2104.725855	507.648252
2106.388414	506.938462
2108.052341	504.686014
2109.714237	504.265734
2111.375803	495.564336
2113.037037	494.048951
2114.696243	491.732867
2116.355118	490.120280
2118.013664	491.071329
2119.671880	485.714685
2121.326372	487.155944
2122.983929	487.960839
2124.641157	489.824476
2126.294663	483.133566
2127.949537	477.800000
2129.600692	475.258741
2131.254910	470.608392
2132.905411	466.311189
2134.557278	462.955944
2136.203737	463.241958
2137.854951	457.681119
2139.502451	455.242657
2141.151318	464.263636
2142.798166	469.083217
2144.444689	472.398601
2146.090886	475.940559
2147.733375	483.740559
2149.378922	487.388112
2151.020762	488.946853
2152.665659	486.473427
2154.306850	492.151049
2155.947719	495.523077
2157.588263	489.727972
2159.226795	486.230769
2160.866693	486.748951
2162.502891	482.479720
2164.140455	480.278322
2165.777697	483.733566
2167.412929	485.859441
2169.047840	486.609091
2170.682428	489.231469
2172.316696	489.725874
2173.947270	497.134965
2175.580896	497.222378
2177.210830	494.820280
2178.842129	492.944755
2180.471423	492.358741
2182.100398	489.709091
2183.729053	490.874126
2185.357389	488.558741
2186.983723	485.958741
2188.609738	486.937063
2190.233751	485.136364
2191.859130	486.083916
2193.482508	484.138462
2195.107251	476.725874
2196.728313	474.127972
2198.349058	474.900000
2199.971168	479.938462
2201.591280	483.125874
2203.209395	481.372727
2204.827195	483.939161
2206.444680	488.892308
2208.061849	497.069231
2209.678703	504.939860
2211.295241	512.049650
2212.909787	513.628671
2214.522340	509.580420
2216.136257	508.560140
2217.748183	507.239860
2219.361472	507.353147
2220.972771	502.579021
2222.582080	491.486014
2224.192753	493.427972
2225.801437	486.057343
2227.409808	480.041259
2229.016193	476.679720
2230.623941	471.741958
2232.229702	471.821678
2233.835152	469.302797
2235.438617	471.181818
2237.043445	469.067832
2238.646289	469.879720
2240.247150	470.439860
2241.849374	469.488112
2243.449616	476.823776
2245.051220	475.658042
2246.649171	474.901399
2248.248485	479.979021
2249.845819	487.622378
2251.442845	499.153846
2253.041233	507.440559
2254.635972	513.783916
2256.228734	516.672028
2257.822859	516.672727
2259.418345	516.279021
2261.010186	514.727273
2262.601721	514.420979
2264.194618	511.099301
2265.782205	503.414685
2267.374488	502.921678
2268.961465	504.807692
2270.551469	505.165734
2272.136169	507.798601
2273.725563	506.154545
2275.309655	507.134965
2276.895107	505.190909
2278.478591	499.562238
2280.065100	494.104895
2281.647976	485.002098
2283.230549	474.905944
2284.812818	461.941958
2286.391457	453.356993
2287.973121	447.825175
2289.551156	441.579371
2291.132214	442.954545
2292.709645	439.429021
2294.285113	441.648951
2295.863603	440.242308
2297.438469	435.180420
2299.013034	434.288462
2300.587299	431.574126
2302.161263	425.047203
2303.734926	428.086014
2305.308290	426.188811
2306.878035	427.047552
2308.447481	428.191608
2310.019945	432.499301
2311.587135	433.732168
2313.157343	440.493007
2314.723936	440.530769
2316.291889	436.088112
2317.857886	437.886713
2319.423586	442.237063
2320.988988	438.048951
2322.552437	443.864336
2324.117245	445.734266
2325.678445	444.563636
2327.242659	438.909091
2328.801611	434.883217
2330.363578	429.716084
2331.923593	428.204196
2333.483314	419.421678
2335.041085	412.177622
2336.598561	405.704895
2338.155743	408.187413
2339.710977	404.788112
2341.265918	408.521678
2342.820564	417.541958
2344.374917	414.255944
2345.928977	412.258042
2347.482742	412.866434
2349.034564	406.253846
2350.584442	409.056643
2352.137328	406.660839
2353.684972	412.833566
2355.235623	417.404196
2356.782683	433.011189
2358.331101	437.863636
2359.879228	445.240559
2361.423766	453.703497
2362.969662	459.016084
2364.513620	457.130070
2366.058935	451.576224
2367.600665	434.793007
2369.143752	423.647552
2370.684903	411.788811
2372.225765	410.211888
2373.766338	409.744755
2375.306622	409.939860
2376.846617	405.723776
2378.383034	410.298601
2379.922452	417.992308
2381.458293	425.139860
2382.995490	423.235664
2384.529112	424.527273
2386.065734	420.650350
2387.600426	415.961538
2389.133188	415.434266
2390.665663	415.368531
2392.196210	418.357343
2393.729755	420.478322
2395.258089	416.755245
2396.787780	424.728671
2398.317184	425.023776
2399.846304	427.548252
2401.375139	428.838462
2402.898768	430.921678
2404.427033	439.660140
2405.950096	439.025874
2407.477792	442.448252
2408.998649	442.194406
2410.524139	446.619580
2412.046068	446.737063
2413.569353	443.708392
2415.090716	447.144755
2416.610160	445.897902
2418.130959	449.986713
2419.649840	441.262937
2421.168438	438.876923
2422.685119	440.441259
2424.203154	436.444056
2425.720908	439.269930
2427.235111	445.357343
2428.749033	448.409091
2430.262675	454.842657
2431.777672	453.013986
2433.289120	454.937063
2434.801923	454.877622
2436.312812	454.783217
2437.823423	443.198601
2439.332122	445.453147
2440.843807	442.567133
2442.351949	446.026573
2443.859813	451.783916
2445.367399	457.192308
2446.871444	460.087413
2448.378474	467.111189
2449.883597	468.118881
2451.388441	474.233566
2452.891379	474.479021
2454.394041	475.405594
2455.896426	475.928671
2457.396906	476.167133
2458.898739	474.135664
2460.398667	471.696503
2461.898320	467.956643
2463.397698	458.887413
2464.895173	456.011888
2466.390746	445.192308
2467.889299	442.097902
2469.384324	439.847552
2470.880701	432.671329
2472.373552	429.720979
2473.867756	432.232867
2475.361686	429.283916
2476.852092	433.080420
2478.345476	435.895105
2479.836962	433.172727
2481.326551	431.325874
2482.815868	430.417483
2484.303289	422.325175
2485.793686	425.075524
2487.280565	423.763636
2488.768795	423.569231
2490.253508	426.492308
2491.737952	434.097902
2493.223746	434.818182
2494.707649	438.989510
2496.192902	446.127972
2497.673022	441.672028
2499.156115	438.985315
2500.637317	429.153147
2502.118250	421.602098
2503.597294	415.614685
2505.076069	405.686014
2506.554576	399.765734
2508.032815	392.524476
2509.510785	390.427972
2510.985250	384.834266
2512.462685	386.306993
2513.936616	391.329371
2515.411897	391.913986
2516.886911	390.998601
2518.358425	390.572028
2519.831288	388.915385
2521.302269	391.079021
2522.774600	392.124476
2524.241817	385.647552
2525.712001	383.358042
2527.180304	379.835664
2528.648342	379.260839
2530.116115	377.540559
2531.583623	378.861538
2533.050866	377.562238
2534.514617	369.972028
2535.979718	364.703497
2537.442942	361.226573
2538.907516	363.356643
2540.368600	359.553147
2541.831034	355.653846
2543.293205	362.753846
2544.751890	367.280420
2546.215147	373.318182
2547.673307	380.132867
2549.132816	386.719580
2550.587231	390.113986
2552.046217	391.264336
2553.503331	391.162937
2554.958574	389.026573
2556.413555	384.445455
2557.866668	380.716783
2559.321129	387.016084
2560.773720	390.904196
2562.226052	391.368531
2563.676517	396.740559
2565.129937	406.842657
2566.578275	411.806294
2568.029569	414.939860
2569.478996	416.434965
2570.924951	413.253147
2572.373861	406.125175
2573.819301	399.943357
2575.266088	402.987413
2576.711013	408.749650
2578.155679	409.865734
2579.601693	415.716084
2581.044241	419.453147
2582.488136	424.057343
2583.928566	426.830769
2585.370343	430.815385
2586.810261	435.376923
2588.251526	433.403497
2589.689329	426.193007
2591.130082	423.779720
2592.565773	427.563636
2594.004413	423.900699
2595.441195	420.874126
2596.876122	413.865734
2598.313996	405.770629
2599.746813	402.230070
2601.180977	396.493007
2602.613287	396.337762
2604.046943	392.666434
2605.478746	387.680420
2606.910295	384.090909
2608.341592	384.807692
2609.771036	386.000699
2611.200228	385.111888
2612.627570	389.758042
2614.056257	387.923077
2615.484693	393.746853
2616.909681	395.545455
2618.336016	398.323776
2619.760502	409.508392
2621.186334	414.179021
2622.608722	421.436364
2624.032456	427.141958
2625.454343	429.537063
2626.875981	438.073427
2628.295773	443.132867
2629.716911	451.823776
2631.137799	455.195105
2632.555249	461.863636
2633.975638	471.140559
2635.392590	483.973427
2636.809293	495.569231
2638.225748	507.402098
2639.641955	515.027972
2641.057914	523.865734
2642.472032	531.711888
2643.885902	546.554545
2645.297934	548.400699
2646.711309	557.030769
2648.121255	561.958042
2649.534137	570.067832
2650.943590	582.652448
2652.352797	594.779021
2653.760168	603.624476
2655.170473	615.879720
2656.578943	630.282517
2657.985577	651.188112
2659.391966	664.620280
2660.796521	683.190210
2662.202420	694.546853
2663.606486	716.106993
2665.010307	740.565734
2666.413884	771.389510
2667.815630	811.403497
2669.218719	846.646154
2670.618390	876.307692
2672.019405	906.243357
2673.417004	940.508392
2674.817533	967.369930
2676.214646	989.252448
2677.613103	1010.061538
2679.009733	1024.558741
2680.406120	1037.514685
2681.802265	1055.077622
2683.196585	1065.685315
2684.592246	1072.377622
2685.984499	1066.053846
2687.378094	1046.613986
2688.769865	1023.250350
2690.162979	991.713986
2691.554269	952.593007
2692.943736	914.476224
2694.332963	862.965035
2695.721951	817.734965
2697.112280	771.602098
2698.497626	736.179021
2699.885895	704.336364
2701.272344	673.192308
2702.658554	649.586713
2704.044525	624.802098
2705.427098	612.839860
2706.811013	596.632867
2708.194690	580.554545
2709.578128	571.488112
2710.958172	548.653846
2712.339556	531.778322
2713.719126	516.428671
2715.100036	504.187413
2716.479132	490.434965
2717.856414	476.152448
2719.235037	463.376224
2720.611847	457.604196
2721.988420	454.853147
2723.364758	447.297203
2724.739285	439.119580
2726.115152	435.148951
2727.487632	426.165035
2728.863028	421.626573
2730.233464	420.745455
2731.605241	416.632168
2732.976783	410.291608
2734.346517	411.713287
2735.717592	409.760839
2737.086858	411.233566
2738.455891	402.930070
2739.823118	403.168531
2741.190112	396.714685
2742.556872	390.215385
2743.923401	386.757343
2745.288124	382.912587
2746.652615	380.239860
2748.016875	373.625874
2749.380902	369.034965
2750.744698	367.345455
2752.105120	365.177622
2753.468452	355.679021
2754.826842	351.039860
2756.188142	352.792308
2757.546072	346.234266
2758.906910	339.940559
2760.265949	340.490210
2761.621619	338.566434
2762.980197	338.211888
2764.335408	337.482517
2765.690390	337.865734
2767.043576	341.385315
2768.399668	341.268531
2769.752395	340.565734
2771.104895	347.200000
2772.457166	347.324476
2773.810776	347.615385
2775.161024	349.256643
2776.509478	358.761538
2777.860838	359.006993
2779.208838	366.561538
2780.558176	365.583916
2781.905722	363.527972
2783.253042	358.957343
2784.600135	351.751748
2785.945437	346.754545
2787.290512	341.604196
2788.635362	329.676923
2789.979986	326.801399
2791.321258	331.592308
2792.663868	339.110490
2794.006252	345.106993
2795.348411	354.058741
2796.687221	353.595804
2798.028931	358.471329
2799.367293	358.616084
2800.706991	358.459441
2802.044905	356.752448
2803.381034	358.281818
2804.716939	354.294406
2806.054182	360.788112
2807.389641	367.513287
2808.724877	371.730070
2810.058330	370.707692
2811.393120	366.196503
2812.724570	358.285315
2814.058915	361.288112
2815.388362	357.732867
2816.719146	355.995105
2818.049708	347.529371
2819.378491	341.757343
2820.708610	333.797902
2822.036951	332.945455
2823.365071	330.340559
2824.691413	324.445455
2826.019092	313.025175
2827.343437	305.873427
2828.669119	298.818881
2829.993025	299.508392
2831.316712	300.267133
2832.641734	306.325874
2833.963426	304.416783
2835.284900	302.581119
2836.606155	299.666434
2837.927191	299.900000
2839.246454	303.155944
2840.567053	303.095804
2841.885881	303.363636
2843.204490	304.419580
2844.521328	302.304196
2845.837949	304.842657
2847.154353	308.035664
2848.468987	311.348951
2849.784957	310.581818
2851.097606	304.550350
2852.411590	300.184615
2853.725358	294.591608
2855.038909	296.709091
2856.350694	293.048951
2857.660712	291.727273
2858.972065	291.381119
2860.280103	291.081818
2861.589475	294.765734
2862.898633	296.140559
2864.207575	297.192308
2865.514753	299.842657
2866.820169	299.895804
2868.126919	301.137063
2869.431906	298.945455
2870.736680	303.141958
2872.039692	300.957343
2873.345585	297.516084
2874.646624	298.669231
2875.948997	292.203497
2877.249610	292.686713
2878.551557	296.076224
2879.853290	293.986014
2881.151720	299.786713
2882.451483	301.034965
2883.749489	297.169930
2885.047283	295.551049
2886.343321	293.932867
2887.640692	290.695804
2888.936307	282.824476
2890.231711	279.891608
2891.526904	271.163636
2892.818800	268.791608
2894.113572	271.275524
2895.405047	271.374825
2896.697855	277.044056
2897.990453	280.016084
2899.279757	280.927273
2900.570393	283.269231
2901.859278	287.941259
2903.149495	294.682517
2904.436421	298.608392
2905.724679	300.925874
2907.011188	299.351049
2908.297489	295.360140
2909.583581	293.687413
2910.867925	296.337762
2912.155140	295.932168
2913.437529	296.056643
2914.721250	293.376224
2916.003225	292.387413
2917.284992	295.624476
2918.565015	294.004895
2919.847907	294.065035
2921.129054	291.337762
2922.406919	287.181119
2923.687653	290.562238
2924.965106	290.576923
2926.242353	292.767133
2927.517858	287.646154
2928.796231	285.293706
2930.069790	283.213287
2931.346216	281.860140
2932.620901	280.300000
2933.893845	278.537063
2935.168121	279.281119
2936.440657	280.634266
2937.712988	280.603497
2938.982047	287.483217
2940.253971	283.969231
2941.524157	277.334266
2942.794139	272.624476
2944.063918	272.834266
2945.331961	271.286713
2946.598267	270.537762
2947.864372	274.446853
2949.131806	270.967832
2950.397506	272.015385
2951.663003	274.448252
2952.928298	274.850350
2954.190328	276.827972
2955.453688	271.186014
2956.716847	267.207692
2957.978274	266.372028
2959.241030	266.818182
2960.502054	265.916783
2961.761348	268.972727
2963.020442	268.184615
2964.279335	261.142657
2965.538028	255.894406
2966.796521	255.028671
2968.053285	258.957343
2969.309849	261.021678
2970.564686	256.019580
2971.820851	253.897203
2973.073762	249.015385
2974.328002	250.641958
2975.582043	252.055944
2976.834358	258.360839
2978.086474	258.858042
2979.336866	258.717483
2980.590113	258.765035
2981.838583	266.655944
2983.089908	275.610490
2984.337983	276.811888
2985.585862	275.823776
2986.833543	279.937063
2988.081027	280.409790
2989.326790	280.375524
2990.572357	279.391608
2991.819251	278.672028
2993.062901	274.067133
2994.307879	268.340559
2995.549613	262.834266
2996.794199	256.806993
2998.037066	251.750350
2999.276692	248.716084
3000.519168	252.837063
3001.758404	263.275524
3002.998968	266.090210
3004.237816	265.317483
3005.476468	265.504196
3006.713406	260.867133
3007.951670	262.874126
3009.188219	258.189510
3010.424575	251.120979
3011.660737	250.729371
3012.895185	246.993007
3014.129441	250.183916
3015.363503	256.385315
3016.595853	255.578322
3017.826491	255.696503
3019.059975	258.618881
3020.291747	255.616084
3021.521809	257.097203
3022.751679	261.560839
3023.979839	259.071329
3025.209325	260.057343
3026.437102	265.865035
3027.664688	267.284615
3028.893601	276.511189
3030.117771	274.680420
3031.344784	271.527972
3032.568573	278.147552
3033.793689	284.597902
3035.017098	285.851748
3036.240317	285.732867
3037.461831	279.434266
3038.686186	278.767133
3039.905806	275.102797
3041.126752	273.358042
3042.347509	273.710490
3043.566562	276.011888
3044.786940	270.679021
3046.004102	272.404196
3047.222590	272.090909
3048.439375	271.325175
3049.655973	268.432867
3050.872382	259.887413
3052.085579	253.929371
3053.301613	258.666434
3054.514435	256.148951
3055.730094	259.652448
3056.941030	255.854545
3058.153291	257.862937
3059.365366	256.391608
3060.577253	253.819580
3061.787444	247.655245
3062.997448	242.693357
3064.207266	237.510490
3065.415388	239.440210
3066.623325	243.030070
3067.829566	251.752098
3069.037132	251.838462
3070.243003	244.516434
3071.448690	236.381119
3072.654191	238.888462
3073.857999	238.350350
3075.063131	234.154196
3076.266570	224.534965
3077.468318	220.317133
3078.669881	217.019580
3079.871261	216.853147
3081.072457	215.720280
3082.271963	217.597203
3083.471286	215.488811
3084.671932	209.915385
3085.870888	217.286014
3087.066650	226.144056
3088.265241	232.523776
3089.460638	231.402098
3090.657358	228.500699
3091.850886	226.053147
3093.047242	220.476923
3094.241912	216.039860
3095.433391	213.692308
3096.629201	215.097203
3097.820318	212.067133
3099.012757	214.407692
3100.202009	221.807692
3101.394086	225.111189
3102.584480	225.908392
3103.771688	230.067133
3104.960219	235.760839
3106.150071	241.048252
3107.336740	245.323776
3108.523228	247.830769
3109.709538	245.213287
3110.897169	241.238462
3112.081618	229.989510
3113.264388	230.901399
3114.449980	230.132867
3115.633893	226.532867
3116.816127	225.813986
3117.998182	231.916783
3119.180059	232.452448
3120.361758	235.845455
3121.541780	235.461538
3122.720125	235.638462
3123.901290	234.982517
3125.079280	231.028671
3126.257094	226.324476
3127.434730	231.474825
3128.610691	232.681119
3129.786475	234.070629
3130.963581	235.097203
3132.139012	234.855944
3133.312770	230.722378
3134.484855	224.862937
3135.658262	219.306294
3136.831492	222.278322
3138.003051	224.564336
3139.175930	219.022378
3140.345642	218.487413
3141.516675	216.804895
3142.686038	218.081818
3143.853730	220.713986
3145.024238	223.235664
3146.190088	223.872028
3147.360246	223.302797
3148.525748	219.468531
3149.691075	217.089510
3150.856229	217.438462
3152.021210	217.182517
3153.187510	214.523077
3154.349158	213.663636
3155.512125	207.589510
3156.674920	210.974825
3157.837542	215.683916
3158.998499	216.465734
3160.159283	217.582517
3161.319895	221.180420
3162.478843	223.618881
3163.637620	222.383916
3164.796225	224.965035
3165.954657	230.690210
3167.112919	229.072727
3168.269518	223.778322
3169.424456	222.460140
3170.580713	222.555245
3171.735309	225.172028
3172.889735	219.735664
3174.042501	222.195105
3175.195096	222.319580
3176.347522	225.499301
3177.499778	225.337762
3178.651863	228.956643
3179.800803	227.612587
3180.952549	223.981818
3182.102637	224.328671
3183.251069	227.272028
3184.399331	224.397902
3185.547425	224.774126
3186.695350	220.927273
3187.841619	222.902797
3188.987720	223.240559
3190.132167	226.097902
3191.276446	227.883916
3192.420557	226.453846
3193.565985	225.006294
3194.708275	222.171329
3195.850398	220.674126
3196.992353	218.452448
3198.134141	210.285315
3199.275762	208.518182
3200.414248	202.662238
3201.554051	205.068531
3202.695172	205.496503
3203.833158	206.606294
3204.969495	208.730070
3206.105666	208.576923
3207.243154	213.636364
3208.378994	212.505594
3209.516151	210.017483
3210.648695	210.571329
3211.785521	208.130769
3212.917735	210.800000
3214.051266	206.290210
3215.184633	207.307692
3216.314872	201.679021
3217.447909	195.697203
3218.577820	195.190909
3219.709047	200.820280
3220.837150	203.165734
3221.968049	204.595804
3223.097304	208.858042
3224.224916	213.557343
3225.349405	216.756643
3226.478170	215.152448
3227.603813	208.781119
3228.729294	206.690909
3229.853133	202.469930
3230.979766	199.337762
3232.101802	205.176923
3233.225154	211.306993
3234.348344	208.296503
3235.471372	214.157343
3236.592760	219.352448
3237.713986	222.323776
3238.833575	224.960839
3239.953002	219.589510
3241.070791	218.901399
3242.191372	215.172028
3243.308840	212.816084
3244.426147	210.598601
3245.543294	208.000000
3246.658805	205.732168
3247.775630	197.928671
3248.889346	198.777622
3250.005851	197.527273
3251.120722	202.630070
3252.232484	204.190210
3253.344086	201.261538
3254.457004	201.082517
3255.569762	195.737063
3256.679414	196.851049
3257.790381	197.487413
3258.901189	198.058042
3260.010365	200.587413
3261.117911	196.058042
3262.226770	194.627273
3263.335472	194.063636
3264.441071	194.378322
3265.547984	193.044755
3266.653268	186.419580
3267.759866	186.062937
3268.863364	183.437063
3269.968177	184.027972
3271.072832	189.432168
3272.174388	187.261538
3273.275788	183.944056
3274.378502	176.709790
3275.481060	177.957343
3276.580521	183.240559
3277.682766	183.246154
3278.781915	181.694406
3279.879440	183.226573
3280.976809	186.392308
3282.076960	182.726573
3283.174019	185.679021
3284.270922	188.065035
3285.367670	177.840559
3286.459860	178.875524
3287.556298	176.021678
3288.651114	176.190210
3289.745776	178.395105
3290.838816	178.669231
3291.931701	166.725175
3293.022967	166.946154
3294.115544	161.661538
3295.206502	158.900699
3296.295840	163.768531
3297.385025	163.886713
3298.475523	169.572727
3299.562936	179.336364
3300.650196	178.885315
3301.738769	180.052448
3302.827190	185.769231
3303.911063	187.597203
3304.999178	180.666434
3306.084211	184.260140
3307.167629	182.311189
3308.252359	185.857343
3309.335473	184.920979
3310.419900	184.104196
3311.501248	190.023776
3312.583908	182.534266
3313.664954	178.969930
3314.745849	175.881119
3315.825130	173.162937
3316.904261	171.476923
3317.984704	170.551748
3319.062072	165.211888
3320.140752	163.123077
3321.217820	161.236364
3322.294739	159.014685
3323.370046	159.110490
3324.445204	163.602797
3325.521673	157.053147
3326.595072	162.416084
3327.668322	167.682517
3328.742882	174.184615
3329.815834	180.135664
3330.887177	184.409091
3331.959831	180.897203
3333.029419	183.644056
3334.100317	187.107692
3335.169608	191.341259
3336.240210	192.185315
3337.309205	192.951049
3338.376594	187.051748
3339.442378	184.529371
3340.512388	182.357343
3341.579335	180.385315
3342.643220	177.780420
3343.709873	173.446154
3344.774921	171.825874
3345.838366	173.655944
3346.901665	181.553846
3347.964817	184.234965
3349.027823	188.463636
3350.090683	188.581119
3351.151941	190.103497
3352.210142	182.145455
3353.272563	176.525175
3354.331929	170.446853
3355.391149	169.774126
3356.451679	165.351748
3357.507699	169.339161
3358.566483	167.311189
3359.620760	170.511888
3360.677801	174.770629
3361.733243	177.965035
3362.789995	179.730070
3363.845148	178.944755
3364.898704	173.870629
3365.950664	170.948951
3367.005385	171.796503
3368.057057	175.595804
3369.108586	176.918881
3370.161423	176.458741
3371.211213	170.375524
3372.262312	170.024476
3373.310365	170.554545
3374.361177	168.158042
3375.408945	166.334965
3376.456570	161.422378
3377.504052	161.199301
3378.549942	161.269231
3379.597140	164.759441
3380.641296	168.980420
3381.688210	167.314685
3382.733532	166.988112
3383.775813	166.523776
3384.817954	169.799301
3385.861402	165.493706
3386.904709	161.925175
3387.946427	158.474825
3388.988003	154.646853
3390.029438	149.573427
3391.069285	150.964336
3392.107543	149.351748
3393.147109	150.385315
3394.186535	149.747552
3395.224373	154.701399
3396.260624	156.438462
3397.296736	162.597902
3398.334155	161.993007
3399.368541	165.505594
3400.404234	165.221678
3401.439788	166.762238
3402.472311	166.583217
3403.507587	168.595105
3404.539832	166.479021
3405.571939	163.479021
3406.602462	162.530769
3407.634292	157.276224
3408.665984	160.990909
3409.694648	164.341259
3410.723175	162.047552
3411.753008	165.920979
3412.782704	165.106993
3413.809374	167.517483
3414.837351	167.468531
3415.862303	164.051049
3416.890005	161.786014
3417.914684	162.353846
3418.940669	167.138462
3419.965074	165.009790
3420.989343	166.381119
3422.012033	163.202797
3423.034587	162.082517
3424.058447	164.441958
3425.079287	162.732168
3426.099991	161.843257
3427.122002	162.456568
3428.140994	165.255844
3429.159850	170.924825
3430.180013	180.147253
3431.197159	193.606868
