-118.059454	13.237912
-115.389854	10.302198
-112.723189	8.475025
-110.057276	7.479121
-107.394295	7.037213
-104.729885	6.872028
-102.068405	6.706294
-99.405496	5.876224
-96.747693	3.513287
-94.088461	1.088811
-91.429977	-1.267133
-88.774417	-2.575524
-86.117429	-2.773427
-83.465539	1.878322
-80.812218	3.940559
-78.161818	5.282517
-75.509988	8.593706
-72.863249	9.618881
-70.215081	12.779021
-67.567655	13.238462
-64.923143	11.694406
-62.277203	11.329371
-59.636344	11.340559
-56.994056	11.735664
-54.354677	11.506993
-51.713868	12.760839
-49.073800	10.837762
-46.438804	9.265035
-43.802380	8.856643
-41.168858	11.256643
-38.533908	11.295105
-35.904023	12.100699
-33.270546	12.243357
-30.642131	15.310490
-28.014450	18.032168
-25.385340	14.995105
-22.761287	-25.086014
-20.133645	-137.202098
-17.511056	-484.443357
-14.889199	-895.172727
-12.268072	313.097203
-9.647675	2501.495804
-7.030167	4306.639860
-4.411230	5586.029371
-1.795178	6321.771329
0.820145	6519.104895
3.434741	6174.481818
6.046454	5296.510490
8.659596	3906.132168
11.267704	2104.238462
13.879394	152.693706
16.486053	-1133.012587
19.094140	-677.426573
21.701503	-39.942657
24.303841	23.890909
26.909757	26.333566
29.510651	23.978322
32.112973	22.181818
34.710278	20.970629
37.311158	22.300699
39.907023	21.876923
42.504317	17.466434
45.100891	15.501399
47.692456	15.142657
50.285449	13.927972
52.875581	14.986014
55.467141	13.618881
58.055841	12.963636
60.645968	13.290909
63.231096	11.766434
65.817652	15.258741
68.403494	18.238462
70.986482	18.460839
73.570896	16.681119
76.148182	15.565035
78.729034	16.069231
81.307037	14.946154
83.884330	15.622378
86.463049	12.121678
89.036786	9.955944
91.611951	8.716084
94.184272	7.165035
96.755885	8.996503
99.324658	9.706294
101.894858	9.834965
104.462220	12.140559
107.031007	13.361538
109.596958	16.055944
112.160074	18.215385
114.726746	22.914685
117.284197	24.032867
119.847333	30.758042
122.405509	43.432867
124.967240	65.984615
127.524014	107.328671
130.082215	166.971329
132.635462	251.569231
135.188012	360.576923
137.744112	490.201399
140.295264	630.800699
142.845719	773.134266
145.395476	907.772727
147.942414	1011.533566
150.488657	1093.534965
153.036325	1143.472028
155.583297	1167.224476
158.125334	1169.174126
160.666677	1157.663636
163.207327	1137.502098
165.749403	1119.767133
168.288667	1109.577622
170.825123	1105.040559
173.360887	1104.218182
175.898077	1112.782517
178.434576	1116.300699
180.968269	1129.251748
183.499158	1138.404895
186.029360	1150.202098
188.560986	1153.132168
191.089811	1151.110490
193.615837	1146.570629
196.141177	1142.744056
198.667942	1137.142657
201.191911	1127.981818
203.715195	1117.302797
206.237794	1113.995804
208.757600	1110.610490
211.276723	1113.258042
213.795163	1123.727972
216.315027	1137.940559
218.827890	1151.664336
221.344284	1168.301399
223.859996	1188.299301
226.370818	1208.687413
228.883065	1223.244755
231.392530	1236.584615
233.901316	1245.209091
236.409423	1252.761538
238.918955	1255.515385
241.423606	1256.313287
243.927581	1257.825175
246.432980	1250.854545
248.933504	1246.255944
251.437552	1243.455944
253.934628	1238.884615
256.435228	1236.981119
258.933056	1229.183217
261.430211	1228.821678
263.926693	1225.622378
266.418312	1227.332168
268.913451	1224.897902
271.405823	1226.595105
273.897525	1224.731469
276.386464	1226.627273
278.876827	1229.488112
281.364427	1234.987413
283.849268	1241.032168
286.337624	1249.411888
288.819040	1257.755944
291.303970	1274.818182
293.784055	1295.158042
296.267652	1316.076923
298.746406	1329.046154
301.226584	1344.911888
303.704009	1347.979720
306.180771	1352.866434
308.656870	1343.349650
311.130220	1339.717483
313.602908	1335.967133
316.074935	1330.021678
318.546301	1324.944056
321.014922	1316.193007
323.482885	1307.843357
325.952269	1294.752448
328.416831	1279.359441
330.884897	1265.039161
333.348143	1246.103497
335.810731	1234.438462
338.272663	1221.283916
340.733938	1217.608392
343.192479	1211.664336
345.652442	1203.062238
348.109672	1190.721678
350.566248	1171.551049
353.022170	1159.726573
355.475362	1145.227273
357.929977	1129.823776
360.379790	1118.867133
362.833099	1105.336364
365.281610	1095.924476
367.729469	1085.515385
370.178751	1075.022378
372.623239	1061.831469
375.069149	1051.310490
377.514409	1041.155245
379.956951	1030.246853
382.398845	1024.866434
384.840092	1017.049650
387.278623	1011.234266
389.718576	1009.093706
392.155815	1006.140559
394.590342	1008.093007
397.028357	1009.097902
399.461595	1010.388811
401.896254	1010.783916
404.326141	1017.981119
406.759513	1023.841259
409.188115	1020.995804
411.616075	1021.838462
414.045457	1018.909091
416.470073	1015.028671
418.896111	1007.241259
421.321508	1000.509091
423.746265	995.962238
426.166264	988.818182
428.587684	978.920280
431.006407	967.718182
433.426551	960.444056
435.844000	950.215385
438.262869	935.772028
440.679045	925.783916
443.090473	915.050350
445.505379	904.546154
447.917594	896.744755
450.329175	889.621678
452.740122	888.260140
455.148383	882.637063
457.556011	879.801399
459.963007	876.857343
462.369372	877.944056
464.773054	879.216084
467.176106	881.043357
469.578528	884.302098
471.980320	888.838462
474.379435	891.519580
476.779969	896.055944
479.179874	899.193007
481.575056	912.630070
483.973705	920.682517
486.367634	932.725874
488.760937	947.239860
491.153614	962.446154
493.545666	982.700000
495.939136	1024.698601
498.327894	1099.707692
500.713986	1253.126573
503.101498	1553.065734
505.488387	2119.089510
507.872612	2941.218881
510.258255	3915.416783
512.641237	4869.143357
515.021558	5675.406993
517.403298	6217.418182
519.782379	6427.188112
522.162879	6298.720979
524.540721	5853.727972
526.915908	5167.767832
529.290477	4369.283217
531.666464	3614.707692
534.039799	3051.688811
536.414551	2670.550350
538.784618	2419.476224
541.154069	2230.769930
543.524938	2080.762937
545.891127	1939.469930
548.258734	1818.058042
550.623695	1717.369930
552.988043	1631.402098
555.351778	1561.917483
557.716931	1508.961538
560.077412	1464.238462
562.439311	1425.783916
564.798569	1396.457343
567.155190	1370.780420
569.515255	1345.697203
571.868629	1320.614685
574.225448	1292.504895
576.579632	1268.569231
578.933208	1244.495105
581.286175	1221.960140
583.636510	1196.401399
585.988263	1180.310490
588.333339	1159.323776
590.683879	1133.422378
593.027745	1113.076224
595.377073	1091.162937
597.721752	1072.497902
600.063807	1058.147552
602.407279	1054.424476
604.748128	1061.573427
607.088375	1078.352448
609.426001	1105.919580
611.767062	1126.100000
614.103485	1146.208392
616.441325	1156.472727
618.776548	1153.118881
621.109155	1140.146154
623.443178	1120.801399
625.774587	1092.411888
628.105398	1066.088112
630.435612	1039.151049
632.765227	1023.106294
635.090220	1006.554545
637.420653	996.287413
639.746466	985.249650
642.069671	975.986713
644.394293	970.752448
646.716309	966.891608
649.037731	962.606294
651.356551	963.224476
653.676786	955.968531
655.996428	957.981119
658.313469	952.121678
660.629918	954.571329
662.943769	955.669930
665.259036	958.417483
667.571706	961.965035
669.885791	962.848951
672.195276	966.079720
674.506177	973.845455
676.814485	977.050350
679.122205	975.320280
681.431339	970.126573
683.735881	962.734266
686.039837	947.853147
688.343207	935.015385
690.647991	921.316084
692.948189	905.999301
695.249801	889.657343
697.550829	875.466434
699.847274	862.227273
702.145135	853.570629
704.442412	845.058042
706.739106	840.625874
709.031224	840.864336
711.326753	837.225874
713.617708	839.155245
715.910078	840.629371
718.199873	845.482517
720.489087	852.751748
722.777722	859.356643
725.063784	863.653147
727.351261	863.751748
729.636166	860.904196
731.920494	855.706993
734.202253	854.160140
736.485426	849.094406
738.768022	842.349650
741.046062	833.912587
743.325517	825.002797
745.604395	818.753147
747.882699	814.994406
750.156453	812.877622
752.431620	810.266434
754.706214	806.416084
756.978249	806.599301
759.251697	803.137762
761.522587	806.407692
763.790921	805.823776
766.060668	809.898601
768.327861	811.629371
770.594483	813.352448
772.860535	813.693007
775.124036	815.646853
777.388950	813.017483
779.653294	816.721678
781.913109	814.311888
784.174336	816.989510
786.434996	817.768531
788.693110	820.482517
790.948679	826.332168
793.207639	827.896503
795.460100	833.507692
797.717927	837.763636
799.971236	840.787413
802.222005	843.684615
804.474186	837.194406
806.723828	831.999301
808.974883	820.493007
811.221426	816.539161
813.469381	811.132867
815.714802	807.108392
817.961634	804.201399
820.207905	792.813287
822.449671	789.112587
824.694821	790.222378
826.933498	790.395804
829.175557	788.422378
831.413118	782.253147
833.652091	774.790909
835.888537	773.833566
838.126394	779.918182
840.361726	782.960140
842.594535	792.583217
844.828755	795.993706
847.060452	798.248951
849.291595	806.446853
851.522183	812.781818
853.752217	815.663636
855.981697	814.762238
858.206695	817.146154
860.435068	810.535664
862.658961	808.653147
864.884266	800.081818
867.105095	791.591608
869.329296	792.671329
871.549024	789.322378
873.770162	792.179720
875.990750	799.076923
878.208829	799.997203
880.428317	808.834266
882.643339	814.580420
884.857814	823.188112
887.071740	824.244755
889.285120	826.072028
891.497952	821.688811
893.710238	822.462238
895.920021	825.565035
898.129259	823.111888
900.337952	821.879720
902.544146	821.737063
904.751749	822.415385
906.956854	826.742657
909.161416	823.365035
911.363483	826.467832
913.566959	828.402098
915.767941	832.160140
917.968381	840.909790
920.170230	866.744755
922.365688	900.946853
924.564505	944.925175
926.758883	1003.345455
928.956619	1068.677622
931.149919	1144.600699
933.344628	1212.987413
935.536851	1273.994406
937.728535	1331.220979
939.919682	1365.536364
942.108346	1392.580420
944.296474	1408.204196
946.482121	1419.590210
948.671120	1424.772028
950.855696	1424.329371
953.039737	1426.051049
955.227128	1424.705594
957.406215	1425.269231
959.588653	1414.681119
961.770557	1414.773427
963.949986	1412.151049
966.126943	1403.206294
968.305308	1400.760140
970.485080	1397.360839
972.658503	1403.141958
974.835272	1409.728671
977.007634	1408.942657
979.181404	1404.283217
981.350770	1391.009091
983.523480	1360.104895
985.693725	1315.179021
987.863441	1262.000000
990.032628	1209.213287
992.197418	1142.627273
994.365549	1086.634965
996.529286	1046.879021
998.694429	1017.079720
1000.857113	987.401399
1003.019272	963.450350
1005.178974	951.431469
1007.338151	943.935664
1009.498735	929.193007
1011.656865	915.972028
1013.814470	907.688112
1015.971552	907.690909
1018.128110	887.575524
1020.280289	878.865035
1022.433875	881.587413
1024.586939	872.659441
1026.737554	868.995105
1028.889576	867.861538
1031.037224	864.221678
1033.188204	856.440559
1035.334813	858.300699
1037.480903	859.745455
1039.626475	858.696503
1041.773452	845.704196
1043.914140	828.028671
1046.058158	821.493706
1048.199735	818.425874
1050.340796	809.324476
1052.483261	812.320280
1054.619447	814.189510
1056.758958	809.486014
1058.894115	812.809790
1061.032596	823.879021
1063.166723	828.066434
1065.300337	815.637762
1067.435356	814.605594
1069.566025	808.202098
1071.698099	806.751748
1073.827744	800.911189
1075.956877	794.260839
1078.085498	790.458042
1080.213608	787.606993
1082.339292	785.414685
1084.464466	783.579021
1086.591044	777.947552
1088.713284	777.462937
1090.836929	768.847552
1092.956239	769.484615
1095.080779	759.588112
1097.199073	755.839161
1099.318772	756.523776
1101.436052	759.239860
1103.552826	760.766434
1105.669093	766.929371
1107.782944	774.044056
1109.898200	770.599301
1112.009132	766.280420
1114.123377	771.570629
1116.233301	766.486014
1118.344629	759.250350
1120.455452	758.809790
1122.561959	752.095804
1124.671776	753.344755
1126.777278	750.209790
1128.884183	750.189510
1130.984873	750.939860
1133.090775	748.068531
1135.192368	739.074126
1137.295364	735.520979
1139.397859	732.739161
1141.494147	726.899301
1143.595643	717.797902
1145.692835	714.313986
1147.789530	711.122378
1149.885726	708.122378
1151.981425	704.130769
1154.076625	719.311189
1156.169429	723.444755
1158.263636	734.120979
1160.351651	749.913287
1162.444864	763.193706
1164.531889	777.397203
1166.622213	790.002098
1168.708250	794.358741
1170.797584	808.374825
1172.880737	812.782517
1174.965292	813.858042
1177.051249	816.516084
1179.132924	824.155944
1181.216001	822.489510
1183.296692	822.885315
1185.376891	825.264336
1187.456599	826.119580
1189.535816	830.058042
1191.612651	828.677622
1193.687105	832.190210
1195.764850	834.372727
1197.838326	827.599301
1199.913202	827.713986
1201.983811	828.004196
1204.055821	823.344755
1206.125456	826.832168
1208.196491	817.896503
1210.267038	819.686713
1212.333324	817.022378
1214.401011	812.939161
1216.466326	812.076224
1218.533041	817.655245
1220.595500	817.087413
1222.661244	814.392308
1224.722734	818.532168
1226.785625	826.215385
1228.846148	833.646853
1230.906187	843.419580
1232.965744	850.317483
1235.022935	864.377622
1237.079645	873.524476
1239.133991	886.528671
1241.191619	899.262238
1243.246884	912.923776
1245.297908	918.766434
1247.350332	925.432168
1249.402276	936.614685
1251.451862	941.834965
1253.500969	948.276224
1255.549598	955.167832
1257.597748	965.409091
1259.645419	970.260140
1261.688860	986.579021
1263.735577	997.987413
1265.779940	1018.532168
1267.823827	1034.632867
1269.865362	1043.955944
1271.904548	1055.141259
1273.947007	1062.028671
1275.985243	1067.405594
1278.024878	1078.060839
1280.064038	1087.772028
1282.098979	1095.533566
1284.135319	1106.613287
1286.169315	1123.289510
1288.204708	1135.854545
1290.235889	1155.797902
1292.268467	1158.395804
1294.300574	1164.172727
1296.330340	1168.469231
1298.361504	1173.037762
1300.388460	1175.041958
1302.416814	1176.791608
1304.440963	1173.268531
1306.468378	1176.965734
1308.491590	1182.779021
1310.516200	1191.124476
1312.538476	1204.530070
1314.562149	1219.360839
1316.583489	1232.855944
1318.604361	1249.993706
1320.624766	1262.093706
1322.640978	1270.465734
1324.658587	1270.696503
1326.673868	1267.516084
1328.692408	1250.327972
1330.706759	1238.231469
1332.718784	1218.191608
1334.734066	1203.797902
1336.745163	1188.154545
1338.757657	1170.876923
1340.765968	1156.446853
1342.777534	1146.659441
1344.783062	1130.758042
1346.791845	1120.004196
1348.796450	1108.939161
1350.804309	1094.819580
1352.811706	1079.575524
1354.813072	1070.948951
1356.815834	1061.339860
1358.818137	1058.764336
1360.819980	1055.702797
1362.821363	1053.132867
1364.820433	1052.929371
1366.819044	1053.493007
1368.817197	1047.565035
1370.814891	1045.140559
1372.808423	1036.563636
1374.803351	1029.149650
1376.797821	1024.231469
1378.791835	1014.322378
1380.783542	1002.595105
1382.774794	991.259441
1384.763740	979.435664
1386.754081	963.192308
1388.743967	944.862238
1390.731549	928.783217
1392.718678	918.108392
1394.703505	913.130769
1396.689727	910.016783
1398.673649	908.175524
1400.657118	909.217483
1402.640134	912.251049
1404.620853	909.487413
1406.602966	907.009091
1408.582783	906.418881
1410.562148	903.002098
1412.537375	900.051049
1414.515840	897.125175
1416.492012	892.697902
1418.467735	892.077622
1420.443008	885.918182
1422.415990	878.181818
1424.388524	874.923077
1426.360610	870.553147
1428.332249	862.486014
1430.299759	856.238462
1432.272343	854.663636
1434.237122	851.790210
1436.206972	851.635664
1438.172699	854.754545
1440.139818	858.944755
1442.104654	871.069231
1444.065370	879.862238
1446.031154	889.258741
1447.990983	898.725175
1449.952206	904.701399
1451.914821	915.564336
1453.873321	923.462238
1455.831378	928.705594
1457.788994	935.732168
1459.746167	942.539860
1461.701065	948.571329
1463.657356	953.400699
1465.611372	953.550350
1467.564947	946.460140
1469.516250	942.894406
1471.468946	939.956643
1473.419369	931.356643
1475.369354	929.353147
1477.318900	925.826573
1479.266177	916.687413
1481.211186	915.988112
1483.157588	912.439161
1485.103552	902.269231
1487.049079	895.532168
1488.992340	889.213986
1490.935166	881.539161
1492.875728	882.095804
1494.817681	879.267133
1496.757372	878.810490
1498.696629	883.954545
1500.635450	884.000699
1502.572012	885.076923
1504.509965	894.399301
1506.445659	902.897203
1508.380920	903.857343
1510.313925	906.292308
1512.246497	913.378322
1514.178637	916.776224
1516.110345	923.827273
1518.039799	928.182517
1519.970644	935.630070
1521.901057	943.106294
1523.827398	945.295804
1525.755130	951.155944
1527.680611	956.712587
1529.605663	959.972727
1531.530286	959.452448
1533.454480	957.122378
1535.376426	967.428671
1537.299763	975.576923
1539.220853	987.856643
1541.139700	1002.295804
1543.059935	1018.290909
1544.977928	1038.075524
1546.895494	1054.760140
1548.810818	1072.253846
1550.727532	1092.326573
1552.640191	1110.415385
1554.556054	1122.736364
1556.469677	1137.003497
1558.381062	1163.731469
1560.293837	1183.553147
1562.202562	1213.296503
1564.112676	1255.193007
1566.022367	1308.018881
1567.931635	1381.670629
1569.838669	1475.717483
1571.743470	1581.280420
1573.649660	1707.009091
1575.553618	1830.853846
1577.457155	1942.238462
1579.360272	2034.537762
1581.261159	2093.718182
1583.163435	2100.393706
1585.063483	2068.741259
1586.964918	2002.381818
1588.862320	1904.741958
1590.759303	1802.549650
1592.655868	1695.832168
1594.553821	1598.241958
1596.445939	1516.913986
1598.341250	1458.143357
1600.236144	1419.592308
1602.128816	1390.588112
1604.021071	1373.344056
1605.911107	1357.279021
1607.800727	1342.371329
1609.689932	1323.855944
1611.578722	1302.315385
1613.465294	1278.835664
1615.353254	1247.891608
1617.237197	1212.593007
1619.122527	1177.779720
1621.007444	1140.339161
1622.890147	1110.630070
1624.774237	1078.220280
1626.654315	1056.079720
1628.535781	1033.904895
1630.415036	1014.239860
1632.295677	995.326573
1634.170514	983.908392
1636.050332	964.869930
1637.926146	949.675524
1639.801549	930.502098
1641.678338	927.690909
1643.549331	908.625874
1645.423505	900.634965
1647.293680	888.378322
1649.167037	878.918182
1651.038190	870.409091
1652.907141	860.974126
1654.777477	854.901399
1656.643821	845.225175
1658.511550	830.868531
1660.377080	820.196503
1662.243996	811.635664
1664.106923	812.620979
1665.971235	803.823077
1667.833351	791.924476
1669.695062	786.370629
1671.558159	783.670629
1673.419060	779.651748
1675.277769	779.928671
1677.136074	774.952448
1678.995764	766.085315
1680.849686	755.567832
1682.706782	754.527972
1684.563475	755.360839
1686.416191	757.346154
1688.272079	753.741259
1690.123993	742.487413
1691.975506	739.092308
1693.826618	733.072028
1695.677330	730.870629
1697.527641	727.793007
1699.375767	722.675524
1701.225278	723.925175
1703.069040	718.412587
1704.917751	720.747552
1706.760716	718.680420
1708.606848	711.416783
1710.449017	705.997902
1712.294352	699.944755
1714.133946	688.751748
1715.974924	682.132168
1717.817285	684.000000
1719.655690	684.188112
1721.495478	694.649650
1723.333091	696.212587
1725.170308	695.139161
1727.005352	691.572028
1728.841779	689.734266
1730.676034	684.711888
1732.509894	678.918881
1734.343360	682.537063
1736.172881	672.607692
1738.005560	671.616084
1739.834295	663.591608
1741.666187	664.529371
1743.494137	668.767133
1745.321696	662.394406
1747.148862	653.852448
1748.975637	651.487413
1750.802020	655.045455
1752.624467	653.287413
1754.450069	649.762238
1756.271736	659.027273
1758.094785	659.240559
1759.915672	660.663636
1761.736171	654.330769
1763.558051	670.905594
1765.374231	681.614685
1767.193563	679.339860
1769.008968	673.569930
1770.827523	678.481119
1772.642153	672.032867
1774.456396	673.323776
1776.270253	671.681119
1778.083723	673.993007
1779.895040	678.263636
1781.707737	681.568531
1783.520049	689.755944
1785.328443	708.245455
1787.138217	709.688811
1788.944077	715.340559
1790.753082	713.655944
1792.558174	708.044056
1794.364647	693.328671
1796.170736	693.686014
1797.972914	678.429371
1799.778237	672.864336
1801.579651	667.506993
1803.382445	667.251748
1805.181333	668.182517
1806.981602	668.062937
1808.781489	665.768531
1810.579234	676.492308
1812.376599	675.716084
1814.173584	676.555944
1815.970188	679.223077
1817.764653	679.941259
1819.560497	679.599301
1821.350686	686.725874
1823.145772	686.127273
1824.935206	687.181119
1826.727776	688.575524
1828.518211	688.225874
1830.306512	690.400000
1832.097948	697.894406
1833.883738	699.363636
1835.670908	699.997203
1837.455946	695.723077
1839.244118	688.561538
1841.028404	694.796503
1842.810560	695.720979
1844.594096	688.551049
1846.375503	689.225175
1848.158289	686.555245
1849.937194	689.955245
1851.717479	694.562937
1853.495637	699.783916
1855.275174	704.928671
1857.052586	705.706993
1858.827874	709.898601
1860.604540	709.980420
1862.379084	716.188112
1864.155006	716.637063
1865.925307	711.872727
1867.698736	710.130070
1869.470045	705.095105
1871.240983	711.013287
1873.013299	716.166434
1874.780001	723.133566
1876.549829	727.334266
1878.315793	729.348252
1880.084880	730.562238
1881.850106	726.893706
1883.614964	727.271329
1885.381199	719.187413
1887.143575	706.991608
1888.905584	702.518182
1890.667225	698.902098
1892.428500	689.951049
1894.189407	685.818881
1895.949948	679.997902
1897.708379	672.053846
1899.466444	665.258042
1901.222402	662.476224
1902.979736	660.083217
1904.736705	654.234266
1906.491567	647.220979
1908.244325	640.053147
1909.996718	636.783217
1911.750488	635.554545
1913.502154	628.025175
1915.251718	631.318881
1917.002657	633.462238
1918.753234	633.974825
1920.499971	639.769930
1922.248085	644.856643
1923.994099	639.425874
1925.741488	637.383916
1927.486780	635.251748
1929.229974	632.958741
1930.974543	634.474825
1932.717017	641.390909
1934.459130	641.254545
1936.200883	643.304545
1937.942276	641.058042
1939.681576	634.835315
1941.420517	633.623077
1943.159099	624.975175
1944.895590	617.609790
1946.631723	614.862587
1948.369230	611.720280
1950.102915	612.015035
1951.837975	617.775524
1953.570946	621.843706
1955.303561	622.035664
1957.035820	621.621329
1958.767722	624.255944
1960.497538	621.838462
1962.225269	624.412587
1963.954375	625.336364
1965.683126	628.588811
1967.409793	624.796503
1969.136106	625.174126
1970.863792	623.272727
1972.585942	624.430769
1974.311193	620.658741
1976.032637	615.452448
1977.757182	612.072727
1979.479646	612.023776
1981.198308	602.804895
1982.920068	598.686713
1984.638026	591.646154
1986.357357	590.735664
1988.072889	583.274825
1989.793241	583.272727
1991.509795	576.057343
1993.222552	575.935664
1994.938405	579.143357
1996.652186	583.748252
1998.365617	591.658042
2000.076977	596.860140
2001.789709	598.218182
2003.498651	601.447552
2005.210685	601.271329
2006.917211	604.431469
2008.626828	602.263636
2010.334379	606.704895
2012.041581	606.800000
2013.746718	605.625175
2015.451509	604.344755
2017.157671	602.423077
2018.860051	604.383916
2020.563802	602.961538
2022.265491	604.479021
2023.966835	604.918881
2025.667833	609.544056
2027.366770	614.193706
2029.067079	616.783916
2030.763613	618.348252
2032.461518	614.625175
2034.157364	608.529371
2035.856296	602.672727
2037.549742	595.647552
2039.244559	586.849650
2040.939034	581.253147
2042.629740	575.761538
2044.323530	573.955245
2046.013553	571.685315
2047.704947	563.313986
2049.394288	556.434965
2051.084999	552.731469
2052.771947	551.292308
2054.458556	553.815385
2056.146534	556.141259
2057.830753	559.041259
2059.516343	558.866434
2061.201593	567.795804
2062.884794	567.453147
2064.569366	573.207692
2066.248475	572.811189
2067.932369	571.049650
2069.610802	572.732867
2071.292313	572.760140
2072.970072	575.453846
2074.647495	581.502797
2076.326287	579.223077
2078.003037	580.195105
2079.677745	579.904895
2081.353822	581.057343
2083.027859	576.014685
2084.701560	579.818881
2086.374926	575.146154
2088.046253	571.821678
2089.717246	574.462937
2091.387905	576.596503
2093.058230	578.656643
2094.728221	581.041958
2096.396176	580.009790
2098.063798	583.716783
2099.729385	583.376224
2101.396341	583.558741
2103.061264	579.360140
2104.725855	583.857343
2106.388414	581.848951
2108.052341	580.709091
2109.714237	579.498601
2111.375803	575.310490
2113.037037	565.558741
2114.696243	569.253846
2116.355118	568.455944
2118.013664	564.974825
2119.671880	563.835664
2121.326372	563.562238
2122.983929	561.825175
2124.641157	571.010490
2126.294663	570.763636
2127.949537	570.715385
2129.600692	568.911189
2131.254910	564.474825
2132.905411	552.096503
2134.557278	551.123776
2136.203737	544.249650
2137.854951	541.695105
2139.502451	537.983916
2141.151318	539.736364
2142.798166	540.534266
2144.444689	545.051748
2146.090886	552.229371
2147.733375	562.513986
2149.378922	569.030769
2151.020762	573.564336
2152.665659	569.681818
2154.306850	577.255944
2155.947719	578.974126
2157.588263	580.112587
2159.226795	576.600699
2160.866693	577.400699
2162.502891	572.188112
2164.140455	572.559441
2165.777697	577.740559
2167.412929	576.759441
2169.047840	582.236364
2170.682428	584.642657
2172.316696	582.755944
2173.947270	584.428671
2175.580896	583.645455
2177.210830	584.537762
2178.842129	578.084615
2180.471423	575.050350
2182.100398	568.703497
2183.729053	573.455944
2185.357389	573.513986
2186.983723	576.262937
2188.609738	583.611888
2190.233751	581.466434
2191.859130	578.039860
2193.482508	575.093007
2195.107251	571.000000
2196.728313	564.734965
2198.349058	559.095804
2199.971168	559.229371
2201.591280	557.883217
2203.209395	567.551049
2204.827195	573.534965
2206.444680	580.541958
2208.061849	588.545455
2209.678703	594.535664
2211.295241	597.813287
2212.909787	598.553147
2214.522340	588.546154
2216.136257	583.355245
2217.748183	581.408392
2219.361472	579.860140
2220.972771	575.896503
2222.582080	577.411888
2224.192753	575.040559
2225.801437	571.561538
2227.409808	573.762238
2229.016193	573.607692
2230.623941	570.370629
2232.229702	564.003497
2233.835152	552.874825
2235.438617	548.930769
2237.043445	539.465035
2238.646289	540.668531
2240.247150	539.117483
2241.849374	540.353147
2243.449616	545.553147
2245.051220	551.184615
2246.649171	558.687413
2248.248485	570.325874
2249.845819	580.995804
2251.442845	590.180420
2253.041233	593.650350
2254.635972	596.418182
2256.228734	599.856643
2257.822859	609.321678
2259.418345	607.877622
2261.010186	604.474126
2262.601721	600.813986
2264.194618	596.731469
2265.782205	599.925874
2267.374488	596.984615
2268.961465	593.157343
2270.551469	592.026573
2272.136169	585.993706
2273.725563	590.137063
2275.309655	594.068531
2276.895107	588.939161
2278.478591	579.773427
2280.065100	568.161538
2281.647976	560.834266
2283.230549	558.812587
2284.812818	556.630070
2286.391457	548.055944
2287.973121	541.948951
2289.551156	542.789510
2291.132214	541.878322
2292.709645	545.097203
2294.285113	536.339860
2295.863603	534.546853
2297.438469	528.807692
2299.013034	522.839161
2300.587299	525.067832
2302.161263	527.734965
2303.734926	530.323077
2305.308290	527.867832
2306.878035	524.500699
2308.447481	525.695105
2310.019945	526.136364
2311.587135	532.113986
2313.157343	531.304196
2314.723936	529.781818
2316.291889	525.379720
2317.857886	530.799301
2319.423586	530.513986
2320.988988	533.226573
2322.552437	537.489510
2324.117245	535.161538
2325.678445	536.564336
2327.242659	537.990909
2328.801611	534.030769
2330.363578	537.790909
2331.923593	522.470629
2333.483314	508.820280
2335.041085	509.731469
2336.598561	512.004895
2338.155743	510.304196
2339.710977	509.747552
2341.265918	508.450350
2342.820564	507.185315
2344.374917	507.908392
2345.928977	515.068531
2347.482742	512.925874
2349.034564	519.959441
2350.584442	513.459441
2352.137328	519.437063
2353.684972	530.250350
2355.235623	537.924476
2356.782683	544.593007
2358.331101	536.785315
2359.879228	536.804196
2361.423766	543.834965
2362.969662	543.948252
2364.513620	544.094406
2366.058935	545.168531
2367.600665	547.707692
2369.143752	549.932867
2370.684903	543.051049
2372.225765	533.616084
2373.766338	535.598601
2375.306622	532.798601
2376.846617	528.501399
2378.383034	527.877622
2379.922452	532.719580
2381.458293	522.120280
2382.995490	515.180420
2384.529112	517.654545
2386.065734	515.358042
2387.600426	513.564336
2389.133188	507.805594
2390.665663	512.169231
2392.196210	529.559441
2393.729755	531.293007
2395.258089	533.480420
2396.787780	544.904895
2398.317184	549.174825
2399.846304	544.854545
2401.375139	545.866434
2402.898768	551.611189
2404.427033	554.230070
2405.950096	560.353846
2407.477792	574.595105
2408.998649	583.443357
2410.524139	574.209091
2412.046068	563.830769
2413.569353	555.141259
2415.090716	557.465734
2416.610160	543.316084
2418.130959	538.067133
2419.649840	538.190909
2421.168438	544.765035
2422.685119	543.905594
2424.203154	553.045455
2425.720908	565.783217
2427.235111	571.436364
2428.749033	564.938462
2430.262675	569.569930
2431.777672	567.072727
2433.289120	572.179021
2434.801923	573.332867
2436.312812	575.232867
2437.823423	571.794406
2439.332122	571.114685
2440.843807	569.611189
2442.351949	581.412587
2443.859813	592.363636
2445.367399	603.167832
2446.871444	615.663636
2448.378474	619.300699
2449.883597	625.237063
2451.388441	630.073427
2452.891379	633.643357
2454.394041	623.376923
2455.896426	618.678322
2457.396906	614.809091
2458.898739	615.069231
2460.398667	615.904895
2461.898320	614.036364
2463.397698	618.956643
2464.895173	623.318182
2466.390746	611.895804
2467.889299	601.174825
2469.384324	586.274126
2470.880701	578.119580
2472.373552	564.665035
2473.867756	564.476923
2475.361686	559.049650
2476.852092	559.508392
2478.345476	561.764336
2479.836962	565.243357
2481.326551	564.778322
2482.815868	567.675524
2484.303289	551.308392
2485.793686	540.416084
2487.280565	544.004895
2488.768795	545.706294
2490.253508	542.777622
2491.737952	542.858042
2493.223746	542.459441
2494.707649	544.541259
2496.192902	541.977622
2497.673022	544.780420
2499.156115	534.167832
2500.637317	539.663636
2502.118250	531.581818
2503.597294	535.688811
2505.076069	539.822378
2506.554576	538.021678
2508.032815	529.083217
2509.510785	517.981119
2510.985250	513.762238
2512.462685	511.423776
2513.936616	501.339161
2515.411897	507.686713
2516.886911	497.613986
2518.358425	503.558741
2519.831288	499.790210
2521.302269	500.690909
2522.774600	506.358042
2524.241817	509.500000
2525.712001	502.365035
2527.180304	496.642657
2528.648342	500.296503
2530.116115	499.436364
2531.583623	492.753147
2533.050866	490.079720
2534.514617	485.851049
2535.979718	486.647552
2537.442942	483.071329
2538.907516	486.591608
2540.368600	491.893007
2541.831034	490.404196
2543.293205	494.450350
2544.751890	497.983217
2546.215147	505.155944
2547.673307	504.803497
2549.132816	505.393706
2550.587231	512.400699
2552.046217	520.024476
2553.503331	520.453846
2554.958574	526.521678
2556.413555	532.504895
2557.866668	537.743357
2559.321129	542.604196
2560.773720	548.890909
2562.226052	546.944755
2563.676517	548.690210
2565.129937	544.453846
2566.578275	540.232168
2568.029569	544.766434
2569.478996	537.920979
2570.924951	538.627972
2572.373861	540.586014
2573.819301	544.178322
2575.266088	543.486014
2576.711013	542.653147
2578.155679	544.443357
2579.601693	542.267133
2581.044241	548.595804
2582.488136	547.046853
2583.928566	549.290210
2585.370343	557.567133
2586.810261	554.370629
2588.251526	561.276923
2589.689329	564.311189
2591.130082	569.567133
2592.565773	570.691608
2594.004413	569.533566
2595.441195	573.545455
2596.876122	565.801399
2598.313996	564.693706
2599.746813	553.959441
2601.180977	546.223077
2602.613287	535.974126
2604.046943	522.129371
2605.478746	514.493007
2606.910295	507.296503
2608.341592	503.305594
2609.771036	505.439161
2611.200228	506.325874
2612.627570	512.325175
2614.056257	509.651748
2615.484693	511.283916
2616.909681	515.516084
2618.336016	514.197203
2619.760502	527.236364
2621.186334	531.607692
2622.608722	542.637762
2624.032456	548.453147
2625.454343	556.982517
2626.875981	571.946853
2628.295773	581.839161
2629.716911	582.225175
2631.137799	589.244056
2632.555249	591.679720
2633.975638	600.462937
2635.392590	607.510490
2636.809293	627.267832
2638.225748	643.230769
2639.641955	660.491608
2641.057914	665.813986
2642.472032	678.741958
2643.885902	697.424476
2645.297934	711.785315
2646.711309	721.663636
2648.121255	746.213986
2649.534137	757.196503
2650.943590	785.038462
2652.352797	812.320280
2653.760168	841.181119
2655.170473	879.894406
2656.578943	909.435664
2657.985577	945.169930
2659.391966	984.404895
2660.796521	1027.391608
2662.202420	1079.015385
2663.606486	1125.168531
2665.010307	1191.586713
2666.413884	1248.980420
2667.815630	1321.960839
2669.218719	1391.610490
2670.618390	1469.779021
2672.019405	1554.600000
2673.417004	1632.777622
2674.817533	1716.049650
2676.214646	1783.068531
2677.613103	1857.291608
2679.009733	1930.695105
2680.406120	1982.776923
2681.802265	2030.070629
2683.196585	2057.564336
2684.592246	2065.106993
2685.984499	2067.589510
2687.378094	2046.966434
2688.769865	2013.137762
2690.162979	1967.232867
2691.554269	1909.370629
2692.943736	1843.654545
2694.332963	1777.244056
2695.721951	1702.204196
2697.112280	1616.169930
2698.497626	1534.900699
2699.885895	1463.295804
2701.272344	1384.021678
2702.658554	1323.132168
2704.044525	1250.303497
2705.427098	1184.692308
2706.811013	1131.006294
2708.194690	1074.544056
2709.578128	1025.920280
2710.958172	975.388811
2712.339556	927.723776
2713.719126	885.461538
2715.100036	853.665035
2716.479132	827.648252
2717.856414	802.611189
2719.235037	779.080420
2720.611847	755.532168
2721.988420	730.516783
2723.364758	713.732867
2724.739285	690.062238
2726.115152	668.995105
2727.487632	651.404196
2728.863028	633.380420
2730.233464	615.762238
2731.605241	608.511189
2732.976783	595.086713
2734.346517	592.181818
2735.717592	581.544056
2737.086858	580.898601
2738.455891	573.610490
2739.823118	567.279021
2741.190112	555.948252
2742.556872	548.612587
2743.923401	543.281818
2745.288124	535.882517
2746.652615	530.298601
2748.016875	532.877622
2749.380902	528.031469
2750.744698	528.283217
2752.105120	523.815385
2753.468452	516.572028
2754.826842	506.982517
2756.188142	501.361538
2757.546072	493.574126
2758.906910	485.551049
2760.265949	476.706294
2761.621619	472.000000
2762.980197	476.060839
2764.335408	480.220280
2765.690390	475.878322
2767.043576	472.409790
2768.399668	469.302098
2769.752395	461.721678
2771.104895	460.843357
2772.457166	464.489510
2773.810776	461.032867
2775.161024	456.088811
2776.509478	454.068531
2777.860838	462.062238
2779.208838	470.765035
2780.558176	469.118182
2781.905722	468.586014
2783.253042	466.324476
2784.600135	465.126573
2785.945437	464.243357
2787.290512	467.278322
2788.635362	471.689510
2789.979986	475.500699
2791.321258	471.960839
2792.663868	473.268531
2794.006252	474.723077
2795.348411	471.855245
2796.687221	471.530070
2798.028931	473.857343
2799.367293	467.462238
2800.706991	465.060839
2802.044905	461.049650
2803.381034	463.363636
2804.716939	469.583217
2806.054182	471.456643
2807.389641	469.790909
2808.724877	476.349650
2810.058330	480.560839
2811.393120	492.767832
2812.724570	508.258042
2814.058915	510.501399
2815.388362	511.127972
2816.719146	503.974126
2818.049708	499.061538
2819.378491	490.581119
2820.708610	480.918182
2822.036951	463.706993
2823.365071	458.986713
2824.691413	447.753846
2826.019092	436.795105
2827.343437	434.392308
2828.669119	427.583916
2829.993025	419.453147
2831.316712	417.976224
2832.641734	412.412587
2833.963426	416.229371
2835.284900	416.520979
2836.606155	415.780420
2837.927191	418.634266
2839.246454	426.303497
2840.567053	425.441958
2841.885881	429.921678
2843.204490	429.134266
2844.521328	426.041958
2845.837949	425.543357
2847.154353	423.455944
2848.468987	422.336364
2849.784957	421.876224
2851.097606	420.051748
2852.411590	422.515385
2853.725358	418.461538
2855.038909	419.620280
2856.350694	426.327972
2857.660712	425.597203
2858.972065	416.204196
2860.280103	416.580420
2861.589475	416.451748
2862.898633	409.645455
2864.207575	410.811189
2865.514753	406.890210
2866.820169	408.819580
2868.126919	410.925874
2869.431906	408.799301
2870.736680	412.372028
2872.039692	412.838462
2873.345585	405.312587
2874.646624	398.577622
2875.948997	395.301399
2877.249610	387.953846
2878.551557	376.515385
2879.853290	380.841259
2881.151720	384.234266
2882.451483	388.903497
2883.749489	392.753846
2885.047283	395.722378
2886.343321	395.301399
2887.640692	397.411189
2888.936307	405.395804
2890.231711	405.625874
2891.526904	401.987413
2892.818800	388.814685
2894.113572	384.867133
2895.405047	384.813986
2896.697855	379.334965
2897.990453	377.186713
2899.279757	377.560140
2900.570393	374.372028
2901.859278	379.494406
2903.149495	392.511189
2904.436421	396.465035
2905.724679	398.671329
2907.011188	397.053147
2908.297489	392.947552
2909.583581	392.152448
2910.867925	386.661538
2912.155140	387.801399
2913.437529	396.058042
2914.721250	401.914685
2916.003225	408.988112
2917.284992	417.212587
2918.565015	420.827273
2919.847907	414.000699
2921.129054	418.572028
2922.406919	417.511888
2923.687653	412.641259
2924.965106	404.824476
2926.242353	403.489510
2927.517858	405.479720
2928.796231	404.883916
2930.069790	402.325175
2931.346216	400.354545
2932.620901	399.475524
2933.893845	395.387413
2935.168121	393.882517
2936.440657	388.718182
2937.712988	387.223077
2938.982047	384.823077
2940.253971	390.935664
2941.524157	397.232168
2942.794139	401.151748
2944.063918	405.548252
2945.331961	405.502098
2946.598267	402.295105
2947.864372	401.518182
2949.131806	397.372727
2950.397506	393.823776
2951.663003	384.020280
2952.928298	381.790210
2954.190328	382.841259
2955.453688	387.972028
2956.716847	382.482517
2957.978274	381.341259
2959.241030	381.634965
2960.502054	379.655245
2961.761348	369.229371
2963.020442	369.226573
2964.279335	359.755245
2965.538028	357.755245
2966.796521	360.664336
2968.053285	362.156643
2969.309849	359.606993
2970.564686	358.687413
2971.820851	356.481818
2973.073762	363.143357
2974.328002	364.695105
2975.582043	365.928671
2976.834358	362.713287
2978.086474	371.132168
2979.336866	365.525175
2980.590113	369.767832
2981.838583	370.566434
2983.089908	369.220979
2984.337983	362.656643
2985.585862	364.365035
2986.833543	361.800699
2988.081027	358.468531
2989.326790	348.351748
2990.572357	346.769930
2991.819251	344.499301
2993.062901	352.030070
2994.307879	352.969930
2995.549613	352.332168
2996.794199	353.073427
2998.037066	362.793007
2999.276692	364.829371
3000.519168	375.520280
3001.758404	370.600000
3002.998968	371.728671
3004.237816	367.759441
3005.476468	364.478322
3006.713406	359.195804
3007.951670	356.816084
3009.188219	351.507692
3010.424575	346.173427
3011.660737	342.836364
3012.895185	349.132168
3014.129441	347.411189
3015.363503	355.230769
3016.595853	349.995804
3017.826491	353.281818
3019.059975	354.062238
3020.291747	348.761538
3021.521809	352.856643
3022.751679	345.762238
3023.979839	343.641259
3025.209325	340.279720
3026.437102	345.163636
3027.664688	349.325874
3028.893601	348.950350
3030.117771	349.106993
3031.344784	348.162937
3032.568573	354.831469
3033.793689	356.288811
3035.017098	359.222378
3036.240317	365.960140
3037.461831	363.888811
3038.686186	364.276923
3039.905806	368.074126
3041.126752	367.546154
3042.347509	362.762937
3043.566562	358.405594
3044.786940	349.026573
3046.004102	345.309091
3047.222590	337.735664
3048.439375	331.711189
3049.655973	328.981818
3050.872382	324.941958
3052.085579	318.883916
3053.301613	319.077622
3054.514435	326.783217
3055.730094	325.604196
3056.941030	332.920280
3058.153291	334.882517
3059.365366	338.122378
3060.577253	337.323776
3061.787444	334.979021
3062.997448	334.964336
3064.207266	325.599301
3065.415388	321.002098
3066.623325	314.160839
3067.829566	312.897203
3069.037132	312.139860
3070.243003	306.185315
3071.448690	311.542657
3072.654191	305.737063
3073.857999	304.501399
3075.063131	300.681119
3076.266570	298.034266
3077.468318	299.194406
3078.669881	296.730070
3079.871261	301.953846
3081.072457	299.848951
3082.271963	296.968531
3083.471286	299.072727
3084.671932	296.915385
3085.870888	300.359441
3087.066650	293.464336
3088.265241	289.497203
3089.460638	285.775524
3090.657358	283.557343
3091.850886	288.356643
3093.047242	293.043357
3094.241912	296.070629
3095.433391	293.531469
3096.629201	296.949650
3097.820318	296.528671
3099.012757	292.790909
3100.202009	295.188112
3101.394086	294.500000
3102.584480	292.265734
3103.771688	291.767832
3104.960219	291.842657
3106.150071	293.486713
3107.336740	292.469231
3108.523228	289.257343
3109.709538	281.329371
3110.897169	280.546853
3112.081618	280.186014
3113.264388	283.014685
3114.449980	287.217483
3115.633893	289.593007
3116.816127	294.725874
3117.998182	297.846154
3119.180059	297.780420
3120.361758	294.276224
3121.541780	287.286014
3122.720125	283.694406
3123.901290	281.949650
3125.079280	285.437762
3126.257094	288.958042
3127.434730	289.093706
3128.610691	288.801399
3129.786475	287.191608
3130.963581	290.193706
3132.139012	285.327972
3133.312770	278.825175
3134.484855	269.553846
3135.658262	270.539860
3136.831492	268.300699
3138.003051	275.758741
3139.175930	274.221678
3140.345642	280.096503
3141.516675	284.185315
3142.686038	293.106294
3143.853730	297.513287
3145.024238	303.990909
3146.190088	305.413986
3147.360246	308.702098
3148.525748	309.046154
3149.691075	310.036364
3150.856229	297.502098
3152.021210	289.776224
3153.187510	282.228671
3154.349158	283.855245
3155.512125	280.062238
3156.674920	278.967832
3157.837542	276.320280
3158.998499	283.922378
3160.159283	290.949650
3161.319895	301.162238
3162.478843	305.315385
3163.637620	304.662937
3164.796225	302.711888
3165.954657	300.081818
3167.112919	304.529371
3168.269518	308.043357
3169.424456	304.525175
3170.580713	297.888811
3171.735309	301.700000
3172.889735	301.049650
3174.042501	300.092308
3175.195096	300.322378
3176.347522	294.592308
3177.499778	292.908392
3178.651863	285.560839
3179.800803	279.819580
3180.952549	285.839161
3182.102637	284.545455
3183.251069	289.956643
3184.399331	289.634266
3185.547425	295.113986
3186.695350	290.839860
3187.841619	299.434266
3188.987720	295.449650
3190.132167	291.067832
3191.276446	289.544755
3192.420557	278.984615
3193.565985	277.575524
3194.708275	273.992308
3195.850398	274.509790
3196.992353	280.169231
3198.134141	278.961538
3199.275762	280.572028
3200.414248	281.530769
3201.554051	288.266434
3202.695172	291.158042
3203.833158	298.504895
3204.969495	295.758042
3206.105666	291.650350
3207.243154	293.045455
3208.378994	288.955944
3209.516151	293.580420
3210.648695	290.172028
3211.785521	282.890909
3212.917735	274.716783
3214.051266	271.830070
3215.184633	274.562937
3216.314872	279.526573
3217.447909	276.053147
3218.577820	268.841259
3219.709047	276.402098
3220.837150	278.949650
3221.968049	272.801399
3223.097304	267.481818
3224.224916	267.994406
3225.349405	266.500699
3226.478170	270.891608
3227.603813	280.365734
3228.729294	291.476923
3229.853133	297.149650
3230.979766	297.825874
3232.101802	300.829371
3233.225154	309.082517
3234.348344	304.781119
3235.471372	302.439161
3236.592760	299.509091
3237.713986	299.125874
3238.833575	299.846154
3239.953002	299.655944
3241.070791	298.009091
3242.191372	300.072727
3243.308840	299.841259
3244.426147	297.806294
3245.543294	291.055245
3246.658805	291.160839
3247.775630	289.958741
3248.889346	291.554545
3250.005851	289.348951
3251.120722	284.182517
3252.232484	280.636364
3253.344086	277.087413
3254.457004	269.097902
3255.569762	268.042657
3256.679414	261.680420
3257.790381	254.658042
3258.901189	251.372727
3260.010365	255.358741
3261.117911	257.381119
3262.226770	257.956643
3263.335472	261.644056
3264.441071	260.870629
3265.547984	260.997203
3266.653268	262.087413
3267.759866	257.678322
3268.863364	255.782517
3269.968177	252.893706
3271.072832	250.462937
3272.174388	252.985315
3273.275788	254.569930
3274.378502	248.725874
3275.481060	241.151748
3276.580521	239.962238
3277.682766	232.506993
3278.781915	229.732867
3279.879440	225.679720
3280.976809	226.375524
3282.076960	235.682517
3283.174019	246.982517
3284.270922	251.809091
3285.367670	257.218881
3286.459860	258.591608
3287.556298	255.927972
3288.651114	252.824476
3289.745776	249.238462
3290.838816	242.318182
3291.931701	240.851748
3293.022967	233.158042
3294.115544	231.886713
3295.206502	235.585315
3296.295840	231.733566
3297.385025	235.018182
3298.475523	230.912587
3299.562936	230.141958
3300.650196	233.229371
3301.738769	239.144056
3302.827190	246.770629
3303.911063	254.677622
3304.999178	260.188112
3306.084211	255.747552
3307.167629	257.000000
3308.252359	254.981119
3309.335473	252.966434
3310.419900	251.914685
3311.501248	244.181119
3312.583908	242.760140
3313.664954	241.321678
3314.745849	237.908392
3315.825130	236.260140
3316.904261	233.840559
3317.984704	235.026573
3319.062072	224.965035
3320.140752	226.587413
3321.217820	225.376923
3322.294739	228.711189
3323.370046	227.866434
3324.445204	222.849650
3325.521673	222.499301
3326.595072	216.288112
3327.668322	212.612587
3328.742882	211.123077
3329.815834	210.622378
3330.887177	215.629371
3331.959831	210.832867
3333.029419	215.372028
3334.100317	217.704196
3335.169608	227.834266
3336.240210	231.983217
3337.309205	231.796503
3338.376594	239.280420
3339.442378	240.769231
3340.512388	241.579720
3341.579335	238.570629
3342.643220	234.355944
3343.709873	235.002098
3344.774921	220.868531
3345.838366	216.128671
3346.901665	214.595804
3347.964817	221.527972
3349.027823	219.800000
3350.090683	221.590210
3351.151941	227.930070
3352.210142	227.515385
3353.272563	232.181119
3354.331929	235.305594
3355.391149	233.304895
3356.451679	231.886014
3357.507699	224.311888
3358.566483	224.672028
3359.620760	223.400699
3360.677801	225.915385
3361.733243	218.958741
3362.789995	216.837063
3363.845148	220.305594
3364.898704	222.050350
3365.950664	219.774825
3367.005385	220.792308
3368.057057	216.837063
3369.108586	214.328671
3370.161423	214.264336
3371.211213	216.002797
3372.262312	217.814685
3373.310365	216.941958
3374.361177	220.819580
3375.408945	218.009790
3376.456570	224.039161
3377.504052	223.937063
3378.549942	215.503497
3379.597140	218.151748
3380.641296	213.222378
3381.688210	210.213986
3382.733532	210.283217
3383.775813	212.047552
3384.817954	214.389510
3385.861402	215.245455
3386.904709	225.536364
3387.946427	224.977622
3388.988003	232.730070
3390.029438	236.088811
3391.069285	236.281119
3392.107543	234.165734
3393.147109	229.095105
3394.186535	220.602797
3395.224373	215.134266
3396.260624	214.406993
3397.296736	213.997902
3398.334155	213.250350
3399.368541	212.590210
3400.404234	214.934965
3401.439788	222.028671
3402.472311	229.348252
3403.507587	230.313986
3404.539832	231.867832
3405.571939	223.267832
3406.602462	216.431469
3407.634292	216.321678
3408.665984	216.755944
3409.694648	218.600000
3410.723175	213.660140
3411.753008	207.994406
3412.782704	209.125175
3413.809374	218.204895
3414.837351	223.910490
3415.862303	223.479720
3416.890005	219.755944
3417.914684	213.283916
3418.940669	219.716783
3419.965074	221.338462
3420.989343	222.936364
3422.012033	223.484615
3423.034587	217.252448
3424.058447	220.507692
3425.079287	223.518182
3426.099991	228.498601
3427.122002	232.396653
3428.140994	234.072128
3429.159850	232.384815
3430.180013	226.194505
3431.197159	214.360989
