-118.059454	18.535989
-115.389854	10.629670
-112.723189	5.231219
-110.057276	1.992907
-107.394295	0.567008
-104.729885	0.605794
-102.068405	1.761538
-99.405496	2.911189
-96.747693	4.600699
-94.088461	10.186713
-91.429977	11.306294
-88.774417	11.860140
-86.117429	12.176923
-83.465539	12.776224
-80.812218	8.332168
-78.161818	5.746853
-75.509988	3.704895
-72.863249	3.281818
-70.215081	3.404895
-67.567655	4.858741
-64.923143	5.734965
-62.277203	9.832867
-59.636344	10.238462
-56.994056	12.897902
-54.354677	15.725874
-51.713868	17.859441
-49.073800	17.283916
-46.438804	19.360839
-43.802380	19.174126
-41.168858	21.810490
-38.533908	25.139161
-35.904023	28.200000
-33.270546	26.898601
-30.642131	28.593706
-28.014450	24.481119
-25.385340	10.451748
-22.761287	-68.716783
-20.133645	-284.431469
-17.511056	-809.485315
-14.889199	-1214.860140
-12.268072	727.823077
-9.647675	4172.460140
-7.030167	7004.039161
-4.411230	8986.026573
-1.795178	10101.143357
0.820145	10351.374126
3.434741	9737.329371
6.046454	8272.093706
8.659596	6004.497902
11.267704	3127.316084
13.879394	133.539860
16.486053	-1713.119580
19.094140	-1073.715385
21.701503	-80.320979
24.303841	21.868531
26.909757	26.341259
29.510651	23.737063
32.112973	22.151748
34.710278	16.897902
37.311158	15.011888
39.907023	15.149650
42.504317	14.094406
45.100891	14.436364
47.692456	13.250350
50.285449	9.404196
52.875581	10.674825
55.467141	6.872028
58.055841	8.838462
60.645968	6.100000
63.231096	5.526573
65.817652	3.589510
68.403494	5.767133
70.986482	8.453147
73.570896	11.432867
76.148182	11.747552
78.729034	12.133566
81.307037	10.912587
83.884330	12.853846
86.463049	13.400699
89.036786	13.774126
91.611951	10.984615
94.184272	10.320979
96.755885	12.631469
99.324658	12.411888
101.894858	14.971329
104.462220	15.206993
107.031007	14.217483
109.596958	15.116783
112.160074	15.256643
114.726746	22.399301
117.284197	27.355245
119.847333	34.393007
122.405509	48.320280
124.967240	79.882517
127.524014	133.870629
130.082215	215.391608
132.635462	328.074126
135.188012	474.583916
137.744112	644.205594
140.295264	828.423776
142.845719	1009.889510
145.395476	1177.406993
147.942414	1313.098601
150.488657	1413.223776
153.036325	1476.188811
155.583297	1505.060839
158.125334	1504.064336
160.666677	1496.025874
163.207327	1471.745455
165.749403	1452.068531
168.288667	1432.937762
170.825123	1423.741259
173.360887	1415.900000
175.898077	1408.560140
178.434576	1406.832867
180.968269	1410.268531
183.499158	1414.228671
186.029360	1414.844755
188.560986	1412.681119
191.089811	1413.714685
193.615837	1403.405594
196.141177	1401.969231
198.667942	1396.477622
201.191911	1393.163636
203.715195	1388.460839
206.237794	1381.180420
208.757600	1379.549650
211.276723	1384.213986
213.795163	1395.033566
216.315027	1410.658042
218.827890	1430.820280
221.344284	1451.120280
223.859996	1473.853147
226.370818	1499.558042
228.883065	1519.449650
231.392530	1541.306294
233.901316	1557.034266
236.409423	1564.381119
238.918955	1566.334266
241.423606	1568.281818
243.927581	1569.881119
246.432980	1565.392308
248.933504	1561.234965
251.437552	1557.233566
253.934628	1552.322378
256.435228	1549.758042
258.933056	1547.216084
261.430211	1548.301399
263.926693	1546.093706
266.418312	1544.652448
268.913451	1538.767832
271.405823	1544.246853
273.897525	1545.339161
276.386464	1550.620979
278.876827	1557.560140
281.364427	1568.897203
283.849268	1578.926573
286.337624	1594.787413
288.819040	1614.708392
291.303970	1646.485315
293.784055	1679.742657
296.267652	1714.243357
298.746406	1735.939161
301.226584	1757.483217
303.704009	1757.733566
306.180771	1749.702098
308.656870	1738.787413
311.130220	1730.439161
313.602908	1715.458042
316.074935	1699.317483
318.546301	1692.875524
321.014922	1686.166434
323.482885	1675.325175
325.952269	1661.034266
328.416831	1636.591608
330.884897	1608.545455
333.348143	1572.648951
335.810731	1542.815385
338.272663	1525.411888
340.733938	1507.789510
343.192479	1483.683916
345.652442	1462.734965
348.109672	1443.650350
350.566248	1420.772727
353.022170	1397.708392
355.475362	1379.223077
357.929977	1360.881818
360.379790	1348.609091
362.833099	1337.161538
365.281610	1331.653846
367.729469	1318.893007
370.178751	1303.233566
372.623239	1286.019580
375.069149	1270.894406
377.514409	1252.111189
379.956951	1238.409091
382.398845	1219.078322
384.840092	1207.059441
387.278623	1193.688811
389.718576	1191.723077
392.155815	1185.221678
394.590342	1186.532168
397.028357	1180.037762
399.461595	1176.006993
401.896254	1171.298601
404.326141	1171.658042
406.759513	1169.566434
409.188115	1166.402098
411.616075	1160.106294
414.045457	1155.714685
416.470073	1148.370629
418.896111	1145.748252
421.321508	1139.661538
423.746265	1140.901399
426.166264	1124.876224
428.587684	1111.342657
431.006407	1098.968531
433.426551	1087.839860
435.844000	1068.189510
438.262869	1049.623776
440.679045	1030.220979
443.090473	1005.250350
445.505379	980.931469
447.917594	957.774825
450.329175	939.177622
452.740122	921.786713
455.148383	897.823776
457.556011	887.760140
459.963007	879.549650
462.369372	872.745455
464.773054	870.497203
467.176106	877.130070
469.578528	879.726573
471.980320	883.587413
474.379435	891.934266
476.779969	905.992308
479.179874	918.294406
481.575056	936.632168
483.973705	955.032168
486.367634	975.903497
488.760937	999.217483
491.153614	1034.227273
493.545666	1084.069231
495.939136	1152.430070
498.327894	1277.223776
500.713986	1534.471329
503.101498	2046.827972
505.488387	2988.309790
507.872612	4343.202797
510.258255	5955.988112
512.641237	7550.410490
515.021558	8889.830769
517.403298	9794.531469
519.782379	10165.462937
522.162879	9952.430070
524.540721	9211.046853
526.915908	8064.969231
529.290477	6720.767832
531.666464	5456.886014
534.039799	4502.510490
536.414551	3858.599301
538.784618	3442.300000
541.154069	3140.726573
543.524938	2897.558741
545.891127	2689.561538
548.258734	2511.500699
550.623695	2354.590909
552.988043	2230.125175
555.351778	2121.382517
557.716931	2024.483217
560.077412	1942.138462
562.439311	1869.771329
564.798569	1805.416783
567.155190	1753.141259
569.515255	1702.137762
571.868629	1657.790909
574.225448	1614.340559
576.579632	1574.362937
578.933208	1534.888112
581.286175	1496.490210
583.636510	1462.893706
585.988263	1428.155245
588.333339	1391.810490
590.683879	1358.132867
593.027745	1326.449650
595.377073	1299.675524
597.721752	1275.819580
600.063807	1262.190909
602.407279	1256.155245
604.748128	1268.419580
607.088375	1296.334965
609.426001	1331.131469
611.767062	1368.762937
614.103485	1401.731469
616.441325	1420.414685
618.776548	1422.152448
621.109155	1406.552448
623.443178	1379.385315
625.774587	1336.318182
628.105398	1291.773427
630.435612	1249.676224
632.765227	1220.686713
635.090220	1202.343357
637.420653	1184.408392
639.746466	1165.689510
642.069671	1154.093706
644.394293	1139.848252
646.716309	1123.336364
649.037731	1116.499301
651.356551	1112.320280
653.676786	1101.497902
655.996428	1097.615385
658.313469	1093.128671
660.629918	1092.453147
662.943769	1088.230070
665.259036	1086.490210
667.571706	1084.286014
669.885791	1081.300000
672.195276	1081.876923
674.506177	1083.064336
676.814485	1088.196503
679.122205	1086.921678
681.431339	1079.458741
683.735881	1072.897203
686.039837	1061.588112
688.343207	1045.108392
690.647991	1023.363636
692.948189	1004.693007
695.249801	985.879021
697.550829	959.993706
699.847274	944.071329
702.145135	932.967133
704.442412	922.625874
706.739106	912.739860
709.031224	907.444755
711.326753	905.825175
713.617708	901.686014
715.910078	899.660839
718.199873	899.067832
720.489087	900.639161
722.777722	901.567133
725.063784	899.013287
727.351261	899.379021
729.636166	899.492308
731.920494	897.338462
734.202253	893.479720
736.485426	889.291608
738.768022	883.206294
741.046062	874.782517
743.325517	873.972028
745.604395	870.142657
747.882699	869.881818
750.156453	865.216084
752.431620	863.668531
754.706214	858.573427
756.978249	853.595804
759.251697	852.764336
761.522587	853.073427
763.790921	850.576923
766.060668	850.590909
768.327861	850.196503
770.594483	857.476224
772.860535	860.355245
775.124036	871.095105
777.388950	867.538462
779.653294	869.704196
781.913109	867.053846
784.174336	868.537063
786.434996	869.417483
788.693110	866.067832
790.948679	862.304196
793.207639	860.627273
795.460100	859.190909
797.717927	863.900699
799.971236	866.621678
802.222005	868.958042
804.474186	864.181119
806.723828	868.999301
808.974883	866.846853
811.221426	864.295804
813.469381	861.122378
815.714802	851.650350
817.961634	843.801399
820.207905	834.451748
822.449671	827.834266
824.694821	826.239860
826.933498	824.302797
829.175557	817.456643
831.413118	819.376923
833.652091	820.647552
835.888537	815.504895
838.126394	817.822378
840.361726	819.059441
842.594535	815.413986
844.828755	812.254545
847.060452	809.560140
849.291595	810.037762
851.522183	809.076224
853.752217	807.066434
855.981697	805.455944
858.206695	806.298601
860.435068	799.579021
862.658961	793.309091
864.884266	797.014685
867.105095	792.469231
869.329296	787.811888
871.549024	782.849650
873.770162	781.146154
875.990750	781.079021
878.208829	778.337063
880.428317	779.809790
882.643339	785.439860
884.857814	784.972727
887.071740	780.888811
889.285120	784.621678
891.497952	791.174825
893.710238	791.327273
895.920021	795.454545
898.129259	795.127273
900.337952	795.320979
902.544146	796.953846
904.751749	798.054545
906.956854	801.009790
909.161416	810.926573
911.363483	817.723077
913.566959	829.993007
915.767941	846.960140
917.968381	862.298601
920.170230	887.020979
922.365688	933.262937
924.564505	987.086713
926.758883	1061.544755
928.956619	1153.859441
931.149919	1265.446154
933.344628	1373.597902
935.536851	1491.076224
937.728535	1585.606993
939.919682	1670.048252
942.108346	1720.593706
944.296474	1750.753147
946.482121	1762.962238
948.671120	1765.849650
950.855696	1760.055944
953.039737	1759.419580
955.227128	1757.927972
957.406215	1764.698601
959.588653	1762.605594
961.770557	1759.012587
963.949986	1756.945455
966.126943	1757.695804
968.305308	1756.586014
970.485080	1754.100000
972.658503	1757.227273
974.835272	1751.006294
977.007634	1750.252448
979.181404	1731.686713
981.350770	1683.106294
983.523480	1629.274126
985.693725	1554.855944
987.863441	1450.665734
990.032628	1359.510490
992.197418	1261.727972
994.365549	1182.334965
996.529286	1103.323077
998.694429	1059.474825
1000.857113	1020.609790
1003.019272	1006.422378
1005.178974	983.814685
1007.338151	971.457343
1009.498735	965.340559
1011.656865	940.611888
1013.814470	917.200699
1015.971552	909.166434
1018.128110	888.147552
1020.280289	870.485315
1022.433875	856.702797
1024.586939	848.525874
1026.737554	841.144755
1028.889576	835.761538
1031.037224	818.616084
1033.188204	806.490909
1035.334813	776.767832
1037.480903	757.756643
1039.626475	757.162937
1041.773452	755.853846
1043.914140	751.441958
1046.058158	766.379021
1048.199735	777.251049
1050.340796	789.883916
1052.483261	807.416783
1054.619447	814.640559
1056.758958	805.625874
1058.894115	780.889510
1061.032596	780.620280
1063.166723	775.279021
1065.300337	765.103497
1067.435356	759.851049
1069.566025	765.147552
1071.698099	770.516783
1073.827744	768.192308
1075.956877	772.882517
1078.085498	770.853846
1080.213608	759.602098
1082.339292	736.109790
1084.464466	711.416084
1086.591044	723.920979
1088.713284	712.435664
1090.836929	700.425175
1092.956239	695.719580
1095.080779	692.658741
1097.199073	689.612587
1099.318772	686.093706
1101.436052	682.181119
1103.552826	671.021678
1105.669093	659.832168
1107.782944	648.474825
1109.898200	646.464336
1112.009132	655.565035
1114.123377	658.588811
1116.233301	653.662937
1118.344629	654.160140
1120.455452	653.283916
1122.561959	660.948951
1124.671776	655.800000
1126.777278	656.855944
1128.884183	639.934965
1130.984873	626.813986
1133.090775	618.081119
1135.192368	609.170629
1137.295364	602.953147
1139.397859	600.563636
1141.494147	601.206294
1143.595643	598.416783
1145.692835	602.569930
1147.789530	602.132168
1149.885726	600.870629
1151.981425	605.517483
1154.076625	599.509091
1156.169429	599.146154
1158.263636	598.560839
1160.351651	600.376923
1162.444864	604.544056
1164.531889	606.937762
1166.622213	612.036364
1168.708250	607.695804
1170.797584	612.048252
1172.880737	611.121678
1174.965292	621.022378
1177.051249	634.917483
1179.132924	645.233566
1181.216001	651.427273
1183.296692	655.544755
1185.376891	662.839161
1187.456599	662.723776
1189.535816	656.828671
1191.612651	648.438462
1193.687105	636.331469
1195.764850	630.913986
1197.838326	630.245455
1199.913202	624.453846
1201.983811	626.090909
1204.055821	628.998601
1206.125456	623.277622
1208.196491	621.430070
1210.267038	618.955944
1212.333324	616.632867
1214.401011	610.859441
1216.466326	600.156643
1218.533041	598.580420
1220.595500	598.490210
1222.661244	593.283217
1224.722734	586.648951
1226.785625	584.263636
1228.846148	586.811888
1230.906187	581.272727
1232.965744	580.998601
1235.022935	586.489510
1237.079645	592.139161
1239.133991	595.940559
1241.191619	601.972028
1243.246884	610.240559
1245.297908	615.669231
1247.350332	617.652448
1249.402276	622.803497
1251.451862	625.601399
1253.500969	633.241259
1255.549598	636.065035
1257.597748	640.689510
1259.645419	641.158042
1261.688860	641.369930
1263.735577	641.520979
1265.779940	642.165035
1267.823827	643.683217
1269.865362	648.082517
1271.904548	643.275524
1273.947007	644.798601
1275.985243	648.644755
1278.024878	655.916783
1280.064038	661.490210
1282.098979	660.316783
1284.135319	654.403497
1286.169315	648.909091
1288.204708	652.740559
1290.235889	664.107692
1292.268467	673.543357
1294.300574	678.090210
1296.330340	675.056643
1298.361504	679.865734
1300.388460	682.483916
1302.416814	687.404196
1304.440963	681.736364
1306.468378	674.146853
1308.491590	660.196503
1310.516200	654.215385
1312.538476	655.945455
1314.562149	665.409091
1316.583489	664.244755
1318.604361	663.371329
1320.624766	661.124476
1322.640978	656.630070
1324.658587	656.799301
1326.673868	657.769930
1328.692408	653.686713
1330.706759	659.003497
1332.718784	656.900699
1334.734066	669.210490
1336.745163	680.981119
1338.757657	694.086713
1340.765968	701.656643
1342.777534	708.879021
1344.783062	711.618881
1346.791845	708.526573
1348.796450	705.245455
1350.804309	694.777622
1352.811706	683.498601
1354.813072	673.929371
1356.815834	664.934266
1358.818137	659.226573
1360.819980	655.123077
1362.821363	649.202098
1364.820433	645.467832
1366.819044	646.983916
1368.817197	643.151049
1370.814891	642.437063
1372.808423	637.248252
1374.803351	633.141259
1376.797821	627.188112
1378.791835	621.645455
1380.783542	614.648951
1382.774794	606.744056
1384.763740	601.461538
1386.754081	591.502098
1388.743967	578.964336
1390.731549	575.832168
1392.718678	567.416783
1394.703505	565.618881
1396.689727	563.531469
1398.673649	565.823776
1400.657118	564.444755
1402.640134	568.561538
1404.620853	569.491608
1406.602966	576.867832
1408.582783	577.424476
1410.562148	572.045455
1412.537375	572.375524
1414.515840	577.539860
1416.492012	578.724476
1418.467735	581.418182
1420.443008	586.566434
1422.415990	590.495105
1424.388524	592.330070
1426.360610	595.639860
1428.332249	594.999301
1430.299759	595.565035
1432.272343	588.171329
1434.237122	583.265734
1436.206972	583.948252
1438.172699	583.499301
1440.139818	584.288112
1442.104654	584.629371
1444.065370	589.649650
1446.031154	588.755944
1447.990983	590.313986
1449.952206	595.800699
1451.914821	596.412587
1453.873321	601.590210
1455.831378	600.041958
1457.788994	604.160140
1459.746167	607.933566
1461.701065	608.974126
1463.657356	608.516084
1465.611372	612.118881
1467.564947	613.180420
1469.516250	608.722378
1471.468946	609.467832
1473.419369	610.776224
1475.369354	600.861538
1477.318900	594.974126
1479.266177	583.665734
1481.211186	580.544755
1483.157588	575.780420
1485.103552	569.657343
1487.049079	563.529371
1488.992340	564.955944
1490.935166	565.906993
1492.875728	565.823776
1494.817681	565.659441
1496.757372	567.425874
1498.696629	563.458042
1500.635450	559.986713
1502.572012	555.737762
1504.509965	558.709790
1506.445659	561.790909
1508.380920	562.720979
1510.313925	568.280420
1512.246497	572.792308
1514.178637	576.999301
1516.110345	581.623776
1518.039799	584.251049
1519.970644	592.069930
1521.901057	593.455944
1523.827398	587.881818
1525.755130	589.130769
1527.680611	589.534266
1529.605663	587.286713
1531.530286	587.332168
1533.454480	593.076224
1535.376426	603.659441
1537.299763	609.702098
1539.220853	626.213986
1541.139700	644.237063
1543.059935	662.437762
1544.977928	671.588811
1546.895494	680.786014
1548.810818	692.412587
1550.727532	701.875524
1552.640191	712.390210
1554.556054	728.166434
1556.469677	750.626573
1558.381062	776.451049
1560.293837	799.528671
1562.202562	839.053846
1564.112676	892.881119
1566.022367	964.195804
1567.931635	1060.313986
1569.838669	1198.358042
1571.743470	1382.409091
1573.649660	1600.777622
1575.553618	1824.571329
1577.457155	2023.616084
1579.360272	2171.376923
1581.261159	2242.929371
1583.163435	2214.372028
1585.063483	2110.278322
1586.964918	1938.289510
1588.862320	1717.971329
1590.759303	1488.987413
1592.655868	1281.090909
1594.553821	1111.120280
1596.445939	980.502098
1598.341250	890.153846
1600.236144	830.453846
1602.128816	805.022378
1604.021071	785.037063
1605.911107	766.167133
1607.800727	765.302098
1609.689932	755.359441
1611.578722	752.499301
1613.465294	761.490210
1615.353254	754.960140
1617.237197	741.741958
1619.122527	731.674126
1621.007444	710.599301
1622.890147	691.993007
1624.774237	677.951748
1626.654315	661.291608
1628.535781	647.130769
1630.415036	633.695804
1632.295677	616.627972
1634.170514	610.844755
1636.050332	598.838462
1637.926146	588.650350
1639.801549	580.425175
1641.678338	582.079021
1643.549331	568.230769
1645.423505	557.446853
1647.293680	552.569231
1649.167037	550.525874
1651.038190	547.644056
1652.907141	550.781119
1654.777477	546.983916
1656.643821	538.811888
1658.511550	528.196503
1660.377080	524.473427
1662.243996	520.342657
1664.106923	520.290210
1665.971235	512.788112
1667.833351	506.027972
1669.695062	502.130769
1671.558159	496.327273
1673.419060	493.188112
1675.277769	496.799301
1677.136074	484.314685
1678.995764	480.212587
1680.849686	474.717483
1682.706782	472.469930
1684.563475	471.549650
1686.416191	478.442657
1688.272079	479.445455
1690.123993	479.595804
1691.975506	481.255944
1693.826618	475.979720
1695.677330	476.295804
1697.527641	477.539860
1699.375767	465.206993
1701.225278	465.104895
1703.069040	457.891608
1704.917751	466.387413
1706.760716	468.654545
1708.606848	475.988811
1710.449017	476.271329
1712.294352	484.279021
1714.133946	487.051049
1715.974924	484.772028
1717.817285	481.630769
1719.655690	471.786713
1721.495478	458.190909
1723.333091	448.058741
1725.170308	438.241958
1727.005352	452.077622
1728.841779	463.779720
1730.676034	461.846154
1732.509894	467.477622
1734.343360	470.088112
1736.172881	467.441259
1738.005560	470.419580
1739.834295	460.175524
1741.666187	450.448252
1743.494137	441.087413
1745.321696	422.551049
1747.148862	417.286713
1748.975637	433.625874
1750.802020	447.334266
1752.624467	443.125175
1754.450069	449.755944
1756.271736	450.369231
1758.094785	455.434266
1759.915672	466.254545
1761.736171	468.360140
1763.558051	468.672727
1765.374231	454.592308
1767.193563	442.791608
1769.008968	443.013287
1770.827523	439.539860
1772.642153	439.809790
1774.456396	425.877622
1776.270253	427.059441
1778.083723	424.249650
1779.895040	433.628671
1781.707737	448.134266
1783.520049	448.334965
1785.328443	455.681818
1787.138217	451.098601
1788.944077	459.728671
1790.753082	459.830769
1792.558174	465.744755
1794.364647	467.081119
1796.170736	450.004196
1797.972914	450.551049
1799.778237	445.999301
1801.579651	446.448252
1803.382445	439.590909
1805.181333	432.691608
1806.981602	434.432867
1808.781489	428.659441
1810.579234	426.127972
1812.376599	425.538462
1814.173584	436.232168
1815.970188	428.435664
1817.764653	423.954545
1819.560497	430.909091
1821.350686	436.193706
1823.145772	433.569231
1824.935206	435.855944
1826.727776	443.403497
1828.518211	447.897203
1830.306512	448.009091
1832.097948	446.658741
1833.883738	453.413986
1835.670908	458.264336
1837.455946	453.073427
1839.244118	453.853846
1841.028404	454.880420
1842.810560	455.277622
1844.594096	447.773427
1846.375503	453.162238
1848.158289	452.991608
1849.937194	459.626573
1851.717479	455.609091
1853.495637	452.395105
1855.275174	455.574825
1857.052586	448.672028
1858.827874	443.931469
1860.604540	436.000000
1862.379084	435.326573
1864.155006	435.180420
1865.925307	434.966434
1867.698736	445.751748
1869.470045	445.283217
1871.240983	450.972727
1873.013299	452.886014
1874.780001	458.712587
1876.549829	467.087413
1878.315793	472.597902
1880.084880	478.642657
1881.850106	474.780420
1883.614964	475.027273
1885.381199	470.617483
1887.143575	462.200699
1888.905584	458.223776
1890.667225	439.046853
1892.428500	430.286014
1894.189407	429.054545
1895.949948	427.289510
1897.708379	426.968531
1899.466444	431.517483
1901.222402	434.128671
1902.979736	435.467133
1904.736705	433.286713
1906.491567	431.643357
1908.244325	426.383916
1909.996718	421.679021
1911.750488	413.567832
1913.502154	409.939860
1915.251718	404.289510
1917.002657	403.097902
1918.753234	402.325874
1920.499971	403.512587
1922.248085	411.746853
1923.994099	415.036364
1925.741488	416.203497
1927.486780	423.399301
1929.229974	431.179021
1930.974543	434.914685
1932.717017	430.243357
1934.459130	425.260839
1936.200883	416.882168
1937.942276	412.023776
1939.681576	406.178671
1941.420517	409.750350
1943.159099	411.223427
1944.895590	408.120280
1946.631723	412.359790
1948.369230	417.755944
1950.102915	418.897552
1951.837975	418.550350
1953.570946	412.551399
1955.303561	412.588811
1957.035820	404.105944
1958.767722	406.256643
1960.497538	411.330070
1962.225269	416.272727
1963.954375	414.088112
1965.683126	416.228671
1967.409793	419.345455
1969.136106	412.126573
1970.863792	405.804895
1972.585942	404.932168
1974.311193	400.990210
1976.032637	398.496503
1977.757182	389.617483
1979.479646	390.562937
1981.198308	389.131469
1982.920068	395.441958
1984.638026	398.966434
1986.357357	403.465035
1988.072889	407.956643
1989.793241	407.247552
1991.509795	412.714685
1993.222552	410.118881
1994.938405	403.894406
1996.652186	400.120280
1998.365617	394.977622
2000.076977	395.688112
2001.789709	399.416084
2003.498651	402.996503
2005.210685	400.758042
2006.917211	406.772727
2008.626828	410.061538
2010.334379	408.553147
2012.041581	410.679021
2013.746718	405.428671
2015.451509	401.018182
2017.157671	402.912587
2018.860051	403.153846
2020.563802	407.830070
2022.265491	407.066434
2023.966835	401.771329
2025.667833	402.001399
2027.366770	404.153846
2029.067079	397.806294
2030.763613	393.187413
2032.461518	393.599301
2034.157364	393.362238
2035.856296	389.216783
2037.549742	385.795105
2039.244559	380.642657
2040.939034	383.259441
2042.629740	374.683916
2044.323530	374.233566
2046.013553	374.602098
2047.704947	381.835664
2049.394288	380.942657
2051.084999	386.144755
2052.771947	388.862238
2054.458556	396.061538
2056.146534	393.272028
2057.830753	389.585315
2059.516343	385.468531
2061.201593	379.715385
2062.884794	377.936364
2064.569366	377.441259
2066.248475	378.169231
2067.932369	383.422378
2069.610802	383.729371
2071.292313	386.961538
2072.970072	390.402797
2074.647495	396.089510
2076.326287	392.611888
2078.003037	387.954545
2079.677745	383.583916
2081.353822	383.715385
2083.027859	379.556643
2084.701560	369.425874
2086.374926	368.032168
2088.046253	368.495105
2089.717246	373.676923
2091.387905	376.387413
2093.058230	380.787413
2094.728221	391.295105
2096.396176	394.331469
2098.063798	394.966434
2099.729385	398.195804
2101.396341	395.148951
2103.061264	389.021678
2104.725855	386.898601
2106.388414	388.318881
2108.052341	382.706993
2109.714237	380.244755
2111.375803	374.343357
2113.037037	371.303497
2114.696243	377.102797
2116.355118	376.713986
2118.013664	378.100699
2119.671880	376.137762
2121.326372	374.009790
2122.983929	374.007692
2124.641157	373.153846
2126.294663	372.534965
2127.949537	363.903497
2129.600692	361.984615
2131.254910	352.467133
2132.905411	350.243357
2134.557278	349.991608
2136.203737	354.297902
2137.854951	357.056643
2139.502451	352.926573
2141.151318	355.782517
2142.798166	354.432867
2144.444689	357.413986
2146.090886	362.761538
2147.733375	368.789510
2149.378922	374.733566
2151.020762	376.123776
2152.665659	379.862937
2154.306850	389.310490
2155.947719	389.053147
2157.588263	390.095804
2159.226795	386.147552
2160.866693	384.353147
2162.502891	377.451049
2164.140455	373.960140
2165.777697	372.930070
2167.412929	371.568531
2169.047840	367.667133
2170.682428	364.331469
2172.316696	367.685315
2173.947270	374.354545
2175.580896	374.694406
2177.210830	378.901399
2178.842129	375.675524
2180.471423	370.009091
2182.100398	370.618182
2183.729053	371.197203
2185.357389	370.227273
2186.983723	365.076923
2188.609738	360.227273
2190.233751	362.860839
2191.859130	369.722378
2193.482508	373.890210
2195.107251	375.088811
2196.728313	375.081818
2198.349058	373.590210
2199.971168	373.395804
2201.591280	377.434266
2203.209395	376.376224
2204.827195	374.880420
2206.444680	368.573427
2208.061849	366.504196
2209.678703	370.336364
2211.295241	371.084615
2212.909787	368.432867
2214.522340	365.340559
2216.136257	371.776224
2217.748183	371.448252
2219.361472	374.169231
2220.972771	370.854545
2222.582080	367.402797
2224.192753	368.607692
2225.801437	373.246154
2227.409808	374.354545
2229.016193	373.675524
2230.623941	372.583217
2232.229702	371.495105
2233.835152	373.653846
2235.438617	374.059441
2237.043445	369.380420
2238.646289	367.730070
2240.247150	358.821678
2241.849374	359.060839
2243.449616	361.382517
2245.051220	366.460140
2246.649171	365.056643
2248.248485	368.223776
2249.845819	376.518881
2251.442845	380.796503
2253.041233	384.847552
2254.635972	382.705594
2256.228734	381.194406
2257.822859	386.169930
2259.418345	378.277622
2261.010186	377.275524
2262.601721	376.214685
2264.194618	381.596503
2265.782205	385.581818
2267.374488	392.976923
2268.961465	396.585315
2270.551469	391.290210
2272.136169	386.448951
2273.725563	376.423077
2275.309655	373.323077
2276.895107	371.360140
2278.478591	362.516783
2280.065100	363.048252
2281.647976	366.099301
2283.230549	370.979371
2284.812818	375.338462
2286.391457	374.273776
2287.973121	375.186014
2289.551156	367.096853
2291.132214	365.916783
2292.709645	360.468881
2294.285113	365.504895
2295.863603	365.332517
2297.438469	363.011189
2299.013034	362.781469
2300.587299	352.967832
2302.161263	350.491958
2303.734926	346.823776
2305.308290	333.540559
2306.878035	334.904196
2308.447481	325.170629
2310.019945	323.189510
2311.587135	325.420280
2313.157343	341.816783
2314.723936	350.673427
2316.291889	357.451049
2317.857886	368.019580
2319.423586	366.102797
2320.988988	370.841958
2322.552437	385.343357
2324.117245	391.242657
2325.678445	397.306993
2327.242659	390.354545
2328.801611	372.814685
2330.363578	368.280420
2331.923593	365.000699
2333.483314	360.917483
2335.041085	347.394406
2336.598561	343.941259
2338.155743	332.469930
2339.710977	329.831469
2341.265918	343.951748
2342.820564	352.212587
2344.374917	350.033566
2345.928977	348.036364
2347.482742	343.832168
2349.034564	348.847552
2350.584442	353.583217
2352.137328	354.676923
2353.684972	353.868531
2355.235623	361.665035
2356.782683	358.125175
2358.331101	355.509091
2359.879228	357.586713
2361.423766	355.600000
2362.969662	353.653147
2364.513620	357.116084
2366.058935	353.718881
2367.600665	360.806294
2369.143752	363.004895
2370.684903	368.002098
2372.225765	374.507692
2373.766338	381.069231
2375.306622	373.964336
2376.846617	362.310490
2378.383034	363.267832
2379.922452	352.698601
2381.458293	350.504895
2382.995490	340.612587
2384.529112	333.763636
2386.065734	350.485315
2387.600426	357.278322
2389.133188	370.371329
2390.665663	373.374126
2392.196210	388.482517
2393.729755	385.476923
2395.258089	388.741958
2396.787780	397.886713
2398.317184	391.154545
2399.846304	382.993007
2401.375139	376.246853
2402.898768	375.964336
2404.427033	372.874825
2405.950096	368.178322
2407.477792	370.430769
2408.998649	369.574825
2410.524139	375.373427
2412.046068	368.503497
2413.569353	374.625175
2415.090716	382.546853
2416.610160	378.583916
2418.130959	369.653846
2419.649840	370.773427
2421.168438	368.697902
2422.685119	370.529371
2424.203154	373.851049
2425.720908	387.703497
2427.235111	387.326573
2428.749033	395.797203
2430.262675	402.173427
2431.777672	416.536364
2433.289120	429.821678
2434.801923	426.020280
2436.312812	427.086713
2437.823423	432.400699
2439.332122	447.384615
2440.843807	459.649650
2442.351949	463.920979
2443.859813	468.723776
2445.367399	468.805594
2446.871444	480.744056
2448.378474	495.721678
2449.883597	504.269231
2451.388441	511.673427
2452.891379	515.036364
2454.394041	514.609091
2455.896426	506.525874
2457.396906	505.297203
2458.898739	493.588811
2460.398667	484.953846
2461.898320	468.506993
2463.397698	452.095105
2464.895173	447.436364
2466.390746	448.555944
2467.889299	443.418881
2469.384324	450.859441
2470.880701	453.598601
2472.373552	451.427273
2473.867756	440.192308
2475.361686	439.779021
2476.852092	431.960140
2478.345476	431.111189
2479.836962	420.881818
2481.326551	404.537762
2482.815868	399.838462
2484.303289	395.848252
2485.793686	387.872727
2487.280565	390.282517
2488.768795	395.185315
2490.253508	397.311189
2491.737952	399.151748
2493.223746	400.822378
2494.707649	394.709091
2496.192902	390.460140
2497.673022	383.998601
2499.156115	381.675524
2500.637317	378.098601
2502.118250	373.424476
2503.597294	365.509790
2505.076069	359.660140
2506.554576	362.521678
2508.032815	355.788811
2509.510785	362.780420
2510.985250	357.127273
2512.462685	349.534965
2513.936616	346.258741
2515.411897	356.832168
2516.886911	367.095105
2518.358425	369.887413
2519.831288	372.621678
2521.302269	374.809790
2522.774600	367.411888
2524.241817	362.555944
2525.712001	360.617483
2527.180304	362.651049
2528.648342	352.968531
2530.116115	347.209790
2531.583623	350.713287
2533.050866	355.904196
2534.514617	352.748951
2535.979718	354.722378
2537.442942	358.004895
2538.907516	357.210490
2540.368600	352.869231
2541.831034	348.497902
2543.293205	350.896503
2544.751890	357.624476
2546.215147	354.874126
2547.673307	345.841958
2549.132816	334.416084
2550.587231	330.561538
2552.046217	323.084615
2553.503331	324.604196
2554.958574	331.777622
2556.413555	341.664336
2557.866668	350.504196
2559.321129	355.269930
2560.773720	363.556643
2562.226052	373.516783
2563.676517	370.339161
2565.129937	360.170629
2566.578275	344.824476
2568.029569	335.974126
2569.478996	324.759441
2570.924951	320.860140
2572.373861	323.626573
2573.819301	323.104196
2575.266088	319.846853
2576.711013	324.208392
2578.155679	333.537063
2579.601693	348.146853
2581.044241	364.097902
2582.488136	370.886014
2583.928566	369.958741
2585.370343	376.290210
2586.810261	376.105594
2588.251526	382.200699
2589.689329	374.611888
2591.130082	365.565035
2592.565773	357.854545
2594.004413	367.394406
2595.441195	371.186713
2596.876122	376.588811
2598.313996	374.372028
2599.746813	373.190210
2601.180977	375.083916
2602.613287	374.136364
2604.046943	372.557343
2605.478746	373.232867
2606.910295	370.374126
2608.341592	377.763636
2609.771036	378.086014
2611.200228	391.697203
2612.627570	387.766434
2614.056257	389.202098
2615.484693	388.118182
2616.909681	395.097203
2618.336016	399.324476
2619.760502	401.176224
2621.186334	410.184615
2622.608722	414.458042
2624.032456	427.369930
2625.454343	437.024476
2626.875981	442.736364
2628.295773	448.264336
2629.716911	449.991608
2631.137799	452.343357
2632.555249	462.276923
2633.975638	472.404895
2635.392590	489.866434
2636.809293	505.683217
2638.225748	522.944056
2639.641955	541.100000
2641.057914	559.202797
2642.472032	582.241958
2643.885902	605.567832
2645.297934	632.949650
2646.711309	653.246154
2648.121255	682.361538
2649.534137	715.002098
2650.943590	741.465035
2652.352797	776.802098
2653.760168	811.386713
2655.170473	851.347552
2656.578943	908.106993
2657.985577	967.724476
2659.391966	1042.211888
2660.796521	1122.246853
2662.202420	1212.560839
2663.606486	1311.089510
2665.010307	1432.862238
2666.413884	1563.137063
2667.815630	1706.564336
2669.218719	1868.031469
2670.618390	2041.668531
2672.019405	2232.411888
2673.417004	2438.072727
2674.817533	2639.662238
2676.214646	2848.793007
2677.613103	3032.539860
2679.009733	3200.513986
2680.406120	3338.509790
2681.802265	3446.513986
2683.196585	3515.788811
2684.592246	3532.311888
2685.984499	3501.019580
2687.378094	3421.924476
2688.769865	3306.571329
2690.162979	3150.490909
2691.554269	2975.963636
2692.943736	2796.100699
2694.332963	2593.013287
2695.721951	2403.044755
2697.112280	2216.327273
2698.497626	2045.828671
2699.885895	1882.085315
2701.272344	1732.395804
2702.658554	1590.330070
2704.044525	1460.140559
2705.427098	1338.172727
2706.811013	1230.432867
2708.194690	1139.497902
2709.578128	1053.518881
2710.958172	972.720979
2712.339556	909.602098
2713.719126	857.480420
2715.100036	811.323776
2716.479132	767.462238
2717.856414	722.725874
2719.235037	686.104196
2720.611847	655.374825
2721.988420	634.443357
2723.364758	615.918182
2724.739285	586.901399
2726.115152	565.819580
2727.487632	546.559441
2728.863028	530.427972
2730.233464	518.577622
2731.605241	502.402797
2732.976783	483.576923
2734.346517	464.423077
2735.717592	460.109790
2737.086858	453.618881
2738.455891	447.900000
2739.823118	437.748951
2741.190112	434.044755
2742.556872	435.309790
2743.923401	423.520979
2745.288124	418.318881
2746.652615	407.780420
2748.016875	398.441259
2749.380902	391.683916
2750.744698	385.227273
2752.105120	376.510490
2753.468452	368.612587
2754.826842	357.771329
2756.188142	352.274126
2757.546072	350.467832
2758.906910	343.881818
2760.265949	337.938462
2761.621619	342.104895
2762.980197	329.465035
2764.335408	326.774126
2765.690390	323.330769
2767.043576	325.864336
2768.399668	328.555245
2769.752395	330.346853
2771.104895	328.553147
2772.457166	328.209790
2773.810776	334.153846
2775.161024	338.570629
2776.509478	342.611888
2777.860838	348.338462
2779.208838	333.453147
2780.558176	335.364336
2781.905722	334.904196
2783.253042	335.791608
2784.600135	338.730070
2785.945437	338.689510
2787.290512	336.161538
2788.635362	329.523077
2789.979986	327.244755
2791.321258	321.333566
2792.663868	322.595804
2794.006252	318.631469
2795.348411	315.067832
2796.687221	314.722378
2798.028931	311.486014
2799.367293	311.467832
2800.706991	320.511189
2802.044905	320.756643
2803.381034	312.720280
2804.716939	305.500000
2806.054182	300.666434
2807.389641	295.948252
2808.724877	294.667133
2810.058330	292.434965
2811.393120	302.606294
2812.724570	297.328671
2814.058915	306.399301
2815.388362	313.683217
2816.719146	323.223077
2818.049708	322.027972
2819.378491	317.682517
2820.708610	314.225175
2822.036951	310.601399
2823.365071	305.869231
2824.691413	298.507692
2826.019092	298.444056
2827.343437	296.924476
2828.669119	290.827972
2829.993025	298.036364
2831.316712	293.533566
2832.641734	290.209091
2833.963426	287.980420
2835.284900	278.873427
2836.606155	278.918881
2837.927191	285.460839
2839.246454	294.519580
2840.567053	286.964336
2841.885881	281.984615
2843.204490	277.056643
2844.521328	276.523077
2845.837949	273.706993
2847.154353	268.039860
2848.468987	265.936364
2849.784957	270.069231
2851.097606	270.360839
2852.411590	276.948951
2853.725358	289.746853
2855.038909	310.502797
2856.350694	301.263636
2857.660712	298.388811
2858.972065	295.610490
2860.280103	294.280420
2861.589475	293.459441
2862.898633	290.314685
2864.207575	286.991608
2865.514753	286.333566
2866.820169	283.379720
2868.126919	273.148252
2869.431906	281.625874
2870.736680	280.904196
2872.039692	275.050350
2873.345585	275.679021
2874.646624	281.804895
2875.948997	278.767832
2877.249610	279.848252
2878.551557	270.945455
2879.853290	268.569930
2881.151720	271.355245
2882.451483	273.319580
2883.749489	268.244056
2885.047283	279.261538
2886.343321	273.281119
2887.640692	275.544056
2888.936307	268.430769
2890.231711	272.241259
2891.526904	263.403497
2892.818800	256.851049
2894.113572	247.731469
2895.405047	247.134965
2896.697855	250.418182
2897.990453	251.276923
2899.279757	251.804196
2900.570393	259.510490
2901.859278	260.822378
2903.149495	264.384615
2904.436421	266.313287
2905.724679	266.237762
2907.011188	269.799301
2908.297489	268.775524
2909.583581	275.389510
2910.867925	276.810490
2912.155140	277.012587
2913.437529	271.457343
2914.721250	273.886014
2916.003225	266.800699
2917.284992	264.681119
2918.565015	264.265035
2919.847907	257.799301
2921.129054	253.796503
2922.406919	263.059441
2923.687653	266.190210
2924.965106	273.733566
2926.242353	271.282517
2927.517858	276.522378
2928.796231	278.566434
2930.069790	281.155245
2931.346216	270.776224
2932.620901	264.830769
2933.893845	257.302098
2935.168121	251.548951
2936.440657	255.628671
2937.712988	249.555944
2938.982047	245.324476
2940.253971	242.069231
2941.524157	242.698601
2942.794139	256.144056
2944.063918	252.116783
2945.331961	250.556643
2946.598267	251.811189
2947.864372	244.461538
2949.131806	241.983916
2950.397506	248.181818
2951.663003	248.108392
2952.928298	242.991608
2954.190328	240.529371
2955.453688	238.059441
2956.716847	246.841259
2957.978274	250.697902
2959.241030	246.686014
2960.502054	251.812587
2961.761348	248.899301
2963.020442	246.898601
2964.279335	255.428671
2965.538028	261.835664
2966.796521	256.879021
2968.053285	251.216783
2969.309849	245.798601
2970.564686	238.640559
2971.820851	236.023776
2973.073762	234.491608
2974.328002	240.012587
2975.582043	243.947552
2976.834358	235.369930
2978.086474	234.065734
2979.336866	237.796503
2980.590113	233.625874
2981.838583	231.341958
2983.089908	229.854545
2984.337983	234.453846
2985.585862	236.581119
2986.833543	247.563636
2988.081027	259.295804
2989.326790	271.916084
2990.572357	288.970629
2991.819251	280.172727
2993.062901	264.108392
2994.307879	255.886713
2995.549613	246.207692
2996.794199	244.547552
2998.037066	235.867832
2999.276692	233.788811
3000.519168	234.755944
3001.758404	239.018182
3002.998968	242.844056
3004.237816	244.655944
3005.476468	259.267133
3006.713406	248.398601
3007.951670	237.409790
3009.188219	234.560140
3010.424575	233.880420
3011.660737	234.316084
3012.895185	228.223776
3014.129441	222.311888
3015.363503	225.004196
3016.595853	221.097203
3017.826491	217.640559
3019.059975	217.735664
3020.291747	227.044056
3021.521809	226.566434
3022.751679	226.706294
3023.979839	227.872727
3025.209325	232.990909
3026.437102	229.912587
3027.664688	229.798601
3028.893601	223.379720
3030.117771	219.534965
3031.344784	205.997902
3032.568573	197.525874
3033.793689	198.932168
3035.017098	201.615385
3036.240317	204.010490
3037.461831	212.340559
3038.686186	221.579021
3039.905806	233.125175
3041.126752	233.642657
3042.347509	243.777622
3043.566562	242.361538
3044.786940	233.025175
3046.004102	226.334266
3047.222590	221.416783
3048.439375	218.033566
3049.655973	210.132867
3050.872382	208.183916
3052.085579	209.536364
3053.301613	206.950350
3054.514435	205.583217
3055.730094	202.181818
3056.941030	206.062937
3058.153291	203.473427
3059.365366	201.372727
3060.577253	205.095105
3061.787444	203.479021
3062.997448	197.311538
3064.207266	190.693706
3065.415388	199.510839
3066.623325	206.044755
3067.829566	210.341608
3069.037132	209.306294
3070.243003	204.454895
3071.448690	205.913986
3072.654191	203.240909
3073.857999	209.190909
3075.063131	201.154196
3076.266570	194.773427
3077.468318	190.489161
3078.669881	194.164336
3079.871261	202.732168
3081.072457	206.870629
3082.271963	207.913986
3083.471286	203.063636
3084.671932	202.832867
3085.870888	202.140559
3087.066650	203.737063
3088.265241	204.667133
3089.460638	194.627972
3090.657358	197.114685
3091.850886	201.779720
3093.047242	202.088811
3094.241912	198.809790
3095.433391	194.906294
3096.629201	193.556643
3097.820318	189.474825
3099.012757	189.956643
3100.202009	187.287413
3101.394086	190.858042
3102.584480	188.584615
3103.771688	194.226573
3104.960219	195.617483
3106.150071	202.343357
3107.336740	206.100699
3108.523228	208.437762
3109.709538	205.365035
3110.897169	212.086713
3112.081618	211.626573
3113.264388	213.017483
3114.449980	216.690210
3115.633893	219.620280
3116.816127	222.721678
3117.998182	223.520979
3119.180059	222.906993
3120.361758	218.725874
3121.541780	215.148951
3122.720125	206.785315
3123.901290	200.058042
3125.079280	203.043357
3126.257094	197.311189
3127.434730	193.313287
3128.610691	194.872727
3129.786475	191.133566
3130.963581	190.278322
3132.139012	185.672028
3133.312770	189.492308
3134.484855	186.534965
3135.658262	185.027273
3136.831492	186.837762
3138.003051	187.626573
3139.175930	194.007692
3140.345642	195.062238
3141.516675	192.217483
3142.686038	197.902797
3143.853730	185.697902
3145.024238	186.791608
3146.190088	184.430769
3147.360246	180.973427
3148.525748	182.620979
3149.691075	181.181119
3150.856229	187.035664
3152.021210	188.534266
3153.187510	195.725175
3154.349158	199.695105
3155.512125	203.260140
3156.674920	210.441958
3157.837542	207.101399
3158.998499	211.410490
3160.159283	206.712587
3161.319895	197.232168
3162.478843	199.960839
3163.637620	194.979720
3164.796225	193.107692
3165.954657	189.469231
3167.112919	195.820280
3168.269518	195.195804
3169.424456	184.639860
3170.580713	181.207692
3171.735309	183.937762
3172.889735	186.369231
3174.042501	180.471329
3175.195096	178.856643
3176.347522	184.844056
3177.499778	184.079720
3178.651863	187.353846
3179.800803	192.238462
3180.952549	194.974825
3182.102637	184.797902
3183.251069	176.785315
3184.399331	178.427273
3185.547425	184.376923
3186.695350	179.846853
3187.841619	179.684615
3188.987720	184.471329
3190.132167	187.011189
3191.276446	192.607692
3192.420557	196.223776
3193.565985	203.130070
3194.708275	201.841958
3195.850398	203.209790
3196.992353	201.424476
3198.134141	197.933566
3199.275762	188.003497
3200.414248	179.548252
3201.554051	181.237063
3202.695172	178.165035
3203.833158	177.764336
3204.969495	183.937063
3206.105666	184.488112
3207.243154	195.097203
3208.378994	195.216783
3209.516151	201.347552
3210.648695	196.983217
3211.785521	191.606993
3212.917735	179.595804
3214.051266	176.624476
3215.184633	174.174126
3216.314872	173.987413
3217.447909	168.925874
3218.577820	171.653147
3219.709047	170.141958
3220.837150	182.345455
3221.968049	186.009091
3223.097304	191.072028
3224.224916	194.715385
3225.349405	197.444056
3226.478170	196.513287
3227.603813	205.234266
3228.729294	211.955944
3229.853133	213.046853
3230.979766	216.727273
3232.101802	231.394406
3233.225154	237.318881
3234.348344	250.992308
3235.471372	263.638462
3236.592760	268.721678
3237.713986	276.983916
3238.833575	289.147552
3239.953002	286.458042
3241.070791	292.906294
3242.191372	284.512587
3243.308840	274.839860
3244.426147	272.467832
3245.543294	268.297902
3246.658805	257.555944
3247.775630	249.962238
3248.889346	245.463636
3250.005851	227.751049
3251.120722	225.427273
3252.232484	223.341259
3253.344086	212.212587
3254.457004	210.582517
3255.569762	200.032867
3256.679414	199.755944
3257.790381	200.144755
3258.901189	201.216084
3260.010365	200.975524
3261.117911	199.923077
3262.226770	192.853147
3263.335472	192.402797
3264.441071	191.609091
3265.547984	190.276224
3266.653268	191.055944
3267.759866	184.651748
3268.863364	179.242657
3269.968177	177.831469
3271.072832	177.986014
3272.174388	178.375524
3273.275788	177.397902
3274.378502	174.582517
3275.481060	170.494406
3276.580521	175.316783
3277.682766	172.548252
3278.781915	175.454545
3279.879440	178.360140
3280.976809	169.897203
3282.076960	170.643357
3283.174019	164.597203
3284.270922	172.788811
3285.367670	167.962937
3286.459860	161.990909
3287.556298	159.748951
3288.651114	151.886014
3289.745776	152.227273
3290.838816	149.781818
3291.931701	148.732168
3293.022967	152.359441
3294.115544	149.311189
3295.206502	149.332867
3296.295840	147.402797
3297.385025	154.780420
3298.475523	145.382517
3299.562936	148.348252
3300.650196	161.020979
3301.738769	156.828671
3302.827190	159.157343
3303.911063	157.074126
3304.999178	158.900000
3306.084211	160.619580
3307.167629	168.211888
3308.252359	166.834266
3309.335473	169.758741
3310.419900	172.094406
3311.501248	171.660839
3312.583908	180.934266
3313.664954	189.967832
3314.745849	181.764336
3315.825130	177.160839
3316.904261	173.718182
3317.984704	169.832867
3319.062072	164.544755
3320.140752	167.546853
3321.217820	159.923776
3322.294739	161.774126
3323.370046	158.006993
3324.445204	154.806993
3325.521673	150.888112
3326.595072	149.976923
3327.668322	142.783217
3328.742882	145.451748
3329.815834	146.853846
3330.887177	150.793706
3331.959831	151.527273
3333.029419	152.183916
3334.100317	154.026573
3335.169608	156.946853
3336.240210	155.595105
3337.309205	152.541958
3338.376594	156.713287
3339.442378	158.465734
3340.512388	156.083217
3341.579335	156.179021
3342.643220	157.929371
3343.709873	161.719580
3344.774921	162.925874
3345.838366	160.676923
3346.901665	165.586014
3347.964817	166.101399
3349.027823	166.176923
3350.090683	162.939161
3351.151941	155.478322
3352.210142	149.341259
3353.272563	145.657343
3354.331929	150.665035
3355.391149	149.886713
3356.451679	154.640559
3357.507699	157.498601
3358.566483	163.808392
3359.620760	163.820979
3360.677801	168.476224
3361.733243	164.124476
3362.789995	154.372727
3363.845148	140.053147
3364.898704	144.546853
3365.950664	152.881818
3367.005385	162.622378
3368.057057	160.517483
3369.108586	169.761538
3370.161423	170.115385
3371.211213	174.713986
3372.262312	164.216084
3373.310365	172.789510
3374.361177	164.736364
3375.408945	154.305594
3376.456570	141.038462
3377.504052	139.901399
3378.549942	147.829371
3379.597140	147.776224
3380.641296	148.363636
3381.688210	155.071329
3382.733532	151.341259
3383.775813	152.644755
3384.817954	149.507692
3385.861402	151.385315
3386.904709	145.726573
3387.946427	140.981818
3388.988003	141.629371
3390.029438	149.832168
3391.069285	148.401399
3392.107543	144.572028
3393.147109	142.381119
3394.186535	146.364336
3395.224373	145.342657
3396.260624	148.234965
3397.296736	145.643357
3398.334155	146.034965
3399.368541	154.346853
3400.404234	158.514685
3401.439788	173.458042
3402.472311	170.862238
3403.507587	165.494406
3404.539832	170.895105
3405.571939	170.903497
3406.602462	169.002797
3407.634292	167.495105
3408.665984	161.778322
3409.694648	161.122378
3410.723175	159.234965
3411.753008	147.427273
3412.782704	141.599301
3413.809374	144.387413
3414.837351	137.225175
3415.862303	139.365734
3416.890005	141.995105
3417.914684	138.044755
3418.940669	139.378322
3419.965074	137.112587
3420.989343	137.351049
3422.012033	135.924476
3423.034587	137.048951
3424.058447	130.153147
3425.079287	135.902797
3426.099991	140.873526
3427.122002	146.226124
3428.140994	151.348352
3429.159850	155.627972
3430.180013	158.452747
3431.197159	159.210440
