-118.059454	-5.653297
-115.389854	-0.979121
-112.723189	1.048751
-110.057276	1.065634
-107.394295	-0.293157
-104.729885	-2.392308
-102.068405	-4.596503
-99.405496	-4.513986
-96.747693	-3.025175
-94.088461	-0.648951
-91.429977	0.806993
-88.774417	1.746853
-86.117429	2.484615
-83.465539	3.498601
-80.812218	3.487413
-78.161818	4.152448
-75.509988	1.279021
-72.863249	-1.458741
-70.215081	-1.602797
-67.567655	-0.163636
-64.923143	1.121678
-62.277203	2.216783
-59.636344	0.888811
-56.994056	1.989510
-54.354677	0.925874
-51.713868	0.875524
-49.073800	-0.005594
-46.438804	-0.586014
-43.802380	-3.147552
-41.168858	-3.888112
-38.533908	-3.779720
-35.904023	-0.936364
-33.270546	3.300000
-30.642131	6.023776
-28.014450	8.616084
-25.385340	12.754545
-22.761287	10.975524
-20.133645	5.238462
-17.511056	-10.932867
-14.889199	-30.720979
-12.268072	18.376224
-9.647675	117.069231
-7.030167	200.058741
-4.411230	257.560839
-1.795178	293.323776
0.820145	302.565734
3.434741	289.676923
6.046454	252.571329
8.659596	189.389510
11.267704	103.437762
13.879394	12.743357
16.486053	-47.776224
19.094140	-34.883217
21.701503	-5.556643
24.303841	-4.494406
26.909757	-5.231469
29.510651	-5.251748
32.112973	-5.892308
34.710278	-3.239860
37.311158	-0.244755
39.907023	1.902797
42.504317	0.760839
45.100891	0.127972
47.692456	-1.200699
50.285449	-5.427273
52.875581	-3.565035
55.467141	-3.355245
58.055841	0.701399
60.645968	0.565035
63.231096	1.381818
65.817652	2.616783
68.403494	2.089510
70.986482	0.955245
73.570896	-0.957343
76.148182	-3.112587
78.729034	-6.501399
81.307037	-8.774126
83.884330	-6.809790
86.463049	-4.741259
89.036786	1.687413
91.611951	1.079720
94.184272	3.204196
96.755885	4.939161
99.324658	6.658042
101.894858	6.504196
104.462220	4.323077
107.031007	3.241259
109.596958	2.746154
112.160074	-1.572727
114.726746	-2.984615
117.284197	-3.020979
119.847333	-1.669930
122.405509	-3.965734
124.967240	-2.274126
127.524014	1.230769
130.082215	6.599301
132.635462	8.930769
135.188012	13.389510
137.744112	19.756643
140.295264	25.532168
142.845719	26.576923
145.395476	31.609790
147.942414	35.034965
150.488657	39.360839
153.036325	43.383217
155.583297	42.154545
158.125334	41.659441
160.666677	40.000699
163.207327	36.977622
165.749403	39.002797
168.288667	38.790909
170.825123	38.102797
173.360887	37.516783
175.898077	37.701399
178.434576	38.182517
180.968269	39.720280
183.499158	41.379021
186.029360	38.661538
188.560986	38.652448
191.089811	36.200699
193.615837	35.406294
196.141177	37.876923
198.667942	39.909091
201.191911	43.749650
203.715195	44.189510
206.237794	47.199301
208.757600	48.676923
211.276723	49.645455
213.795163	49.783916
216.315027	48.887413
218.827890	46.530769
221.344284	42.544755
223.859996	39.784615
226.370818	39.083217
228.883065	41.347552
231.392530	43.072727
233.901316	42.511888
236.409423	44.828671
238.918955	45.684615
241.423606	46.327972
243.927581	45.856643
246.432980	46.076224
248.933504	43.943357
251.437552	44.379720
253.934628	44.175524
256.435228	43.417483
258.933056	42.480420
261.430211	40.431469
263.926693	41.001399
266.418312	40.864336
268.913451	42.448951
271.405823	44.093007
273.897525	44.481119
276.386464	46.972028
278.876827	47.378322
281.364427	50.053147
283.849268	50.865734
286.337624	47.318881
288.819040	45.195105
291.303970	42.216783
293.784055	42.235664
296.267652	42.495804
298.746406	43.191608
301.226584	43.669930
303.704009	41.657343
306.180771	41.897902
308.656870	41.847552
311.130220	42.909091
313.602908	44.276923
316.074935	45.506294
318.546301	47.604895
321.014922	45.553147
323.482885	44.769930
325.952269	46.872028
328.416831	46.184615
330.884897	44.867133
333.348143	41.450350
335.810731	39.671329
338.272663	39.190210
340.733938	41.634266
343.192479	42.407692
345.652442	43.600000
348.109672	42.266434
350.566248	40.587413
353.022170	40.714685
355.475362	39.985315
357.929977	37.720979
360.379790	33.685315
362.833099	32.444755
365.281610	31.875524
367.729469	33.853147
370.178751	37.447552
372.623239	36.806294
375.069149	36.804895
377.514409	36.981119
379.956951	36.823776
382.398845	38.286014
384.840092	34.865035
387.278623	34.451049
389.718576	32.139860
392.155815	32.827972
394.590342	31.520979
397.028357	31.357343
399.461595	30.349650
401.896254	30.488112
404.326141	28.925175
406.759513	28.868531
409.188115	29.735664
411.616075	34.178322
414.045457	33.103497
416.470073	35.981119
418.896111	38.143357
421.321508	38.888112
423.746265	36.170629
426.166264	33.031469
428.587684	30.583916
431.006407	31.120979
433.426551	30.230070
435.844000	32.356643
438.262869	32.032168
440.679045	33.113986
443.090473	31.858042
445.505379	28.381119
447.917594	25.937063
450.329175	22.130769
452.740122	17.618182
455.148383	15.287413
457.556011	15.141259
459.963007	17.323077
462.369372	20.709091
464.773054	25.485315
467.176106	26.890909
469.578528	29.523776
471.980320	31.734266
474.379435	29.365035
476.779969	27.472028
479.179874	27.352448
481.575056	25.947552
483.973705	25.986713
486.367634	26.965035
488.760937	27.146154
491.153614	29.927972
493.545666	32.314685
495.939136	34.101399
498.327894	38.206294
500.713986	44.729371
503.101498	57.012587
505.488387	76.851049
507.872612	113.350350
510.258255	151.704196
512.641237	193.755245
515.021558	226.309790
517.403298	250.752448
519.782379	259.486713
522.162879	255.076224
524.540721	236.815385
526.915908	207.608392
529.290477	172.883916
531.666464	143.737063
534.039799	118.934965
536.414551	106.566434
538.784618	96.229371
541.154069	90.773427
543.524938	85.346853
545.891127	83.241958
548.258734	74.450350
550.623695	69.218182
552.988043	64.729371
555.351778	58.953147
557.716931	53.721678
560.077412	49.724476
562.439311	45.295804
564.798569	42.325175
567.155190	41.528671
569.515255	41.999301
571.868629	43.920280
574.225448	46.420979
576.579632	42.000000
578.933208	40.444755
581.286175	38.667832
583.636510	35.388811
585.988263	35.477622
588.333339	34.780420
590.683879	34.324476
593.027745	35.297203
595.377073	39.281119
597.721752	40.075524
600.063807	42.507692
602.407279	42.841958
604.748128	40.555944
607.088375	40.242657
609.426001	39.372028
611.767062	40.769930
614.103485	43.033566
616.441325	41.560140
618.776548	41.408392
621.109155	41.331469
623.443178	40.466434
625.774587	35.437762
628.105398	33.059441
630.435612	29.874126
632.765227	32.400699
635.090220	31.900699
637.420653	32.469231
639.746466	35.134965
642.069671	37.097902
644.394293	38.337063
646.716309	40.046154
649.037731	40.688112
651.356551	38.438462
653.676786	35.987413
655.996428	36.301399
658.313469	37.088811
660.629918	38.928671
662.943769	33.932867
665.259036	34.789510
667.571706	35.308392
669.885791	35.774126
672.195276	35.676923
674.506177	36.304895
676.814485	36.595804
679.122205	35.600699
681.431339	34.673427
683.735881	33.900000
686.039837	33.190909
688.343207	30.855245
690.647991	28.644755
692.948189	26.572028
695.249801	24.585315
697.550829	22.217483
699.847274	23.227972
702.145135	25.641259
704.442412	28.662937
706.739106	30.597902
709.031224	29.731469
711.326753	30.254545
713.617708	31.308392
715.910078	31.902098
718.199873	32.958741
720.489087	26.031469
722.777722	23.597902
725.063784	20.095804
727.351261	20.926573
729.636166	21.209091
731.920494	21.358741
734.202253	22.757343
736.485426	21.907692
738.768022	24.083916
741.046062	25.909790
743.325517	30.028671
745.604395	30.696503
747.882699	29.248252
750.156453	29.158042
752.431620	28.081119
754.706214	27.880420
756.978249	26.097203
759.251697	25.479021
761.522587	26.332867
763.790921	24.271329
766.060668	24.868531
768.327861	26.960140
770.594483	30.386014
772.860535	30.712587
775.124036	31.139860
777.388950	29.643357
779.653294	28.092308
781.913109	28.395804
784.174336	27.844755
786.434996	29.367133
788.693110	27.971329
790.948679	25.826573
793.207639	24.504196
795.460100	26.148252
797.717927	25.448951
799.971236	25.344755
802.222005	27.374825
804.474186	27.366434
806.723828	29.438462
808.974883	31.944755
811.221426	32.266434
813.469381	31.989510
815.714802	27.886014
817.961634	27.720979
820.207905	27.274126
822.449671	27.276224
824.694821	25.435664
826.933498	26.325874
829.175557	29.688811
831.413118	26.569231
833.652091	27.430769
835.888537	25.318182
838.126394	23.066434
840.361726	22.690909
842.594535	21.275524
844.828755	22.150350
847.060452	24.113287
849.291595	27.086713
851.522183	27.107692
853.752217	29.853147
855.981697	31.349650
858.206695	29.846853
860.435068	29.960140
862.658961	30.025175
864.884266	28.085315
867.105095	26.695105
869.329296	24.845455
871.549024	22.524476
873.770162	25.871329
875.990750	26.655944
878.208829	25.704895
880.428317	28.785315
882.643339	29.868531
884.857814	31.289510
887.071740	31.741958
889.285120	32.531469
891.497952	29.502797
893.710238	25.970629
895.920021	25.813986
898.129259	24.236364
900.337952	27.308392
902.544146	25.419580
904.751749	25.365035
906.956854	26.672028
909.161416	27.711189
911.363483	27.464336
913.566959	28.779720
915.767941	28.193706
917.968381	28.123776
920.170230	28.987413
922.365688	31.984615
924.564505	35.425874
926.758883	39.262937
928.956619	39.116783
931.149919	41.393007
933.344628	45.398601
935.536851	47.984615
937.728535	49.976224
939.919682	53.806294
942.108346	52.501399
944.296474	52.937063
946.482121	54.476224
948.671120	53.186713
950.855696	54.155245
953.039737	50.910490
955.227128	48.026573
957.406215	49.613287
959.588653	50.365035
961.770557	49.022378
963.949986	50.779021
966.126943	51.013287
968.305308	48.272028
970.485080	48.115385
972.658503	48.034965
974.835272	48.395804
977.007634	49.374126
979.181404	47.390909
981.350770	44.034965
983.523480	45.948951
985.693725	44.769231
987.863441	44.241259
990.032628	45.136364
992.197418	39.727273
994.365549	38.047552
996.529286	36.201399
998.694429	33.723077
1000.857113	34.070629
1003.019272	36.137762
1005.178974	33.674825
1007.338151	31.234965
1009.498735	36.288112
1011.656865	35.596503
1013.814470	34.719580
1015.971552	32.979720
1018.128110	30.526573
1020.280289	30.213287
1022.433875	31.044056
1024.586939	30.535664
1026.737554	31.958741
1028.889576	36.085315
1031.037224	32.786014
1033.188204	33.950350
1035.334813	33.534965
1037.480903	28.737063
1039.626475	25.583217
1041.773452	24.007692
1043.914140	24.104196
1046.058158	23.565035
1048.199735	28.304196
1050.340796	29.348951
1052.483261	31.059441
1054.619447	32.509790
1056.758958	29.816084
1058.894115	30.331469
1061.032596	27.312587
1063.166723	22.680420
1065.300337	20.860140
1067.435356	20.478322
1069.566025	20.420979
1071.698099	24.113986
1073.827744	26.100699
1075.956877	26.856643
1078.085498	26.991608
1080.213608	28.365035
1082.339292	26.627273
1084.464466	24.710490
1086.591044	21.569930
1088.713284	18.710490
1090.836929	20.255245
1092.956239	21.678322
1095.080779	23.616783
1097.199073	25.685315
1099.318772	26.125175
1101.436052	23.844755
1103.552826	23.155245
1105.669093	26.123776
1107.782944	23.579021
1109.898200	24.664336
1112.009132	22.746853
1114.123377	25.579720
1116.233301	26.449650
1118.344629	27.700000
1120.455452	26.991608
1122.561959	22.077622
1124.671776	21.083217
1126.777278	17.106294
1128.884183	17.344056
1130.984873	19.206993
1133.090775	20.343357
1135.192368	22.603497
1137.295364	20.192308
1139.397859	22.971329
1141.494147	21.909091
1143.595643	23.262238
1145.692835	22.534965
1147.789530	23.183217
1149.885726	25.995804
1151.981425	26.641958
1154.076625	27.952448
1156.169429	31.219580
1158.263636	32.683217
1160.351651	30.361538
1162.444864	30.281818
1164.531889	30.276224
1166.622213	27.046853
1168.708250	27.124476
1170.797584	27.216783
1172.880737	26.593007
1174.965292	21.122378
1177.051249	18.004895
1179.132924	17.862238
1181.216001	19.010490
1183.296692	16.265035
1185.376891	17.047552
1187.456599	19.178322
1189.535816	18.812587
1191.612651	18.165035
1193.687105	20.902098
1195.764850	23.220280
1197.838326	19.943357
1199.913202	18.604196
1201.983811	18.921678
1204.055821	20.726573
1206.125456	20.076224
1208.196491	20.148951
1210.267038	19.990210
1212.333324	19.914685
1214.401011	20.754545
1216.466326	24.741958
1218.533041	27.527972
1220.595500	29.414685
1222.661244	26.760140
1224.722734	25.470629
1226.785625	23.986014
1228.846148	21.839161
1230.906187	17.658042
1232.965744	16.232168
1235.022935	13.056643
1237.079645	14.983217
1239.133991	16.162937
1241.191619	19.237063
1243.246884	21.072028
1245.297908	24.102098
1247.350332	24.018881
1249.402276	22.422378
1251.451862	23.242657
1253.500969	23.098601
1255.549598	23.490210
1257.597748	23.341958
1259.645419	23.675524
1261.688860	27.912587
1263.735577	28.758741
1265.779940	28.633566
1267.823827	29.552448
1269.865362	30.692308
1271.904548	26.421678
1273.947007	22.348951
1275.985243	20.241958
1278.024878	18.509091
1280.064038	18.564336
1282.098979	18.382517
1284.135319	21.416084
1286.169315	26.153846
1288.204708	25.353147
1290.235889	23.796503
1292.268467	25.966434
1294.300574	26.999301
1296.330340	25.213287
1298.361504	24.643357
1300.388460	23.393706
1302.416814	24.359441
1304.440963	26.343357
1306.468378	30.303497
1308.491590	33.067133
1310.516200	33.374825
1312.538476	32.544755
1314.562149	32.616084
1316.583489	33.590909
1318.604361	32.786713
1320.624766	32.450350
1322.640978	30.319580
1324.658587	28.467133
1326.673868	28.495804
1328.692408	26.505594
1330.706759	27.055245
1332.718784	28.502098
1334.734066	32.155245
1336.745163	31.504895
1338.757657	32.339860
1340.765968	32.436364
1342.777534	32.139860
1344.783062	29.255944
1346.791845	27.912587
1348.796450	25.718182
1350.804309	21.074825
1352.811706	16.279720
1354.813072	17.841259
1356.815834	20.644056
1358.818137	23.421678
1360.819980	21.985315
1362.821363	25.163636
1364.820433	25.923776
1366.819044	24.709091
1368.817197	23.971329
1370.814891	26.741958
1372.808423	23.860140
1374.803351	22.018881
1376.797821	22.130769
1378.791835	25.312587
1380.783542	23.934965
1382.774794	24.296503
1384.763740	25.165035
1386.754081	24.205594
1388.743967	22.474126
1390.731549	21.495804
1392.718678	23.227273
1394.703505	24.397902
1396.689727	21.768531
1398.673649	25.088112
1400.657118	24.179021
1402.640134	22.876224
1404.620853	22.082517
1406.602966	21.897203
1408.582783	24.406993
1410.562148	22.821678
1412.537375	22.648252
1414.515840	22.359441
1416.492012	23.581818
1418.467735	24.696503
1420.443008	24.226573
1422.415990	27.112587
1424.388524	25.104895
1426.360610	25.625874
1428.332249	26.761538
1430.299759	28.035664
1432.272343	30.590210
1434.237122	30.396503
1436.206972	28.926573
1438.172699	25.670629
1440.139818	22.717483
1442.104654	19.807692
1444.065370	18.237063
1446.031154	17.661538
1447.990983	17.988811
1449.952206	18.804895
1451.914821	18.997902
1453.873321	21.111189
1455.831378	23.461538
1457.788994	24.317483
1459.746167	25.472028
1461.701065	24.348951
1463.657356	22.471329
1465.611372	21.445455
1467.564947	21.264336
1469.516250	20.761538
1471.468946	22.577622
1473.419369	22.490210
1475.369354	21.723776
1477.318900	24.269930
1479.266177	24.794406
1481.211186	25.183916
1483.157588	26.876224
1485.103552	28.015385
1487.049079	27.704895
1488.992340	25.815385
1490.935166	23.810490
1492.875728	23.566434
1494.817681	24.125175
1496.757372	23.155944
1498.696629	22.003497
1500.635450	22.792308
1502.572012	22.141259
1504.509965	24.116783
1506.445659	26.746853
1508.380920	29.327273
1510.313925	27.872028
1512.246497	26.934965
1514.178637	26.904196
1516.110345	26.171329
1518.039799	26.212587
1519.970644	25.183217
1521.901057	21.631469
1523.827398	21.348252
1525.755130	22.835664
1527.680611	23.895105
1529.605663	25.589510
1531.530286	24.733566
1533.454480	22.715385
1535.376426	22.397203
1537.299763	23.162937
1539.220853	24.086713
1541.139700	24.988112
1543.059935	26.436364
1544.977928	25.421678
1546.895494	27.023776
1548.810818	28.223077
1550.727532	28.062937
1552.640191	28.625175
1554.556054	28.616084
1556.469677	26.376923
1558.381062	26.541259
1560.293837	27.318182
1562.202562	31.837063
1564.112676	30.125874
1566.022367	31.181818
1567.931635	33.381119
1569.838669	36.469231
1571.743470	40.079021
1573.649660	44.232168
1575.553618	51.272028
1577.457155	57.947552
1579.360272	62.023776
1581.261159	64.725175
1583.163435	62.958741
1585.063483	62.297203
1586.964918	55.139161
1588.862320	48.476224
1590.759303	42.662238
1592.655868	36.706993
1594.553821	31.278322
1596.445939	30.341259
1598.341250	30.778322
1600.236144	32.801399
1602.128816	32.202797
1604.021071	32.471329
1605.911107	34.339860
1607.800727	35.835664
1609.689932	38.158042
1611.578722	36.611888
1613.465294	34.435664
1615.353254	34.270629
1617.237197	31.379021
1619.122527	28.328671
1621.007444	26.496503
1622.890147	25.548252
1624.774237	22.826573
1626.654315	26.052448
1628.535781	27.806993
1630.415036	28.023776
1632.295677	31.025175
1634.170514	30.391608
1636.050332	30.505594
1637.926146	31.932168
1639.801549	30.202797
1641.678338	30.089510
1643.549331	29.962238
1645.423505	27.516783
1647.293680	24.818182
1649.167037	23.995105
1651.038190	23.089510
1652.907141	22.137762
1654.777477	24.479720
1656.643821	22.863636
1658.511550	25.080420
1660.377080	25.326573
1662.243996	24.211888
1664.106923	23.918881
1665.971235	19.760839
1667.833351	16.754545
1669.695062	14.257343
1671.558159	15.187413
1673.419060	16.498601
1675.277769	15.973427
1677.136074	16.281818
1678.995764	15.886014
1680.849686	20.043357
1682.706782	23.227273
1684.563475	22.781119
1686.416191	24.466434
1688.272079	25.246154
1690.123993	28.311189
1691.975506	28.106993
1693.826618	25.424476
1695.677330	21.112587
1697.527641	19.606294
1699.375767	15.453147
1701.225278	11.895804
1703.069040	14.451748
1704.917751	17.259441
1706.760716	14.428671
1708.606848	17.780420
1710.449017	18.152448
1712.294352	20.165035
1714.133946	17.902098
1715.974924	14.556643
1717.817285	12.494406
1719.655690	12.804196
1721.495478	11.489510
1723.333091	9.419580
1725.170308	12.876923
1727.005352	15.916783
1728.841779	14.583916
1730.676034	16.107692
1732.509894	17.060140
1734.343360	19.214685
1736.172881	17.956643
1738.005560	16.395804
1739.834295	15.304196
1741.666187	15.931469
1743.494137	15.325175
1745.321696	11.964336
1747.148862	11.641958
1748.975637	13.121678
1750.802020	10.269231
1752.624467	11.315385
1754.450069	14.769231
1756.271736	16.321678
1758.094785	17.109790
1759.915672	21.093706
1761.736171	22.102098
1763.558051	23.374126
1765.374231	21.307692
1767.193563	18.860839
1769.008968	18.555944
1770.827523	16.800000
1772.642153	11.981119
1774.456396	12.774825
1776.270253	13.987413
1778.083723	15.646154
1779.895040	17.444755
1781.707737	22.576224
1783.520049	23.544755
1785.328443	26.309091
1787.138217	24.247552
1788.944077	23.167133
1790.753082	21.678322
1792.558174	19.941958
1794.364647	13.416783
1796.170736	12.793706
1797.972914	12.211189
1799.778237	12.377622
1801.579651	14.116084
1803.382445	16.209790
1805.181333	17.427972
1806.981602	20.378322
1808.781489	18.991608
1810.579234	20.937063
1812.376599	22.724476
1814.173584	23.213287
1815.970188	20.346853
1817.764653	21.769930
1819.560497	19.767832
1821.350686	18.103497
1823.145772	19.297203
1824.935206	20.000000
1826.727776	20.476923
1828.518211	20.827972
1830.306512	20.977622
1832.097948	23.081818
1833.883738	23.030070
1835.670908	21.298601
1837.455946	23.044056
1839.244118	22.334266
1841.028404	19.353147
1842.810560	17.872727
1844.594096	17.941259
1846.375503	16.919580
1848.158289	13.370629
1849.937194	12.109091
1851.717479	13.502797
1853.495637	13.532168
1855.275174	12.801399
1857.052586	13.670629
1858.827874	15.904196
1860.604540	17.123077
1862.379084	16.478322
1864.155006	18.839161
1865.925307	21.588811
1867.698736	21.367133
1869.470045	19.057343
1871.240983	19.519580
1873.013299	17.715385
1874.780001	18.386713
1876.549829	20.639161
1878.315793	21.520979
1880.084880	20.720280
1881.850106	21.988112
1883.614964	21.641958
1885.381199	23.748252
1887.143575	24.731469
1888.905584	21.401399
1890.667225	19.099301
1892.428500	20.326573
1894.189407	18.318881
1895.949948	22.562238
1897.708379	22.836364
1899.466444	21.016783
1901.222402	21.102797
1902.979736	20.157343
1904.736705	18.082517
1906.491567	17.151748
1908.244325	16.776224
1909.996718	13.253846
1911.750488	13.674126
1913.502154	16.683217
1915.251718	15.806294
1917.002657	20.464336
1918.753234	18.979720
1920.499971	20.456643
1922.248085	19.680420
1923.994099	18.067133
1925.741488	16.351748
1927.486780	14.274126
1929.229974	11.836364
1930.974543	9.199301
1932.717017	8.346853
1934.459130	10.177622
1936.200883	9.183916
1937.942276	11.304895
1939.681576	11.611888
1941.420517	15.520979
1943.159099	14.969231
1944.895590	15.255944
1946.631723	14.340559
1948.369230	14.350350
1950.102915	14.590909
1951.837975	16.430070
1953.570946	15.254545
1955.303561	16.187413
1957.035820	14.318881
1958.767722	12.197203
1960.497538	13.367133
1962.225269	14.513986
1963.954375	13.148252
1965.683126	11.165734
1967.409793	10.346853
1969.136106	10.847552
1970.863792	9.980420
1972.585942	13.193007
1974.311193	12.338462
1976.032637	15.317483
1977.757182	16.797902
1979.479646	18.531469
1981.198308	20.781818
1982.920068	20.460839
1984.638026	18.290909
1986.357357	16.870629
1988.072889	14.961538
1989.793241	13.776224
1991.509795	14.172727
1993.222552	15.564336
1994.938405	17.617483
1996.652186	20.602797
1998.365617	22.368531
2000.076977	23.720979
2001.789709	24.153846
2003.498651	21.593007
2005.210685	18.444056
2006.917211	18.655944
2008.626828	17.097203
2010.334379	15.060140
2012.041581	12.425175
2013.746718	13.739860
2015.451509	16.400699
2017.157671	20.040559
2018.860051	23.415385
2020.563802	24.706294
2022.265491	28.986014
2023.966835	29.109790
2025.667833	28.109091
2027.366770	26.149650
2029.067079	22.897902
2030.763613	20.054545
2032.461518	17.432867
2034.157364	20.140559
2035.856296	17.800000
2037.549742	18.404196
2039.244559	19.278322
2040.939034	18.066434
2042.629740	20.145455
2044.323530	16.476923
2046.013553	12.688811
2047.704947	8.855245
2049.394288	8.432168
2051.084999	7.630070
2052.771947	8.306993
2054.458556	9.686713
2056.146534	7.932867
2057.830753	10.814685
2059.516343	12.988811
2061.201593	12.217483
2062.884794	13.427972
2064.569366	12.938462
2066.248475	14.396503
2067.932369	15.004196
2069.610802	14.957343
2071.292313	16.379720
2072.970072	19.535664
2074.647495	23.596503
2076.326287	23.355944
2078.003037	24.848252
2079.677745	23.689510
2081.353822	24.524476
2083.027859	23.432168
2084.701560	20.574126
2086.374926	19.910490
2088.046253	17.043357
2089.717246	14.678322
2091.387905	18.227972
2093.058230	21.253846
2094.728221	23.358042
2096.396176	22.044755
2098.063798	24.697203
2099.729385	22.920979
2101.396341	25.418182
2103.061264	21.780420
2104.725855	20.355245
2106.388414	21.500000
2108.052341	19.285315
2109.714237	18.233566
2111.375803	21.639161
2113.037037	24.001399
2114.696243	23.913986
2116.355118	23.127972
2118.013664	24.200699
2119.671880	20.932168
2121.326372	19.548951
2122.983929	15.309091
2124.641157	15.879720
2126.294663	16.076224
2127.949537	12.889510
2129.600692	10.529371
2131.254910	13.302098
2132.905411	14.219580
2134.557278	13.650350
2136.203737	13.202098
2137.854951	14.437762
2139.502451	14.249650
2141.151318	11.389510
2142.798166	11.951748
2144.444689	15.279720
2146.090886	16.156643
2147.733375	15.007692
2149.378922	16.131469
2151.020762	17.305594
2152.665659	16.270629
2154.306850	15.964336
2155.947719	16.218182
2157.588263	17.524476
2159.226795	16.239860
2160.866693	14.971329
2162.502891	15.716084
2164.140455	16.398601
2165.777697	17.590909
2167.412929	18.690210
2169.047840	18.432168
2170.682428	16.431469
2172.316696	16.279021
2173.947270	19.425175
2175.580896	21.181119
2177.210830	22.401399
2178.842129	22.669231
2180.471423	25.502797
2182.100398	24.355944
2183.729053	23.566434
2185.357389	23.191608
2186.983723	20.796503
2188.609738	17.524476
2190.233751	15.115385
2191.859130	15.004895
2193.482508	17.771329
2195.107251	18.714685
2196.728313	17.954545
2198.349058	16.648951
2199.971168	16.129371
2201.591280	12.969231
2203.209395	11.049650
2204.827195	7.390210
2206.444680	5.225175
2208.061849	4.156643
2209.678703	7.051748
2211.295241	9.618182
2212.909787	13.322378
2214.522340	13.343357
2216.136257	11.903497
2217.748183	11.272028
2219.361472	13.277622
2220.972771	14.403497
2222.582080	13.679720
2224.192753	11.854545
2225.801437	12.470629
2227.409808	12.281119
2229.016193	14.025874
2230.623941	13.080420
2232.229702	15.482517
2233.835152	13.248252
2235.438617	13.887413
2237.043445	13.902797
2238.646289	14.927972
2240.247150	18.027273
2241.849374	17.556643
2243.449616	18.628671
2245.051220	19.299301
2246.649171	18.616783
2248.248485	17.162937
2249.845819	17.663636
2251.442845	18.234965
2253.041233	14.029371
2254.635972	12.753846
2256.228734	11.571329
2257.822859	13.933566
2259.418345	16.860839
2261.010186	13.872727
2262.601721	14.528671
2264.194618	14.211888
2265.782205	14.700699
2267.374488	13.271329
2268.961465	14.791608
2270.551469	12.567832
2272.136169	10.459441
2273.725563	13.444755
2275.309655	16.830769
2276.895107	21.862238
2278.478591	22.307692
2280.065100	21.705594
2281.647976	23.268531
2283.230549	22.282168
2284.812818	20.220280
2286.391457	18.296154
2287.973121	15.646853
2289.551156	11.073077
2291.132214	10.908392
2292.709645	14.587762
2294.285113	17.120979
2295.863603	16.766783
2297.438469	18.624476
2299.013034	18.689161
2300.587299	17.839161
2302.161263	18.368881
2303.734926	17.481818
2305.308290	18.141259
2306.878035	13.520979
2308.447481	12.942657
2310.019945	12.386014
2311.587135	13.328671
2313.157343	12.988811
2314.723936	11.488811
2316.291889	12.906993
2317.857886	10.155245
2319.423586	8.780420
2320.988988	12.251748
2322.552437	11.038462
2324.117245	10.566434
2325.678445	7.255245
2327.242659	7.026573
2328.801611	6.041958
2330.363578	6.900699
2331.923593	8.303497
2333.483314	9.932168
2335.041085	9.315385
2336.598561	12.175524
2338.155743	13.265035
2339.710977	17.219580
2341.265918	14.639860
2342.820564	15.297203
2344.374917	12.832168
2345.928977	11.631469
2347.482742	8.903497
2349.034564	9.065035
2350.584442	11.318182
2352.137328	6.467133
2353.684972	3.860839
2355.235623	5.010490
2356.782683	2.248252
2358.331101	1.752448
2359.879228	2.111189
2361.423766	6.308392
2362.969662	5.727273
2364.513620	11.330769
2366.058935	12.625175
2367.600665	19.430070
2369.143752	23.157343
2370.684903	20.679021
2372.225765	21.804196
2373.766338	24.687413
2375.306622	23.523077
2376.846617	22.236364
2378.383034	21.462937
2379.922452	19.661538
2381.458293	15.817483
2382.995490	14.179720
2384.529112	9.437762
2386.065734	8.717483
2387.600426	5.864336
2389.133188	5.125874
2390.665663	5.788112
2392.196210	8.920979
2393.729755	10.425175
2395.258089	10.640559
2396.787780	12.400000
2398.317184	14.209790
2399.846304	13.093007
2401.375139	11.908392
2402.898768	12.141259
2404.427033	12.248252
2405.950096	10.491608
2407.477792	12.625175
2408.998649	12.932168
2410.524139	11.823776
2412.046068	12.856643
2413.569353	11.829371
2415.090716	12.463636
2416.610160	10.466434
2418.130959	5.605594
2419.649840	4.880420
2421.168438	3.688811
2422.685119	4.344056
2424.203154	5.400699
2425.720908	9.962937
2427.235111	11.889510
2428.749033	11.634266
2430.262675	13.820280
2431.777672	11.264336
2433.289120	13.895804
2434.801923	14.283217
2436.312812	10.591608
2437.823423	10.363636
2439.332122	9.254545
2440.843807	11.594406
2442.351949	13.102098
2443.859813	16.814685
2445.367399	17.932168
2446.871444	19.246853
2448.378474	20.330769
2449.883597	20.427972
2451.388441	24.325874
2452.891379	24.941259
2454.394041	20.741259
2455.896426	20.415385
2457.396906	18.991608
2458.898739	21.222378
2460.398667	19.909091
2461.898320	19.001399
2463.397698	16.260140
2464.895173	15.135664
2466.390746	13.914685
2467.889299	13.295105
2469.384324	12.825175
2470.880701	11.386713
2472.373552	8.988112
2473.867756	10.179021
2475.361686	11.615385
2476.852092	15.923776
2478.345476	19.484615
2479.836962	22.851049
2481.326551	21.753846
2482.815868	23.467832
2484.303289	23.167133
2485.793686	22.269231
2487.280565	21.409790
2488.768795	17.563636
2490.253508	17.201399
2491.737952	16.703497
2493.223746	15.205594
2494.707649	16.574825
2496.192902	18.033566
2497.673022	16.454545
2499.156115	12.586014
2500.637317	13.928671
2502.118250	13.295105
2503.597294	12.997902
2505.076069	14.341958
2506.554576	15.241958
2508.032815	16.413287
2509.510785	15.555245
2510.985250	16.098601
2512.462685	16.372727
2513.936616	18.465035
2515.411897	17.481119
2516.886911	14.909091
2518.358425	16.444056
2519.831288	14.978322
2521.302269	14.203497
2522.774600	13.122378
2524.241817	12.132867
2525.712001	9.166434
2527.180304	9.068531
2528.648342	11.583217
2530.116115	14.724476
2531.583623	17.360839
2533.050866	16.493706
2534.514617	14.857343
2535.979718	16.856643
2537.442942	17.249650
2538.907516	18.489510
2540.368600	16.660140
2541.831034	15.669231
2543.293205	12.067832
2544.751890	11.600000
2546.215147	12.400699
2547.673307	12.239860
2549.132816	10.334965
2550.587231	11.862937
2552.046217	10.817483
2553.503331	14.347552
2554.958574	15.746853
2556.413555	16.381119
2557.866668	13.291608
2559.321129	12.346154
2560.773720	11.309091
2562.226052	13.706294
2563.676517	13.230769
2565.129937	14.055944
2566.578275	16.699301
2568.029569	17.993706
2569.478996	15.603497
2570.924951	16.801399
2572.373861	15.884615
2573.819301	13.620979
2575.266088	10.168531
2576.711013	12.527273
2578.155679	12.562238
2579.601693	14.496503
2581.044241	13.165734
2582.488136	13.557343
2583.928566	11.672727
2585.370343	11.095105
2586.810261	9.384615
2588.251526	11.690909
2589.689329	10.952448
2591.130082	8.576923
2592.565773	11.035664
2594.004413	14.197902
2595.441195	14.235664
2596.876122	16.321678
2598.313996	16.001399
2599.746813	14.305594
2601.180977	12.779720
2602.613287	16.043357
2604.046943	16.770629
2605.478746	15.519580
2606.910295	11.091608
2608.341592	7.501399
2609.771036	8.198601
2611.200228	8.080420
2612.627570	7.652448
2614.056257	11.509790
2615.484693	14.318881
2616.909681	14.855245
2618.336016	18.058042
2619.760502	21.187413
2621.186334	23.413986
2622.608722	20.617483
2624.032456	19.799301
2625.454343	20.106993
2626.875981	19.794406
2628.295773	21.157343
2629.716911	21.632867
2631.137799	23.623776
2632.555249	23.588112
2633.975638	23.496503
2635.392590	23.978322
2636.809293	23.797203
2638.225748	26.658042
2639.641955	25.814685
2641.057914	28.906993
2642.472032	28.654545
2643.885902	28.605594
2645.297934	29.646853
2646.711309	30.074825
2648.121255	27.345455
2649.534137	28.183217
2650.943590	28.144056
2652.352797	26.133566
2653.760168	26.351049
2655.170473	30.725175
2656.578943	32.417483
2657.985577	30.079021
2659.391966	28.704895
2660.796521	32.131469
2662.202420	32.991608
2663.606486	36.039161
2665.010307	39.182517
2666.413884	47.174126
2667.815630	50.681818
2669.218719	51.968531
2670.618390	56.674126
2672.019405	63.912587
2673.417004	67.066434
2674.817533	66.902797
2676.214646	72.806993
2677.613103	79.325175
2679.009733	82.903497
2680.406120	86.480420
2681.802265	92.593706
2683.196585	94.778322
2684.592246	93.390210
2685.984499	91.302797
2687.378094	88.230769
2688.769865	85.758741
2690.162979	80.750350
2691.554269	77.754545
2692.943736	74.367133
2694.332963	72.116084
2695.721951	67.182517
2697.112280	62.982517
2698.497626	60.414685
2699.885895	56.209790
2701.272344	52.858042
2702.658554	48.927273
2704.044525	44.106294
2705.427098	43.506993
2706.811013	39.739161
2708.194690	39.874126
2709.578128	36.093007
2710.958172	35.390909
2712.339556	32.728671
2713.719126	30.385315
2715.100036	31.500000
2716.479132	29.239161
2717.856414	26.898601
2719.235037	23.890210
2720.611847	23.464336
2721.988420	24.322378
2723.364758	23.717483
2724.739285	25.154545
2726.115152	24.251748
2727.487632	23.244755
2728.863028	21.509790
2730.233464	18.417483
2731.605241	21.567832
2732.976783	17.183916
2734.346517	17.151049
2735.717592	15.239161
2737.086858	15.378322
2738.455891	14.015385
2739.823118	13.620979
2741.190112	13.511888
2742.556872	16.211189
2743.923401	14.892308
2745.288124	13.148252
2746.652615	11.344056
2748.016875	15.917483
2749.380902	16.053147
2750.744698	16.967832
2752.105120	16.132867
2753.468452	17.301399
2754.826842	17.830070
2756.188142	16.795105
2757.546072	17.244755
2758.906910	18.436364
2760.265949	18.730769
2761.621619	16.191608
2762.980197	16.124476
2764.335408	18.112587
2765.690390	17.004196
2767.043576	13.816783
2768.399668	12.064336
2769.752395	14.218182
2771.104895	12.469231
2772.457166	6.990210
2773.810776	7.167832
2775.161024	6.446154
2776.509478	8.598601
2777.860838	5.023776
2779.208838	6.088112
2780.558176	5.991608
2781.905722	2.190210
2783.253042	2.032867
2784.600135	4.989510
2785.945437	6.874825
2787.290512	6.602098
2788.635362	8.614685
2789.979986	12.450350
2791.321258	14.402797
2792.663868	17.451748
2794.006252	16.303497
2795.348411	15.637762
2796.687221	12.563636
2798.028931	9.260839
2799.367293	10.674126
2800.706991	9.477622
2802.044905	8.879720
2803.381034	10.577622
2804.716939	13.287413
2806.054182	14.651748
2807.389641	16.109091
2808.724877	16.997203
2810.058330	16.158042
2811.393120	16.276923
2812.724570	15.527972
2814.058915	14.322378
2815.388362	14.593706
2816.719146	13.819580
2818.049708	14.790210
2819.378491	15.112587
2820.708610	15.693007
2822.036951	14.136364
2823.365071	13.117483
2824.691413	13.095105
2826.019092	13.576224
2827.343437	11.133566
2828.669119	9.595804
2829.993025	8.964336
2831.316712	11.796503
2832.641734	10.921678
2833.963426	9.703497
2835.284900	8.278322
2836.606155	9.483916
2837.927191	11.506993
2839.246454	12.365035
2840.567053	14.441958
2841.885881	13.751748
2843.204490	10.383916
2844.521328	10.323776
2845.837949	11.115385
2847.154353	11.865035
2848.468987	8.815385
2849.784957	10.104196
2851.097606	8.185315
2852.411590	10.623077
2853.725358	10.597902
2855.038909	11.562937
2856.350694	12.534965
2857.660712	10.836364
2858.972065	7.953147
2860.280103	6.460140
2861.589475	6.234965
2862.898633	4.880420
2864.207575	5.365734
2865.514753	8.159441
2866.820169	9.248252
2868.126919	11.198601
2869.431906	12.572028
2870.736680	15.015385
2872.039692	14.718182
2873.345585	13.417483
2874.646624	10.418182
2875.948997	8.552448
2877.249610	8.516783
2878.551557	8.137063
2879.853290	9.244755
2881.151720	9.616084
2882.451483	11.120280
2883.749489	9.906294
2885.047283	10.584615
2886.343321	8.203497
2887.640692	8.004196
2888.936307	6.529371
2890.231711	7.902098
2891.526904	9.030769
2892.818800	10.439860
2894.113572	9.822378
2895.405047	10.774825
2896.697855	10.790909
2897.990453	10.579021
2899.279757	10.375524
2900.570393	11.712587
2901.859278	11.337762
2903.149495	11.429371
2904.436421	13.463636
2905.724679	13.850350
2907.011188	11.595804
2908.297489	9.317483
2909.583581	6.942657
2910.867925	8.145455
2912.155140	7.468531
2913.437529	7.888811
2914.721250	9.390909
2916.003225	10.104895
2917.284992	7.583916
2918.565015	7.343357
2919.847907	8.244755
2921.129054	4.497902
2922.406919	3.376224
2923.687653	4.244755
2924.965106	5.071329
2926.242353	8.288112
2927.517858	9.234266
2928.796231	11.734266
2930.069790	13.070629
2931.346216	12.902797
2932.620901	9.644755
2933.893845	10.337762
2935.168121	10.069930
2936.440657	10.404895
2937.712988	9.714685
2938.982047	11.662937
2940.253971	12.823776
2941.524157	12.613287
2942.794139	13.981119
2944.063918	16.918881
2945.331961	15.760839
2946.598267	15.102098
2947.864372	11.260140
2949.131806	12.325175
2950.397506	9.884615
2951.663003	8.899301
2952.928298	4.793007
2954.190328	3.577622
2955.453688	3.660839
2956.716847	4.952448
2957.978274	5.795105
2959.241030	6.909091
2960.502054	6.026573
2961.761348	7.220979
2963.020442	7.540559
2964.279335	10.025874
2965.538028	10.013287
2966.796521	12.303497
2968.053285	12.550350
2969.309849	12.013287
2970.564686	13.502797
2971.820851	14.946853
2973.073762	13.597902
2974.328002	12.530769
2975.582043	12.623776
2976.834358	15.686014
2978.086474	16.617483
2979.336866	16.184615
2980.590113	15.905594
2981.838583	17.115385
2983.089908	16.792308
2984.337983	15.411189
2985.585862	13.755944
2986.833543	11.435664
2988.081027	9.037762
2989.326790	6.628671
2990.572357	6.909790
2991.819251	8.879021
2993.062901	6.045455
2994.307879	4.792308
2995.549613	4.553846
2996.794199	7.868531
2998.037066	10.055245
2999.276692	11.800699
3000.519168	11.220979
3001.758404	9.584615
3002.998968	10.636364
3004.237816	12.827972
3005.476468	13.269930
3006.713406	12.355245
3007.951670	12.661538
3009.188219	15.132867
3010.424575	13.322378
3011.660737	13.162937
3012.895185	14.134266
3014.129441	12.337063
3015.363503	12.219580
3016.595853	9.223776
3017.826491	12.318881
3019.059975	13.102797
3020.291747	15.051748
3021.521809	16.703497
3022.751679	19.740559
3023.979839	22.183916
3025.209325	18.632168
3026.437102	17.495804
3027.664688	12.739860
3028.893601	7.697203
3030.117771	4.385315
3031.344784	2.022378
3032.568573	1.148252
3033.793689	-0.208392
3035.017098	3.689510
3036.240317	7.558042
3037.461831	13.258042
3038.686186	14.986713
3039.905806	14.794406
3041.126752	15.660839
3042.347509	13.304196
3043.566562	11.769231
3044.786940	8.976224
3046.004102	6.059441
3047.222590	1.682517
3048.439375	2.137063
3049.655973	2.444755
3050.872382	4.393706
3052.085579	5.972028
3053.301613	4.874126
3054.514435	4.396503
3055.730094	4.730769
3056.941030	5.648951
3058.153291	6.130070
3059.365366	5.774126
3060.577253	6.456643
3061.787444	7.496503
3062.997448	9.704895
3064.207266	10.252448
3065.415388	11.722378
3066.623325	11.537063
3067.829566	12.651748
3069.037132	9.874126
3070.243003	8.423776
3071.448690	6.200699
3072.654191	4.570629
3073.857999	2.626573
3075.063131	3.436364
3076.266570	-0.506993
3077.468318	0.958741
3078.669881	1.692308
3079.871261	2.241958
3081.072457	1.510490
3082.271963	5.154545
3083.471286	6.679720
3084.671932	8.417483
3085.870888	8.455944
3087.066650	10.449650
3088.265241	10.429371
3089.460638	10.646853
3090.657358	8.935664
3091.850886	10.066434
3093.047242	6.773427
3094.241912	6.655245
3095.433391	6.051049
3096.629201	7.819580
3097.820318	7.280420
3099.012757	5.700699
3100.202009	7.865734
3101.394086	9.032867
3102.584480	11.795105
3103.771688	13.116783
3104.960219	13.064336
3106.150071	10.919580
3107.336740	8.867832
3108.523228	10.365734
3109.709538	11.283916
3110.897169	9.534965
3112.081618	8.741958
3113.264388	6.909790
3114.449980	8.590909
3115.633893	9.374126
3116.816127	11.312587
3117.998182	9.835664
3119.180059	9.483217
3120.361758	10.343357
3121.541780	7.906294
3122.720125	10.576224
3123.901290	12.998601
3125.079280	10.632867
3126.257094	14.132867
3127.434730	12.784615
3128.610691	12.616084
3129.786475	11.927972
3130.963581	11.357343
3132.139012	10.766434
3133.312770	11.328671
3134.484855	12.506993
3135.658262	11.469231
3136.831492	15.381818
3138.003051	16.406993
3139.175930	17.651049
3140.345642	20.092308
3141.516675	18.047552
3142.686038	17.865734
3143.853730	14.370629
3145.024238	12.079720
3146.190088	8.772028
3147.360246	6.842657
3148.525748	5.241259
3149.691075	3.774126
3150.856229	1.631469
3152.021210	2.118881
3153.187510	3.972028
3154.349158	2.559441
3155.512125	4.595105
3156.674920	7.494406
3157.837542	6.706993
3158.998499	7.796503
3160.159283	8.520280
3161.319895	9.634266
3162.478843	8.427972
3163.637620	6.371329
3164.796225	3.095105
3165.954657	2.128671
3167.112919	3.011189
3168.269518	3.291608
3169.424456	4.089510
3170.580713	4.181818
3171.735309	5.177622
3172.889735	5.013287
3174.042501	7.256643
3175.195096	10.686014
3176.347522	11.050350
3177.499778	10.101399
3178.651863	11.181119
3179.800803	12.147552
3180.952549	11.306993
3182.102637	11.680420
3183.251069	9.557343
3184.399331	9.816783
3185.547425	10.533566
3186.695350	9.944056
3187.841619	12.011888
3188.987720	11.018881
3190.132167	10.141958
3191.276446	7.202797
3192.420557	9.407692
3193.565985	9.786713
3194.708275	9.644755
3195.850398	11.946853
3196.992353	11.337762
3198.134141	12.256643
3199.275762	11.845455
3200.414248	9.706993
3201.554051	7.155944
3202.695172	6.069930
3203.833158	5.837762
3204.969495	5.255245
3206.105666	8.065734
3207.243154	7.937063
3208.378994	10.241958
3209.516151	10.006294
3210.648695	11.542657
3211.785521	11.383916
3212.917735	9.508392
3214.051266	8.848951
3215.184633	10.197902
3216.314872	12.828671
3217.447909	13.984615
3218.577820	14.012587
3219.709047	13.186014
3220.837150	12.113986
3221.968049	13.685315
3223.097304	13.439860
3224.224916	12.821678
3225.349405	9.100699
3226.478170	5.818182
3227.603813	7.017483
3228.729294	5.409091
3229.853133	3.931469
3230.979766	1.721678
3232.101802	-0.690909
3233.225154	-0.508392
3234.348344	1.944755
3235.471372	4.401399
3236.592760	7.011888
3237.713986	3.488112
3238.833575	4.798601
3239.953002	4.479720
3241.070791	4.753846
3242.191372	4.552448
3243.308840	5.567133
3244.426147	5.182517
3245.543294	5.908392
3246.658805	8.131469
3247.775630	9.655245
3248.889346	11.239161
3250.005851	12.909091
3251.120722	9.146154
3252.232484	9.360839
3253.344086	4.393706
3254.457004	5.153846
3255.569762	5.807692
3256.679414	10.004895
3257.790381	10.716783
3258.901189	10.879021
3260.010365	9.229371
3261.117911	8.825175
3262.226770	9.073427
3263.335472	9.177622
3264.441071	3.939161
3265.547984	2.906294
3266.653268	2.917483
3267.759866	2.569930
3268.863364	1.934965
3269.968177	5.727972
3271.072832	5.585315
3272.174388	6.240559
3273.275788	6.585315
3274.378502	8.662937
3275.481060	10.903497
3276.580521	11.163636
3277.682766	9.106993
3278.781915	10.435664
3279.879440	9.569930
3280.976809	6.967832
3282.076960	8.337762
3283.174019	7.598601
3284.270922	6.873427
3285.367670	8.483217
3286.459860	8.155245
3287.556298	8.166434
3288.651114	9.873427
3289.745776	7.632867
3290.838816	7.218182
3291.931701	7.264336
3293.022967	7.665035
3294.115544	8.551748
3295.206502	8.773427
3296.295840	6.732168
3297.385025	5.836364
3298.475523	5.293007
3299.562936	2.471329
3300.650196	3.704196
3301.738769	2.758741
3302.827190	0.971329
3303.911063	-0.481818
3304.999178	1.211888
3306.084211	1.530070
3307.167629	-1.569930
3308.252359	-2.263636
3309.335473	0.952448
3310.419900	2.362238
3311.501248	6.192308
3312.583908	6.955245
3313.664954	9.164336
3314.745849	5.623776
3315.825130	5.539161
3316.904261	4.376224
3317.984704	6.076224
3319.062072	3.114685
3320.140752	-2.299301
3321.217820	0.216084
3322.294739	3.463636
3323.370046	3.172727
3324.445204	6.350350
3325.521673	3.565035
3326.595072	5.344755
3327.668322	3.560839
3328.742882	7.883916
3329.815834	10.332168
3330.887177	13.959441
3331.959831	12.567832
3333.029419	12.555245
3334.100317	13.269231
3335.169608	10.405594
3336.240210	7.806993
3337.309205	4.557343
3338.376594	0.660839
3339.442378	2.438462
3340.512388	2.007692
3341.579335	5.676224
3342.643220	8.381119
3343.709873	9.078322
3344.774921	9.530070
3345.838366	10.659441
3346.901665	8.886014
3347.964817	5.832168
3349.027823	4.010490
3350.090683	1.076923
3351.151941	2.583916
3352.210142	4.876923
3353.272563	6.373427
3354.331929	10.067133
3355.391149	11.043357
3356.451679	9.062238
3357.507699	11.390909
3358.566483	11.040559
3359.620760	10.093706
3360.677801	7.366434
3361.733243	5.079021
3362.789995	2.562937
3363.845148	2.777622
3364.898704	3.353846
3365.950664	3.292308
3367.005385	5.470629
3368.057057	8.055245
3369.108586	7.306294
3370.161423	9.162937
3371.211213	11.353846
3372.262312	12.330070
3373.310365	9.529371
3374.361177	7.554545
3375.408945	6.495804
3376.456570	4.334266
3377.504052	3.409091
3378.549942	2.537063
3379.597140	5.302797
3380.641296	9.224476
3381.688210	9.723077
3382.733532	10.816084
3383.775813	13.028671
3384.817954	11.445455
3385.861402	8.493007
3386.904709	8.545455
3387.946427	5.761538
3388.988003	2.860839
3390.029438	0.062238
3391.069285	0.796503
3392.107543	4.041958
3393.147109	8.478322
3394.186535	10.183916
3395.224373	10.227972
3396.260624	10.209790
3397.296736	6.979720
3398.334155	4.823077
3399.368541	3.769930
3400.404234	1.041958
3401.439788	1.130769
3402.472311	0.362937
3403.507587	0.973427
3404.539832	3.718881
3405.571939	5.274126
3406.602462	4.244755
3407.634292	3.940559
3408.665984	4.553846
3409.694648	4.817483
3410.723175	4.542657
3411.753008	5.493706
3412.782704	5.600699
3413.809374	6.339860
3414.837351	5.823077
3415.862303	4.730769
3416.890005	3.862937
3417.914684	1.730070
3418.940669	0.289510
3419.965074	1.234965
3420.989343	4.432867
3422.012033	5.385315
3423.034587	4.446853
3424.058447	5.583217
3425.079287	6.704895
3426.099991	7.798901
3427.122002	9.018756
3428.140994	10.364635
3429.159850	11.836713
3430.180013	13.435165
3431.197159	15.160165
