-118.059454	-3.722527
-115.389854	-2.493407
-112.723189	-1.421379
-110.057276	-0.468332
-107.394295	0.403846
-104.729885	1.233267
-102.068405	2.058042
-99.405496	5.002797
-96.747693	5.241259
-94.088461	7.088112
-91.429977	4.215385
-88.774417	2.380420
-86.117429	1.097203
-83.465539	3.194406
-80.812218	0.672727
-78.161818	2.216084
-75.509988	1.146853
-72.863249	1.487413
-70.215081	2.737063
-67.567655	6.259441
-64.923143	7.409091
-62.277203	7.584615
-59.636344	5.681119
-56.994056	5.648951
-54.354677	4.854545
-51.713868	3.185315
-49.073800	-0.053846
-46.438804	1.696503
-43.802380	1.334965
-41.168858	4.286713
-38.533908	6.049650
-35.904023	10.472028
-33.270546	12.453147
-30.642131	13.141958
-28.014450	15.435664
-25.385340	12.514685
-22.761287	-11.923077
-20.133645	-82.271329
-17.511056	-218.629371
-14.889199	-370.418881
-12.268072	141.164336
-9.647675	1165.210490
-7.030167	2026.552448
-4.411230	2635.924476
-1.795178	2988.137762
0.820145	3081.972727
3.434741	2921.041958
6.046454	2502.902797
8.659596	1842.446853
11.267704	995.510490
13.879394	110.261538
16.486053	-496.589510
19.094140	-351.127972
21.701503	-32.786014
24.303841	4.707692
26.909757	6.211189
29.510651	4.046154
32.112973	5.036364
34.710278	4.501399
37.311158	5.086014
39.907023	5.334266
42.504317	7.053846
45.100891	6.679021
47.692456	8.901399
50.285449	5.079021
52.875581	5.037063
55.467141	4.148252
58.055841	4.845455
60.645968	1.095105
63.231096	3.246154
65.817652	1.932867
68.403494	1.046154
70.986482	-0.458042
73.570896	-1.489510
76.148182	-1.455245
78.729034	0.404196
81.307037	-1.369930
83.884330	0.804895
86.463049	1.654545
89.036786	3.209790
91.611951	2.158741
94.184272	5.834266
96.755885	6.124476
99.324658	6.462937
101.894858	6.503497
104.462220	8.189510
107.031007	8.299301
109.596958	8.102098
112.160074	5.281818
114.726746	3.633566
117.284197	5.679021
119.847333	9.751049
122.405509	15.586713
124.967240	25.450350
127.524014	39.383916
130.082215	65.097902
132.635462	97.190909
135.188012	138.369930
137.744112	183.599301
140.295264	235.854545
142.845719	286.209790
145.395476	336.641259
147.942414	376.413986
150.488657	409.825874
153.036325	430.447552
155.583297	439.697203
158.125334	443.588112
160.666677	445.983916
163.207327	438.615385
165.749403	433.420979
168.288667	431.318881
170.825123	433.774825
173.360887	435.919580
175.898077	436.016084
178.434576	433.424476
180.968269	436.624476
183.499158	435.360140
186.029360	436.792308
188.560986	435.319580
191.089811	436.906294
193.615837	433.634266
196.141177	433.887413
198.667942	432.988112
201.191911	432.440559
203.715195	428.616783
206.237794	427.340559
208.757600	426.280420
211.276723	427.245455
213.795163	428.499301
216.315027	434.491608
218.827890	438.578322
221.344284	448.567133
223.859996	455.225874
226.370818	461.457343
228.883065	465.150350
231.392530	468.322378
233.901316	470.571329
236.409423	473.262937
238.918955	469.671329
241.423606	469.590210
243.927581	468.023776
246.432980	468.658042
248.933504	467.250350
251.437552	467.990210
253.934628	465.687413
256.435228	465.169930
258.933056	464.515385
261.430211	464.527273
263.926693	462.603497
266.418312	460.340559
268.913451	458.479021
271.405823	460.288112
273.897525	459.790210
276.386464	459.818881
278.876827	461.820979
281.364427	465.688811
283.849268	469.800000
286.337624	475.481119
288.819040	481.894406
291.303970	489.750350
293.784055	498.432867
296.267652	507.898601
298.746406	514.111888
301.226584	517.860839
303.704009	514.190210
306.180771	506.344056
308.656870	503.216783
311.130220	500.318182
313.602908	495.555944
316.074935	492.599301
318.546301	489.923077
321.014922	488.643357
323.482885	490.783916
325.952269	491.312587
328.416831	488.316783
330.884897	484.109091
333.348143	475.176224
335.810731	467.877622
338.272663	462.340559
340.733938	457.039161
343.192479	448.794406
345.652442	443.860839
348.109672	435.125175
350.566248	429.595804
353.022170	424.548951
355.475362	420.040559
357.929977	413.087413
360.379790	409.759441
362.833099	406.133566
365.281610	404.028671
367.729469	401.251049
370.178751	398.216084
372.623239	395.890210
375.069149	395.417483
377.514409	389.560839
379.956951	386.709790
382.398845	383.063636
384.840092	381.480420
387.278623	376.477622
389.718576	376.123077
392.155815	374.874825
394.590342	376.461538
397.028357	378.918182
399.461595	378.332867
401.896254	379.055245
404.326141	379.251748
406.759513	376.015385
409.188115	379.438462
411.616075	380.371329
414.045457	380.410490
416.470073	377.867832
418.896111	374.834965
421.321508	368.106993
423.746265	365.539860
426.166264	363.786014
428.587684	360.370629
431.006407	353.705594
433.426551	345.393007
435.844000	340.186014
438.262869	336.595105
440.679045	332.372028
443.090473	328.888811
445.505379	325.907692
447.917594	321.788112
450.329175	318.778322
452.740122	320.706993
455.148383	320.962937
457.556011	319.637063
459.963007	315.931469
462.369372	309.530070
464.773054	308.666434
467.176106	309.876224
469.578528	311.927273
471.980320	313.136364
474.379435	315.581818
476.779969	318.409091
479.179874	322.097902
481.575056	326.002098
483.973705	329.767133
486.367634	335.095105
488.760937	339.455944
491.153614	347.062937
493.545666	361.253147
495.939136	381.023077
498.327894	413.807692
500.713986	479.218881
503.101498	605.328671
505.488387	835.544755
507.872612	1169.714685
510.258255	1563.100699
512.641237	1957.621678
515.021558	2288.129371
517.403298	2505.892308
519.782379	2598.951748
522.162879	2548.201399
524.540721	2366.201399
526.915908	2088.248252
529.290477	1759.406294
531.666464	1448.130769
534.039799	1212.985315
536.414551	1055.664336
538.784618	952.330070
541.154069	880.358741
543.524938	819.988112
545.891127	763.885315
548.258734	722.002098
550.623695	683.195105
552.988043	648.993706
555.351778	616.548951
557.716931	588.970629
560.077412	566.571329
562.439311	548.994406
564.798569	535.362238
567.155190	522.732168
569.515255	512.244755
571.868629	504.083916
574.225448	493.649650
576.579632	488.046154
578.933208	481.952448
581.286175	472.947552
583.636510	461.258042
585.988263	452.204196
588.333339	441.859441
590.683879	433.081818
593.027745	422.165035
595.377073	415.053846
597.721752	405.671329
600.063807	401.510490
602.407279	394.983217
604.748128	397.383916
607.088375	403.465734
609.426001	412.683217
611.767062	420.420979
614.103485	433.009091
616.441325	439.690909
618.776548	443.388811
621.109155	441.447552
623.443178	437.441958
625.774587	423.816783
628.105398	414.201399
630.435612	398.218182
632.765227	387.639161
635.090220	378.381119
637.420653	374.346853
639.746466	373.467133
642.069671	374.535664
644.394293	366.191608
646.716309	365.391608
649.037731	363.519580
651.356551	362.356643
653.676786	359.741958
655.996428	362.610490
658.313469	359.679720
660.629918	360.918182
662.943769	360.604895
665.259036	362.715385
667.571706	363.811888
669.885791	361.875524
672.195276	355.534965
674.506177	356.767832
676.814485	355.383217
679.122205	358.208392
681.431339	356.654545
683.735881	357.558042
686.039837	349.941958
688.343207	347.506294
690.647991	339.471329
692.948189	335.214685
695.249801	327.293706
697.550829	323.809790
699.847274	315.520979
702.145135	315.058741
704.442412	312.585315
706.739106	313.254545
709.031224	309.355245
711.326753	308.851748
713.617708	304.033566
715.910078	307.000699
718.199873	304.899301
720.489087	307.343357
722.777722	311.138462
725.063784	316.267832
727.351261	316.780420
729.636166	320.792308
731.920494	320.061538
734.202253	318.019580
736.485426	314.013287
738.768022	309.711888
741.046062	300.282517
743.325517	298.960839
745.604395	292.215385
747.882699	294.216783
750.156453	297.851748
752.431620	297.358042
754.706214	294.172727
756.978249	295.000699
759.251697	297.205594
761.522587	296.500000
763.790921	295.258741
766.060668	292.336364
768.327861	289.458741
770.594483	290.024476
772.860535	289.776923
775.124036	291.543357
777.388950	292.818881
779.653294	292.265035
781.913109	291.534965
784.174336	293.756643
786.434996	292.822378
788.693110	292.131469
790.948679	289.907692
793.207639	287.818881
795.460100	287.709091
797.717927	286.454545
799.971236	288.545455
802.222005	290.142657
804.474186	294.860839
806.723828	297.715385
808.974883	303.244755
811.221426	305.448951
813.469381	304.143357
815.714802	303.079021
817.961634	299.204895
820.207905	295.021678
822.449671	292.531469
824.694821	290.487413
826.933498	286.289510
829.175557	282.060140
831.413118	278.448951
833.652091	279.915385
835.888537	281.182517
838.126394	282.465035
840.361726	280.881119
842.594535	282.288811
844.828755	283.313287
847.060452	285.169231
849.291595	287.688811
851.522183	291.068531
853.752217	288.137762
855.981697	290.161538
858.206695	291.309091
860.435068	296.106993
862.658961	295.233566
864.884266	298.927972
867.105095	296.220280
869.329296	296.058741
871.549024	292.410490
873.770162	294.488112
875.990750	297.228671
878.208829	300.121678
880.428317	296.613287
882.643339	300.509790
884.857814	301.262238
887.071740	303.543357
889.285120	300.961538
891.497952	303.304895
893.710238	301.876224
895.920021	299.106294
898.129259	296.387413
900.337952	297.355245
902.544146	296.234266
904.751749	296.395804
906.956854	294.545455
909.161416	295.758042
911.363483	297.172727
913.566959	299.606294
915.767941	306.454545
917.968381	317.296503
920.170230	329.348252
922.365688	341.196503
924.564505	355.602098
926.758883	375.635664
928.956619	397.631469
931.149919	423.282517
933.344628	449.651049
935.536851	471.502098
937.728535	495.620979
939.919682	515.456643
942.108346	528.662937
944.296474	538.579720
946.482121	550.563636
948.671120	553.407692
950.855696	552.737762
953.039737	551.662937
955.227128	548.379021
957.406215	545.400699
959.588653	544.706993
961.770557	545.393706
963.949986	543.604196
966.126943	538.698601
968.305308	539.136364
970.485080	546.444056
972.658503	550.273427
974.835272	547.367133
977.007634	546.328671
979.181404	539.141958
981.350770	530.067133
983.523480	515.432867
985.693725	496.341259
987.863441	477.434965
990.032628	451.544056
992.197418	424.526573
994.365549	399.776923
996.529286	378.112587
998.694429	356.637762
1000.857113	341.916084
1003.019272	335.017483
1005.178974	329.917483
1007.338151	331.891608
1009.498735	336.014685
1011.656865	341.797902
1013.814470	353.776224
1015.971552	362.513287
1018.128110	362.894406
1020.280289	353.847552
1022.433875	342.071329
1024.586939	329.446853
1026.737554	313.103497
1028.889576	307.272028
1031.037224	297.785315
1033.188204	288.926573
1035.334813	283.197203
1037.480903	275.947552
1039.626475	277.828671
1041.773452	275.969930
1043.914140	270.891608
1046.058158	267.618881
1048.199735	268.098601
1050.340796	275.374825
1052.483261	284.472727
1054.619447	293.095804
1056.758958	296.398601
1058.894115	294.904196
1061.032596	293.139161
1063.166723	288.406294
1065.300337	293.380420
1067.435356	285.338462
1069.566025	279.306294
1071.698099	275.387413
1073.827744	272.267133
1075.956877	274.337762
1078.085498	276.409790
1080.213608	271.120979
1082.339292	276.617483
1084.464466	273.930070
1086.591044	277.745455
1088.713284	280.809091
1090.836929	283.079720
1092.956239	274.897902
1095.080779	269.366434
1097.199073	262.479021
1099.318772	255.859441
1101.436052	250.675524
1103.552826	251.741259
1105.669093	250.133566
1107.782944	254.553846
1109.898200	248.776923
1112.009132	249.053846
1114.123377	247.732168
1116.233301	245.860839
1118.344629	248.953846
1120.455452	248.841958
1122.561959	252.634266
1124.671776	252.784615
1126.777278	252.953147
1128.884183	259.275524
1130.984873	258.434965
1133.090775	257.395105
1135.192368	253.236364
1137.295364	254.223776
1139.397859	256.286713
1141.494147	257.551748
1143.595643	258.969930
1145.692835	255.593706
1147.789530	257.869930
1149.885726	257.329371
1151.981425	255.247552
1154.076625	256.165035
1156.169429	257.739161
1158.263636	257.209790
1160.351651	255.937762
1162.444864	257.896503
1164.531889	258.189510
1166.622213	258.600699
1168.708250	257.686713
1170.797584	258.299301
1172.880737	260.448252
1174.965292	260.555944
1177.051249	261.997203
1179.132924	266.419580
1181.216001	269.634965
1183.296692	268.394406
1185.376891	267.372727
1187.456599	269.546154
1189.535816	266.438462
1191.612651	268.168531
1193.687105	263.790909
1195.764850	264.156643
1197.838326	262.122378
1199.913202	260.977622
1201.983811	264.781818
1204.055821	263.769231
1206.125456	263.376923
1208.196491	265.800699
1210.267038	272.041259
1212.333324	276.725874
1214.401011	278.174825
1216.466326	278.069231
1218.533041	270.772028
1220.595500	270.393706
1222.661244	266.331469
1224.722734	262.918182
1226.785625	259.153147
1228.846148	250.793007
1230.906187	246.877622
1232.965744	243.990909
1235.022935	244.280420
1237.079645	247.745455
1239.133991	249.471329
1241.191619	249.911189
1243.246884	254.257343
1245.297908	259.844056
1247.350332	262.632168
1249.402276	264.080420
1251.451862	267.592308
1253.500969	268.557343
1255.549598	269.667832
1257.597748	269.067832
1259.645419	275.295804
1261.688860	284.292308
1263.735577	284.813986
1265.779940	289.635664
1267.823827	292.602098
1269.865362	294.262238
1271.904548	292.558042
1273.947007	291.636364
1275.985243	292.387413
1278.024878	292.647552
1280.064038	291.171329
1282.098979	292.108392
1284.135319	293.988112
1286.169315	297.482517
1288.204708	292.546853
1290.235889	293.744755
1292.268467	288.881818
1294.300574	290.634266
1296.330340	291.081119
1298.361504	293.083217
1300.388460	292.367832
1302.416814	293.441958
1304.440963	288.492308
1306.468378	286.978322
1308.491590	283.083217
1310.516200	281.460140
1312.538476	275.813287
1314.562149	275.737762
1316.583489	275.400699
1318.604361	281.813287
1320.624766	284.410490
1322.640978	284.739860
1324.658587	281.520979
1326.673868	286.382517
1328.692408	284.996503
1330.706759	288.386713
1332.718784	288.286014
1334.734066	288.626573
1336.745163	291.298601
1338.757657	296.473427
1340.765968	300.309790
1342.777534	304.697902
1344.783062	301.941958
1346.791845	299.527273
1348.796450	299.393706
1350.804309	300.192308
1352.811706	295.895804
1354.813072	297.076923
1356.815834	292.520280
1358.818137	291.620979
1360.819980	290.863636
1362.821363	291.497902
1364.820433	292.460140
1366.819044	297.561538
1368.817197	293.265734
1370.814891	295.206993
1372.808423	297.239860
1374.803351	293.630769
1376.797821	291.323077
1378.791835	292.962937
1380.783542	288.019580
1382.774794	287.597203
1384.763740	283.144755
1386.754081	282.820280
1388.743967	282.688112
1390.731549	280.722378
1392.718678	276.547552
1394.703505	276.097902
1396.689727	273.355944
1398.673649	271.204895
1400.657118	269.908392
1402.640134	272.065035
1404.620853	271.825874
1406.602966	273.272727
1408.582783	275.069930
1410.562148	276.892308
1412.537375	277.190210
1414.515840	275.479720
1416.492012	273.752448
1418.467735	268.797203
1420.443008	265.927273
1422.415990	261.672727
1424.388524	254.167832
1426.360610	254.991608
1428.332249	253.959441
1430.299759	253.698601
1432.272343	256.534266
1434.237122	257.735664
1436.206972	261.068531
1438.172699	263.779021
1440.139818	261.570629
1442.104654	264.082517
1444.065370	264.585315
1446.031154	264.458741
1447.990983	263.457343
1449.952206	267.493007
1451.914821	267.795105
1453.873321	271.578322
1455.831378	272.152448
1457.788994	274.278322
1459.746167	274.647552
1461.701065	275.976224
1463.657356	273.955245
1465.611372	275.471329
1467.564947	272.346853
1469.516250	270.426573
1471.468946	268.586014
1473.419369	265.224476
1475.369354	266.890909
1477.318900	270.180420
1479.266177	266.761538
1481.211186	268.879720
1483.157588	267.039161
1485.103552	269.139860
1487.049079	269.632867
1488.992340	270.127273
1490.935166	268.444755
1492.875728	269.973427
1494.817681	274.297203
1496.757372	273.873427
1498.696629	278.125175
1500.635450	276.532168
1502.572012	271.035664
1504.509965	272.332867
1506.445659	269.113287
1508.380920	271.896503
1510.313925	271.358042
1512.246497	274.636364
1514.178637	276.027972
1516.110345	283.588112
1518.039799	284.545455
1519.970644	283.102098
1521.901057	280.781818
1523.827398	276.247552
1525.755130	274.034965
1527.680611	277.006294
1529.605663	274.016084
1531.530286	278.844755
1533.454480	278.081119
1535.376426	283.616084
1537.299763	286.698601
1539.220853	295.056643
1541.139700	300.414685
1543.059935	303.627972
1544.977928	304.088112
1546.895494	309.652448
1548.810818	312.290210
1550.727532	314.837063
1552.640191	313.137063
1554.556054	316.194406
1556.469677	319.195804
1558.381062	325.382517
1560.293837	333.914685
1562.202562	347.668531
1564.112676	361.925175
1566.022367	379.404196
1567.931635	404.812587
1569.838669	444.248252
1571.743470	488.312587
1573.649660	544.374825
1575.553618	600.087413
1577.457155	652.348252
1579.360272	692.548951
1581.261159	709.032867
1583.163435	704.759441
1585.063483	680.375524
1586.964918	632.623077
1588.862320	574.604196
1590.759303	515.637063
1592.655868	460.613287
1594.553821	414.204895
1596.445939	381.178322
1598.341250	358.330769
1600.236144	345.230070
1602.128816	337.854545
1604.021071	334.565035
1605.911107	331.735664
1607.800727	332.510490
1609.689932	327.088112
1611.578722	324.886713
1613.465294	320.849650
1615.353254	316.330070
1617.237197	312.580420
1619.122527	308.641259
1621.007444	307.476224
1622.890147	306.402797
1624.774237	306.871329
1626.654315	305.374825
1628.535781	298.297902
1630.415036	292.844755
1632.295677	284.752448
1634.170514	278.667133
1636.050332	268.764336
1637.926146	266.911888
1639.801549	269.384615
1641.678338	270.223776
1643.549331	270.165734
1645.423505	273.466434
1647.293680	273.179720
1649.167037	273.020979
1651.038190	270.311888
1652.907141	266.920280
1654.777477	264.677622
1656.643821	264.243357
1658.511550	261.352448
1660.377080	263.958042
1662.243996	266.614685
1664.106923	267.130070
1665.971235	262.167133
1667.833351	261.572727
1669.695062	261.356643
1671.558159	263.218182
1673.419060	261.289510
1675.277769	258.286713
1677.136074	252.458042
1678.995764	245.942657
1680.849686	245.972028
1682.706782	246.673427
1684.563475	243.182517
1686.416191	243.217483
1688.272079	237.862238
1690.123993	237.740559
1691.975506	237.344755
1693.826618	238.551748
1695.677330	235.070629
1697.527641	229.716084
1699.375767	224.425175
1701.225278	221.210490
1703.069040	223.425874
1704.917751	224.039161
1706.760716	215.539161
1708.606848	215.464336
1710.449017	216.005594
1712.294352	212.116783
1714.133946	209.837063
1715.974924	211.278322
1717.817285	212.038462
1719.655690	214.439161
1721.495478	220.460140
1723.333091	227.627972
1725.170308	228.715385
1727.005352	228.883217
1728.841779	222.158042
1730.676034	227.377622
1732.509894	228.911888
1734.343360	227.839161
1736.172881	223.537063
1738.005560	222.018881
1739.834295	218.403497
1741.666187	222.980420
1743.494137	221.800699
1745.321696	222.622378
1747.148862	216.851748
1748.975637	216.462238
1750.802020	214.605594
1752.624467	218.046154
1754.450069	220.376923
1756.271736	221.900699
1758.094785	215.209790
1759.915672	216.846853
1761.736171	215.696503
1763.558051	224.627273
1765.374231	218.362937
1767.193563	218.858042
1769.008968	217.013986
1770.827523	216.185315
1772.642153	216.660839
1774.456396	216.096503
1776.270253	216.075524
1778.083723	212.220280
1779.895040	217.105594
1781.707737	223.860140
1783.520049	230.718881
1785.328443	240.381119
1787.138217	238.678322
1788.944077	242.079720
1790.753082	238.239161
1792.558174	232.516084
1794.364647	233.450350
1796.170736	226.732867
1797.972914	217.262937
1799.778237	212.946853
1801.579651	212.318881
1803.382445	209.743357
1805.181333	209.374825
1806.981602	214.154545
1808.781489	208.700000
1810.579234	206.230769
1812.376599	201.048951
1814.173584	205.813986
1815.970188	214.458042
1817.764653	213.690909
1819.560497	217.189510
1821.350686	225.169231
1823.145772	229.452448
1824.935206	231.977622
1826.727776	232.868531
1828.518211	234.426573
1830.306512	228.086014
1832.097948	224.458741
1833.883738	224.848951
1835.670908	232.011189
1837.455946	228.482517
1839.244118	225.123077
1841.028404	227.096503
1842.810560	229.515385
1844.594096	227.279720
1846.375503	225.322378
1848.158289	227.600000
1849.937194	230.601399
1851.717479	231.113986
1853.495637	228.147552
1855.275174	232.820280
1857.052586	231.593007
1858.827874	227.044056
1860.604540	223.727972
1862.379084	220.052448
1864.155006	219.397902
1865.925307	216.076923
1867.698736	217.445455
1869.470045	219.146154
1871.240983	223.383217
1873.013299	225.959441
1874.780001	228.877622
1876.549829	232.910490
1878.315793	232.432168
1880.084880	231.170629
1881.850106	230.144755
1883.614964	228.506294
1885.381199	228.277622
1887.143575	227.002098
1888.905584	223.615385
1890.667225	220.497902
1892.428500	221.336364
1894.189407	222.167133
1895.949948	220.460839
1897.708379	215.493706
1899.466444	214.411189
1901.222402	209.687413
1902.979736	207.251748
1904.736705	202.711189
1906.491567	204.793007
1908.244325	205.009790
1909.996718	206.172028
1911.750488	204.757343
1913.502154	206.699301
1915.251718	208.482517
1917.002657	208.297902
1918.753234	206.017483
1920.499971	205.583916
1922.248085	201.879720
1923.994099	202.590909
1925.741488	203.131469
1927.486780	206.822378
1929.229974	209.095804
1930.974543	212.524476
1932.717017	211.904196
1934.459130	210.390909
1936.200883	208.936713
1937.942276	206.413287
1939.681576	204.063287
1941.420517	204.586014
1943.159099	207.129720
1944.895590	212.213287
1946.631723	214.457692
1948.369230	212.512587
1950.102915	212.374476
1951.837975	208.033566
1953.570946	204.987762
1955.303561	203.884615
1957.035820	198.924126
1958.767722	197.676224
1960.497538	200.068531
1962.225269	199.309091
1963.954375	199.446853
1965.683126	201.998601
1967.409793	201.229371
1969.136106	200.675524
1970.863792	203.023077
1972.585942	200.805594
1974.311193	204.235664
1976.032637	207.489510
1977.757182	205.155944
1979.479646	209.100000
1981.198308	208.186014
1982.920068	201.718182
1984.638026	198.502098
1986.357357	199.262937
1988.072889	198.323077
1989.793241	205.012587
1991.509795	205.258042
1993.222552	206.682517
1994.938405	207.839860
1996.652186	210.962937
1998.365617	211.747552
2000.076977	214.003497
2001.789709	211.146853
2003.498651	213.514685
2005.210685	214.439161
2006.917211	213.506993
2008.626828	214.726573
2010.334379	213.282517
2012.041581	212.487413
2013.746718	210.175524
2015.451509	206.807692
2017.157671	206.423776
2018.860051	203.559441
2020.563802	202.211189
2022.265491	202.042657
2023.966835	209.152448
2025.667833	211.253846
2027.366770	210.667133
2029.067079	210.204895
2030.763613	209.615385
2032.461518	212.831469
2034.157364	210.833566
2035.856296	209.358741
2037.549742	208.840559
2039.244559	205.954545
2040.939034	202.330769
2042.629740	200.161538
2044.323530	201.837063
2046.013553	198.209091
2047.704947	191.855944
2049.394288	191.562238
2051.084999	189.090909
2052.771947	187.237063
2054.458556	187.090210
2056.146534	183.844056
2057.830753	185.683217
2059.516343	185.200699
2061.201593	185.402797
2062.884794	183.853846
2064.569366	187.753147
2066.248475	188.481818
2067.932369	192.365734
2069.610802	194.679021
2071.292313	193.360140
2072.970072	192.527972
2074.647495	196.132168
2076.326287	193.981119
2078.003037	198.165035
2079.677745	194.452448
2081.353822	192.274126
2083.027859	189.829371
2084.701560	190.108392
2086.374926	193.631469
2088.046253	197.795105
2089.717246	195.614685
2091.387905	199.185315
2093.058230	198.602098
2094.728221	200.805594
2096.396176	199.679720
2098.063798	200.809091
2099.729385	197.167832
2101.396341	195.209790
2103.061264	196.804895
2104.725855	194.092308
2106.388414	196.320280
2108.052341	196.464336
2109.714237	194.970629
2111.375803	195.791608
2113.037037	192.149650
2114.696243	187.753147
2116.355118	185.748252
2118.013664	182.821678
2119.671880	180.524476
2121.326372	179.772028
2122.983929	179.578322
2124.641157	178.658042
2126.294663	180.451748
2127.949537	186.400000
2129.600692	191.460140
2131.254910	195.550350
2132.905411	197.179720
2134.557278	197.700699
2136.203737	200.496503
2137.854951	198.586014
2139.502451	196.039161
2141.151318	194.620979
2142.798166	191.696503
2144.444689	193.494406
2146.090886	193.813986
2147.733375	198.591608
2149.378922	199.756643
2151.020762	202.502797
2152.665659	207.311888
2154.306850	208.035664
2155.947719	205.841259
2157.588263	203.051748
2159.226795	198.011189
2160.866693	195.479021
2162.502891	192.731469
2164.140455	195.188112
2165.777697	194.747552
2167.412929	198.183916
2169.047840	199.571329
2170.682428	205.271329
2172.316696	212.213287
2173.947270	210.439860
2175.580896	204.075524
2177.210830	201.307692
2178.842129	195.227972
2180.471423	190.248252
2182.100398	188.560839
2183.729053	191.089510
2185.357389	187.786713
2186.983723	188.999301
2188.609738	187.675524
2190.233751	191.350350
2191.859130	193.124476
2193.482508	190.079720
2195.107251	185.513986
2196.728313	185.678322
2198.349058	183.114685
2199.971168	180.929371
2201.591280	178.921678
2203.209395	180.386713
2204.827195	180.213986
2206.444680	184.175524
2208.061849	185.572028
2209.678703	191.977622
2211.295241	189.826573
2212.909787	189.011888
2214.522340	188.516783
2216.136257	190.249650
2217.748183	187.482517
2219.361472	189.731469
2220.972771	183.611189
2222.582080	184.544755
2224.192753	182.921678
2225.801437	189.437762
2227.409808	190.831469
2229.016193	194.299301
2230.623941	195.467133
2232.229702	194.054545
2233.835152	194.324476
2235.438617	195.359441
2237.043445	194.079720
2238.646289	195.569930
2240.247150	189.035664
2241.849374	184.762937
2243.449616	178.546154
2245.051220	178.899301
2246.649171	178.673427
2248.248485	182.933566
2249.845819	191.712587
2251.442845	197.055245
2253.041233	202.169930
2254.635972	206.451049
2256.228734	207.579720
2257.822859	209.155944
2259.418345	205.541259
2261.010186	203.555245
2262.601721	193.188811
2264.194618	186.727273
2265.782205	185.517483
2267.374488	182.590909
2268.961465	179.516084
2270.551469	181.113287
2272.136169	181.737063
2273.725563	182.344755
2275.309655	185.943357
2276.895107	186.365734
2278.478591	187.482517
2280.065100	190.127972
2281.647976	190.664336
2283.230549	192.866084
2284.812818	192.434266
2286.391457	184.224126
2287.973121	175.874126
2289.551156	176.656294
2291.132214	175.665734
2292.709645	174.777972
2294.285113	176.911189
2295.863603	171.315734
2297.438469	167.295804
2299.013034	171.052098
2300.587299	175.679720
2302.161263	177.936713
2303.734926	177.960839
2305.308290	174.300699
2306.878035	174.518182
2308.447481	175.666434
2310.019945	174.859441
2311.587135	177.291608
2313.157343	177.374126
2314.723936	175.345455
2316.291889	173.539161
2317.857886	175.924476
2319.423586	177.236364
2320.988988	182.935664
2322.552437	187.195804
2324.117245	185.740559
2325.678445	184.411189
2327.242659	181.075524
2328.801611	173.340559
2330.363578	168.611888
2331.923593	163.602098
2333.483314	160.814685
2335.041085	161.817483
2336.598561	160.748252
2338.155743	164.023776
2339.710977	166.141259
2341.265918	168.068531
2342.820564	167.063636
2344.374917	166.820280
2345.928977	166.346853
2347.482742	158.239161
2349.034564	160.438462
2350.584442	161.809790
2352.137328	165.834266
2353.684972	168.271329
2355.235623	169.143357
2356.782683	169.448951
2358.331101	170.041259
2359.879228	176.914685
2361.423766	180.262937
2362.969662	179.832168
2364.513620	179.302797
2366.058935	174.839860
2367.600665	176.864336
2369.143752	170.746853
2370.684903	169.933566
2372.225765	164.978322
2373.766338	163.880420
2375.306622	159.896503
2376.846617	160.058042
2378.383034	161.596503
2379.922452	160.620979
2381.458293	156.357343
2382.995490	159.019580
2384.529112	159.507692
2386.065734	162.252448
2387.600426	165.343357
2389.133188	169.783916
2390.665663	177.918182
2392.196210	181.306993
2393.729755	181.841259
2395.258089	187.162238
2396.787780	184.330769
2398.317184	180.126573
2399.846304	175.453846
2401.375139	175.867133
2402.898768	169.462238
2404.427033	169.141259
2405.950096	163.051049
2407.477792	162.932168
2408.998649	167.465035
2410.524139	160.327273
2412.046068	156.963636
2413.569353	159.195804
2415.090716	159.724476
2416.610160	160.672028
2418.130959	164.662937
2419.649840	167.090909
2421.168438	168.852448
2422.685119	173.379720
2424.203154	171.630769
2425.720908	171.696503
2427.235111	165.103497
2428.749033	162.038462
2430.262675	160.850350
2431.777672	165.025175
2433.289120	170.909790
2434.801923	176.083217
2436.312812	180.827972
2437.823423	186.058042
2439.332122	190.235664
2440.843807	194.279720
2442.351949	191.351748
2443.859813	190.477622
2445.367399	194.167133
2446.871444	199.990909
2448.378474	206.402797
2449.883597	214.418881
2451.388441	214.065734
2452.891379	217.142657
2454.394041	218.544056
2455.896426	219.967133
2457.396906	218.499301
2458.898739	214.134965
2460.398667	202.669231
2461.898320	200.056643
2463.397698	191.116084
2464.895173	185.934266
2466.390746	185.450350
2467.889299	182.614685
2469.384324	176.037762
2470.880701	177.727273
2472.373552	179.146853
2473.867756	183.524476
2475.361686	180.541259
2476.852092	182.605594
2478.345476	179.480420
2479.836962	179.562238
2481.326551	172.645455
2482.815868	174.295105
2484.303289	169.385315
2485.793686	165.471329
2487.280565	163.670629
2488.768795	166.025874
2490.253508	164.805594
2491.737952	166.354545
2493.223746	163.779021
2494.707649	168.941958
2496.192902	167.555944
2497.673022	169.588112
2499.156115	170.199301
2500.637317	171.056643
2502.118250	163.406993
2503.597294	165.495105
2505.076069	165.986713
2506.554576	166.584615
2508.032815	167.658741
2509.510785	169.151049
2510.985250	167.971329
2512.462685	169.605594
2513.936616	165.658042
2515.411897	164.877622
2516.886911	162.581119
2518.358425	160.922378
2519.831288	154.562937
2521.302269	158.552448
2522.774600	152.453147
2524.241817	150.962238
2525.712001	151.883217
2527.180304	151.905594
2528.648342	154.952448
2530.116115	156.130769
2531.583623	152.351049
2533.050866	153.987413
2534.514617	155.058042
2535.979718	156.599301
2537.442942	155.260140
2538.907516	160.125874
2540.368600	159.525874
2541.831034	159.200699
2543.293205	156.560140
2544.751890	160.517483
2546.215147	159.860839
2547.673307	154.205594
2549.132816	151.413287
2550.587231	155.502098
2552.046217	154.062937
2553.503331	157.010490
2554.958574	160.555944
2556.413555	170.725175
2557.866668	180.112587
2559.321129	180.606294
2560.773720	183.380420
2562.226052	186.258741
2563.676517	177.922378
2565.129937	173.159441
2566.578275	167.984615
2568.029569	166.969930
2569.478996	160.809790
2570.924951	161.814685
2572.373861	163.463636
2573.819301	168.297203
2575.266088	173.527972
2576.711013	174.426573
2578.155679	175.423776
2579.601693	176.755944
2581.044241	174.802098
2582.488136	169.488811
2583.928566	164.123077
2585.370343	160.346853
2586.810261	159.432867
2588.251526	160.100000
2589.689329	163.695105
2591.130082	165.696503
2592.565773	168.908392
2594.004413	170.168531
2595.441195	167.155245
2596.876122	167.416783
2598.313996	162.945455
2599.746813	157.065734
2601.180977	157.448951
2602.613287	158.322378
2604.046943	157.018182
2605.478746	160.386713
2606.910295	164.932867
2608.341592	172.106993
2609.771036	174.680420
2611.200228	179.352448
2612.627570	178.246853
2614.056257	174.613287
2615.484693	172.967133
2616.909681	174.975524
2618.336016	175.458741
2619.760502	178.137762
2621.186334	177.268531
2622.608722	180.548951
2624.032456	181.885315
2625.454343	182.625874
2626.875981	185.020979
2628.295773	187.958741
2629.716911	185.750350
2631.137799	184.434965
2632.555249	185.945455
2633.975638	187.091608
2635.392590	190.474126
2636.809293	199.926573
2638.225748	208.334965
2639.641955	213.828671
2641.057914	216.744056
2642.472032	216.904895
2643.885902	226.163636
2645.297934	230.595804
2646.711309	233.564336
2648.121255	238.848951
2649.534137	242.839860
2650.943590	249.338462
2652.352797	261.947552
2653.760168	278.297203
2655.170473	294.856643
2656.578943	312.320979
2657.985577	329.116783
2659.391966	346.255245
2660.796521	361.465734
2662.202420	377.895105
2663.606486	401.845455
2665.010307	431.493706
2666.413884	458.197203
2667.815630	496.831469
2669.218719	534.760839
2670.618390	574.185315
2672.019405	616.785315
2673.417004	667.698601
2674.817533	715.130769
2676.214646	754.229371
2677.613103	792.988112
2679.009733	831.366434
2680.406120	865.923776
2681.802265	891.252448
2683.196585	909.722378
2684.592246	921.008392
2685.984499	911.567133
2687.378094	890.811189
2688.769865	869.131469
2690.162979	839.500699
2691.554269	798.776923
2692.943736	757.044056
2694.332963	714.030769
2695.721951	668.813986
2697.112280	624.587413
2698.497626	580.476923
2699.885895	542.429371
2701.272344	508.588112
2702.658554	474.254545
2704.044525	438.238462
2705.427098	411.510490
2706.811013	384.593706
2708.194690	364.783217
2709.578128	349.631469
2710.958172	333.283217
2712.339556	319.646154
2713.719126	304.967133
2715.100036	288.995105
2716.479132	275.723077
2717.856414	271.399301
2719.235037	263.355245
2720.611847	248.888811
2721.988420	241.709790
2723.364758	233.372727
2724.739285	226.695105
2726.115152	219.011888
2727.487632	211.540559
2728.863028	200.833566
2730.233464	192.193007
2731.605241	185.389510
2732.976783	184.808392
2734.346517	188.540559
2735.717592	191.367133
2737.086858	189.326573
2738.455891	186.333566
2739.823118	181.713986
2741.190112	176.569231
2742.556872	174.779021
2743.923401	169.566434
2745.288124	166.155245
2746.652615	159.135664
2748.016875	154.418182
2749.380902	154.237063
2750.744698	154.098601
2752.105120	154.549650
2753.468452	154.845455
2754.826842	151.560140
2756.188142	152.998601
2757.546072	153.348252
2758.906910	154.881119
2760.265949	155.929371
2761.621619	157.711888
2762.980197	152.213986
2764.335408	150.286014
2765.690390	150.390210
2767.043576	150.576923
2768.399668	147.751049
2769.752395	148.829371
2771.104895	142.262238
2772.457166	140.969930
2773.810776	136.079021
2775.161024	135.169231
2776.509478	137.254545
2777.860838	138.465734
2779.208838	141.270629
2780.558176	143.497203
2781.905722	145.251748
2783.253042	145.155245
2784.600135	142.707692
2785.945437	145.253147
2787.290512	142.112587
2788.635362	143.632867
2789.979986	143.086014
2791.321258	143.002797
2792.663868	139.144056
2794.006252	139.292308
2795.348411	137.979021
2796.687221	134.416084
2798.028931	134.992308
2799.367293	139.411189
2800.706991	139.972028
2802.044905	141.253846
2803.381034	143.246853
2804.716939	144.867832
2806.054182	146.520979
2807.389641	145.269231
2808.724877	140.287413
2810.058330	139.990909
2811.393120	139.500699
2812.724570	140.642657
2814.058915	139.386713
2815.388362	142.773427
2816.719146	138.448252
2818.049708	137.927972
2819.378491	137.505594
2820.708610	137.774126
2822.036951	135.058042
2823.365071	132.174126
2824.691413	131.525874
2826.019092	136.635664
2827.343437	138.452448
2828.669119	140.331469
2829.993025	131.112587
2831.316712	135.420979
2832.641734	131.509790
2833.963426	134.993706
2835.284900	131.788811
2836.606155	132.267133
2837.927191	131.293706
2839.246454	131.857343
2840.567053	135.106993
2841.885881	138.029371
2843.204490	135.655944
2844.521328	132.646154
2845.837949	127.639161
2847.154353	134.928671
2848.468987	131.375524
2849.784957	136.281119
2851.097606	137.658741
2852.411590	140.995804
2853.725358	140.046853
2855.038909	136.630769
2856.350694	136.213986
2857.660712	139.467133
2858.972065	134.022378
2860.280103	130.781119
2861.589475	136.111189
2862.898633	132.041958
2864.207575	129.601399
2865.514753	128.870629
2866.820169	129.190909
2868.126919	127.951049
2869.431906	122.969930
2870.736680	122.367832
2872.039692	122.090909
2873.345585	120.817483
2874.646624	117.453147
2875.948997	114.914685
2877.249610	117.519580
2878.551557	116.699301
2879.853290	116.763636
2881.151720	116.877622
2882.451483	122.943357
2883.749489	122.710490
2885.047283	121.304895
2886.343321	126.032867
2887.640692	120.285315
2888.936307	117.842657
2890.231711	113.228671
2891.526904	108.379021
2892.818800	107.974126
2894.113572	111.193007
2895.405047	104.084615
2896.697855	107.272727
2897.990453	111.039161
2899.279757	111.174126
2900.570393	109.127273
2901.859278	107.500699
2903.149495	102.078322
2904.436421	101.457343
2905.724679	101.549650
2907.011188	104.662937
2908.297489	107.316084
2909.583581	112.885315
2910.867925	114.452448
2912.155140	122.120280
2913.437529	125.713986
2914.721250	126.455944
2916.003225	119.611189
2917.284992	120.355944
2918.565015	117.160839
2919.847907	114.311888
2921.129054	113.478322
2922.406919	117.076224
2923.687653	114.946154
2924.965106	116.407692
2926.242353	114.560839
2927.517858	111.958042
2928.796231	108.581818
2930.069790	109.050350
2931.346216	111.203497
2932.620901	117.004196
2933.893845	110.250350
2935.168121	107.111888
2936.440657	105.420979
2937.712988	110.469930
2938.982047	110.274825
2940.253971	113.682517
2941.524157	114.832867
2942.794139	116.480420
2944.063918	117.759441
2945.331961	120.661538
2946.598267	122.125874
2947.864372	122.661538
2949.131806	117.701399
2950.397506	112.979720
2951.663003	111.856643
2952.928298	114.997902
2954.190328	117.302797
2955.453688	121.434266
2956.716847	126.344755
2957.978274	123.820979
2959.241030	124.348951
2960.502054	124.485315
2961.761348	123.913287
2963.020442	122.218881
2964.279335	115.516084
2965.538028	110.857343
2966.796521	110.989510
2968.053285	110.179021
2969.309849	106.846853
2970.564686	111.306294
2971.820851	112.823776
2973.073762	113.421678
2974.328002	120.912587
2975.582043	121.911888
2976.834358	121.918182
2978.086474	118.568531
2979.336866	114.488811
2980.590113	117.556643
2981.838583	116.169231
2983.089908	114.323077
2984.337983	106.012587
2985.585862	108.832867
2986.833543	109.267133
2988.081027	107.630070
2989.326790	107.967832
2990.572357	103.123077
2991.819251	102.521678
2993.062901	99.948252
2994.307879	102.197203
2995.549613	108.839161
2996.794199	109.679021
2998.037066	111.474825
2999.276692	107.689510
3000.519168	111.488112
3001.758404	116.768531
3002.998968	119.619580
3004.237816	120.710490
3005.476468	119.626573
3006.713406	115.774126
3007.951670	114.614685
3009.188219	111.231469
3010.424575	107.571329
3011.660737	103.643357
3012.895185	102.705594
3014.129441	98.479720
3015.363503	100.162937
3016.595853	107.104196
3017.826491	110.758042
3019.059975	114.923776
3020.291747	117.700699
3021.521809	116.881119
3022.751679	116.746853
3023.979839	105.732168
3025.209325	101.316783
3026.437102	100.868531
3027.664688	103.526573
3028.893601	98.366434
3030.117771	103.088112
3031.344784	105.039161
3032.568573	109.519580
3033.793689	117.069231
3035.017098	121.383916
3036.240317	121.595105
3037.461831	114.188811
3038.686186	108.039860
3039.905806	109.658741
3041.126752	106.946154
3042.347509	111.067832
3043.566562	103.227972
3044.786940	102.142657
3046.004102	98.875524
3047.222590	99.388112
3048.439375	103.986014
3049.655973	106.357343
3050.872382	101.393706
3052.085579	104.905594
3053.301613	107.376224
3054.514435	110.791608
3055.730094	104.739161
3056.941030	107.258741
3058.153291	99.530769
3059.365366	97.912587
3060.577253	96.824476
3061.787444	98.852448
3062.997448	101.084615
3064.207266	98.203497
3065.415388	95.824476
3066.623325	96.883217
3067.829566	90.572028
3069.037132	89.029371
3070.243003	81.416084
3071.448690	83.049650
3072.654191	82.113287
3073.857999	83.357343
3075.063131	86.693007
3076.266570	90.223077
3077.468318	90.659441
3078.669881	92.136364
3079.871261	91.586713
3081.072457	89.000699
3082.271963	90.816783
3083.471286	91.220979
3084.671932	91.364336
3085.870888	94.314685
3087.066650	94.666434
3088.265241	90.889510
3089.460638	89.904196
3090.657358	91.088112
3091.850886	91.409091
3093.047242	91.834266
3094.241912	88.931469
3095.433391	86.462937
3096.629201	83.856643
3097.820318	79.062937
3099.012757	79.964336
3100.202009	83.179720
3101.394086	83.688811
3102.584480	85.068531
3103.771688	88.361538
3104.960219	95.459441
3106.150071	97.360839
3107.336740	94.711189
3108.523228	94.133566
3109.709538	93.000699
3110.897169	89.569231
3112.081618	89.289510
3113.264388	88.427273
3114.449980	90.481818
3115.633893	89.944755
3116.816127	91.237063
3117.998182	88.523776
3119.180059	90.348252
3120.361758	87.530070
3121.541780	85.611888
3122.720125	86.969231
3123.901290	86.532867
3125.079280	86.965734
3126.257094	89.671329
3127.434730	88.420280
3128.610691	87.137762
3129.786475	87.370629
3130.963581	86.349650
3132.139012	84.579021
3133.312770	84.820979
3134.484855	82.093706
3135.658262	80.876224
3136.831492	80.182517
3138.003051	78.161538
3139.175930	73.760839
3140.345642	70.941958
3141.516675	70.258042
3142.686038	72.314685
3143.853730	79.180420
3145.024238	81.667832
3146.190088	80.785315
3147.360246	84.419580
3148.525748	84.868531
3149.691075	82.647552
3150.856229	83.412587
3152.021210	79.288112
3153.187510	71.206294
3154.349158	73.187413
3155.512125	77.696503
3156.674920	82.867832
3157.837542	86.955944
3158.998499	85.141259
3160.159283	83.303497
3161.319895	85.764336
3162.478843	86.481818
3163.637620	87.809091
3164.796225	89.754545
3165.954657	92.088112
3167.112919	93.004196
3168.269518	98.306294
3169.424456	100.765734
3170.580713	103.032168
3171.735309	99.845455
3172.889735	94.367832
3174.042501	88.859441
3175.195096	86.200699
3176.347522	84.106294
3177.499778	82.619580
3178.651863	78.244056
3179.800803	82.439161
3180.952549	85.558042
3182.102637	88.439161
3183.251069	91.480420
3184.399331	96.138462
3185.547425	99.590909
3186.695350	101.545455
3187.841619	102.589510
3188.987720	102.038462
3190.132167	98.626573
3191.276446	96.769930
3192.420557	92.347552
3193.565985	95.667832
3194.708275	93.830070
3195.850398	94.193007
3196.992353	94.606294
3198.134141	95.007692
3199.275762	94.097203
3200.414248	93.805594
3201.554051	90.651748
3202.695172	87.569930
3203.833158	86.773427
3204.969495	84.779021
3206.105666	85.994406
3207.243154	85.383916
3208.378994	82.081818
3209.516151	85.513287
3210.648695	84.967133
3211.785521	85.673427
3212.917735	86.109790
3214.051266	89.016783
3215.184633	84.439161
3216.314872	86.728671
3217.447909	85.065734
3218.577820	85.730769
3219.709047	86.840559
3220.837150	84.284615
3221.968049	85.934266
3223.097304	86.774825
3224.224916	87.109790
3225.349405	90.079021
3226.478170	93.600699
3227.603813	91.095105
3228.729294	90.629371
3229.853133	97.732867
3230.979766	97.762937
3232.101802	103.546154
3233.225154	102.473427
3234.348344	105.976224
3235.471372	109.541259
3236.592760	108.506294
3237.713986	108.501399
3238.833575	105.004895
3239.953002	103.241259
3241.070791	100.070629
3242.191372	101.381818
3243.308840	102.667832
3244.426147	103.885315
3245.543294	103.185315
3246.658805	98.880420
3247.775630	101.699301
3248.889346	100.903497
3250.005851	101.586713
3251.120722	98.562937
3252.232484	94.776923
3253.344086	91.466434
3254.457004	89.505594
3255.569762	81.992308
3256.679414	78.102797
3257.790381	76.417483
3258.901189	68.595105
3260.010365	65.720979
3261.117911	64.469231
3262.226770	60.965734
3263.335472	65.788112
3264.441071	65.025874
3265.547984	68.970629
3266.653268	69.845455
3267.759866	69.401399
3268.863364	69.225874
3269.968177	72.690210
3271.072832	75.304895
3272.174388	75.194406
3273.275788	71.936364
3274.378502	72.976224
3275.481060	73.293007
3276.580521	75.765734
3277.682766	72.220979
3278.781915	72.745455
3279.879440	67.351049
3280.976809	65.977622
3282.076960	63.314685
3283.174019	64.791608
3284.270922	65.297902
3285.367670	63.064336
3286.459860	56.534266
3287.556298	62.151049
3288.651114	63.969231
3289.745776	65.803497
3290.838816	65.948252
3291.931701	69.376923
3293.022967	71.466434
3294.115544	74.369231
3295.206502	74.356643
3296.295840	75.620280
3297.385025	72.723077
3298.475523	68.057343
3299.562936	63.260839
3300.650196	62.888112
3301.738769	62.253147
3302.827190	63.400699
3303.911063	62.957343
3304.999178	68.037762
3306.084211	69.261538
3307.167629	69.330070
3308.252359	72.130070
3309.335473	72.377622
3310.419900	72.006993
3311.501248	73.721678
3312.583908	76.801399
3313.664954	75.824476
3314.745849	74.079720
3315.825130	73.463636
3316.904261	70.187413
3317.984704	71.330070
3319.062072	64.727972
3320.140752	58.993007
3321.217820	57.641958
3322.294739	57.689510
3323.370046	55.858741
3324.445204	60.169231
3325.521673	62.113287
3326.595072	60.281119
3327.668322	56.825874
3328.742882	54.848951
3329.815834	55.564336
3330.887177	56.597902
3331.959831	57.243357
3333.029419	58.453147
3334.100317	62.601399
3335.169608	63.169231
3336.240210	66.862937
3337.309205	73.486014
3338.376594	76.345455
3339.442378	78.800699
3340.512388	78.406294
3341.579335	75.083916
3342.643220	74.934266
3343.709873	69.759441
3344.774921	69.665734
3345.838366	64.221678
3346.901665	59.699301
3347.964817	56.406993
3349.027823	55.675524
3350.090683	54.457343
3351.151941	55.642657
3352.210142	59.878322
3353.272563	63.659441
3354.331929	65.303497
3355.391149	64.956643
3356.451679	63.918182
3357.507699	65.237063
3358.566483	59.851748
3359.620760	59.615385
3360.677801	57.448252
3361.733243	53.746853
3362.789995	55.701399
3363.845148	55.413986
3364.898704	55.651748
3365.950664	61.936364
3367.005385	64.976923
3368.057057	66.647552
3369.108586	68.804895
3370.161423	67.285315
3371.211213	66.309091
3372.262312	65.383916
3373.310365	62.697902
3374.361177	62.551748
3375.408945	65.718881
3376.456570	61.221678
3377.504052	60.397902
3378.549942	58.388811
3379.597140	56.450350
3380.641296	56.680420
3381.688210	54.246154
3382.733532	48.630070
3383.775813	50.683916
3384.817954	47.379021
3385.861402	50.680420
3386.904709	54.409091
3387.946427	60.187413
3388.988003	66.193007
3390.029438	71.311189
3391.069285	71.569231
3392.107543	74.737063
3393.147109	73.660839
3394.186535	69.626573
3395.224373	65.092308
3396.260624	65.467133
3397.296736	58.698601
3398.334155	58.242657
3399.368541	57.509790
3400.404234	57.062937
3401.439788	61.453147
3402.472311	64.530769
3403.507587	62.412587
3404.539832	62.664336
3405.571939	62.025874
3406.602462	63.785315
3407.634292	61.058741
3408.665984	62.843357
3409.694648	60.880420
3410.723175	60.527273
3411.753008	63.153147
3412.782704	64.629371
3413.809374	65.388811
3414.837351	69.573427
3415.862303	70.528671
3416.890005	75.190210
3417.914684	76.923077
3418.940669	77.906993
3419.965074	73.351748
3420.989343	76.534965
3422.012033	70.730769
3423.034587	65.939161
3424.058447	64.624476
3425.079287	65.427972
3426.099991	64.433666
3427.122002	63.338387
3428.140994	61.997902
3429.159850	60.267982
3430.180013	58.004396
3431.197159	55.062912
