-118.059454	-7.265385
-115.389854	-3.416484
-112.723189	-1.067632
-110.057276	0.089910
-107.394295	0.364885
-104.729885	0.066034
-102.068405	-0.497902
-99.405496	0.218881
-96.747693	-0.293007
-94.088461	0.420979
-91.429977	2.213287
-88.774417	1.120979
-86.117429	2.495105
-83.465539	0.588112
-80.812218	-2.653147
-78.161818	-1.754545
-75.509988	-1.053147
-72.863249	1.357343
-70.215081	1.103497
-67.567655	2.251748
-64.923143	2.106294
-62.277203	3.576224
-59.636344	4.102098
-56.994056	2.295105
-54.354677	3.642657
-51.713868	1.465035
-49.073800	-1.337762
-46.438804	-3.169930
-43.802380	-3.234965
-41.168858	-0.249650
-38.533908	-2.900699
-35.904023	-2.360839
-33.270546	0.255944
-30.642131	2.976224
-28.014450	6.506294
-25.385340	7.928671
-22.761287	-2.459441
-20.133645	-44.592308
-17.511056	-133.171329
-14.889199	-222.501399
-12.268072	75.694406
-9.647675	687.579021
-7.030167	1197.817483
-4.411230	1562.879720
-1.795178	1776.482517
0.820145	1833.876923
3.434741	1739.739161
6.046454	1497.458042
8.659596	1107.765734
11.267704	601.137063
13.879394	69.385315
16.486053	-288.307692
19.094140	-205.120979
21.701503	-11.240559
24.303841	10.375524
26.909757	10.604196
29.510651	9.672727
32.112973	6.739860
34.710278	7.032867
37.311158	9.572727
39.907023	8.216084
42.504317	6.041958
45.100891	5.041958
47.692456	4.713986
50.285449	5.088112
52.875581	3.413287
55.467141	2.142657
58.055841	1.802098
60.645968	1.106993
63.231096	1.747552
65.817652	4.315385
68.403494	4.592308
70.986482	4.089510
73.570896	2.249650
76.148182	3.326573
78.729034	0.351748
81.307037	-1.432867
83.884330	-2.409091
86.463049	-6.475524
89.036786	-7.500000
91.611951	-8.771329
94.184272	-8.130769
96.755885	-6.323776
99.324658	-2.951748
101.894858	1.407692
104.462220	4.538462
107.031007	5.434965
109.596958	5.891608
112.160074	4.783916
114.726746	3.802098
117.284197	3.850350
119.847333	3.190909
122.405509	4.268531
124.967240	10.001399
127.524014	16.902797
130.082215	32.993007
132.635462	53.317483
135.188012	77.666434
137.744112	108.779021
140.295264	142.552448
142.845719	173.838462
145.395476	201.953846
147.942414	224.109091
150.488657	239.221678
153.036325	249.800000
155.583297	253.848951
158.125334	250.388811
160.666677	247.487413
163.207327	242.879021
165.749403	238.173427
168.288667	234.789510
170.825123	230.098601
173.360887	231.421678
175.898077	229.939860
178.434576	231.341958
180.968269	235.851748
183.499158	236.285315
186.029360	238.180420
188.560986	239.430769
191.089811	240.634965
193.615837	240.598601
196.141177	237.746853
198.667942	232.528671
201.191911	229.173427
203.715195	229.523077
206.237794	230.644755
208.757600	230.572028
211.276723	230.644755
213.795163	232.437063
216.315027	234.867832
218.827890	238.010490
221.344284	245.678322
223.859996	250.763636
226.370818	250.419580
228.883065	251.274825
231.392530	251.831469
233.901316	254.338462
236.409423	256.444056
238.918955	257.026573
241.423606	258.727972
243.927581	261.246154
246.432980	260.555245
248.933504	262.451748
251.437552	265.135664
253.934628	262.604196
256.435228	258.949650
258.933056	257.160839
261.430211	259.555245
263.926693	260.209790
266.418312	258.632168
268.913451	259.627273
271.405823	258.681818
273.897525	258.890210
276.386464	258.617483
278.876827	259.453846
281.364427	260.414685
283.849268	260.037063
286.337624	262.799301
288.819040	266.079720
291.303970	274.641958
293.784055	279.934965
296.267652	284.576923
298.746406	288.968531
301.226584	290.485315
303.704009	292.702797
306.180771	294.113287
308.656870	290.611189
311.130220	287.834965
313.602908	285.348252
316.074935	282.916084
318.546301	279.191608
321.014922	279.183217
323.482885	276.147552
325.952269	273.039860
328.416831	269.245455
330.884897	265.201399
333.348143	262.590210
335.810731	259.314685
338.272663	253.202797
340.733938	253.060140
343.192479	252.280420
345.652442	249.498601
348.109672	247.123077
350.566248	243.934965
353.022170	238.230070
355.475362	235.337762
357.929977	233.668531
360.379790	230.639860
362.833099	230.202797
365.281610	226.845455
367.729469	226.441958
370.178751	225.113287
372.623239	222.861538
375.069149	218.565035
377.514409	214.572727
379.956951	210.893007
382.398845	208.983916
384.840092	206.800699
387.278623	202.893007
389.718576	198.912587
392.155815	198.875524
394.590342	194.780420
397.028357	195.618881
399.461595	195.677622
401.896254	198.166434
404.326141	199.156643
406.759513	202.727273
409.188115	204.639860
411.616075	208.074825
414.045457	208.114685
416.470073	204.060839
418.896111	204.347552
421.321508	202.743357
423.746265	198.274126
426.166264	194.902797
428.587684	193.620979
431.006407	191.309790
433.426551	188.571329
435.844000	185.362937
438.262869	178.160839
440.679045	180.598601
443.090473	176.650350
445.505379	171.962937
447.917594	170.865035
450.329175	170.134266
452.740122	167.732168
455.148383	163.991608
457.556011	162.397902
459.963007	161.494406
462.369372	160.852448
464.773054	160.602098
467.176106	161.341259
469.578528	166.061538
471.980320	165.460140
474.379435	162.273427
476.779969	164.467832
479.179874	169.367832
481.575056	171.957343
483.973705	170.880420
486.367634	174.151049
488.760937	178.311189
491.153614	183.232867
493.545666	190.045455
495.939136	201.150350
498.327894	219.382517
500.713986	257.154545
503.101498	335.903497
505.488387	478.163636
507.872612	681.725175
510.258255	923.217483
512.641237	1160.281119
515.021558	1360.214685
517.403298	1493.713287
519.782379	1545.207692
522.162879	1511.771329
524.540721	1399.017483
526.915908	1227.129371
529.290477	1025.996503
531.666464	841.117483
534.039799	696.360839
536.414551	602.820979
538.784618	539.800000
541.154069	494.012587
543.524938	458.099301
545.891127	427.971329
548.258734	401.418182
550.623695	381.047552
552.988043	362.774825
555.351778	347.126573
557.716931	331.395105
560.077412	322.125874
562.439311	314.976923
564.798569	307.600000
567.155190	296.566434
569.515255	289.242657
571.868629	282.209091
574.225448	274.620979
576.579632	267.870629
578.933208	262.879720
581.286175	257.009790
583.636510	252.595105
585.988263	247.919580
588.333339	244.108392
590.683879	239.815385
593.027745	234.843357
595.377073	228.495105
597.721752	223.102797
600.063807	220.626573
602.407279	217.286713
604.748128	217.472028
607.088375	222.476224
609.426001	225.733566
611.767062	229.612587
614.103485	231.939860
616.441325	232.813287
618.776548	232.577622
621.109155	229.426573
623.443178	224.190909
625.774587	219.871329
628.105398	217.896503
630.435612	211.866434
632.765227	210.510490
635.090220	211.608392
637.420653	209.651049
639.746466	207.248252
642.069671	209.063636
644.394293	208.140559
646.716309	207.095804
649.037731	203.997902
651.356551	201.334266
653.676786	199.362238
655.996428	198.509091
658.313469	195.467832
660.629918	194.032867
662.943769	193.627273
665.259036	191.182517
667.571706	191.451748
669.885791	192.633566
672.195276	192.369231
674.506177	193.921678
676.814485	194.721678
679.122205	195.088112
681.431339	193.317483
683.735881	194.860140
686.039837	193.941259
688.343207	192.184615
690.647991	188.849650
692.948189	182.698601
695.249801	179.163636
697.550829	174.218182
699.847274	169.191608
702.145135	165.720979
704.442412	162.077622
706.739106	160.859441
709.031224	158.802098
711.326753	160.981119
713.617708	163.010490
715.910078	164.304895
718.199873	164.817483
720.489087	166.028671
722.777722	168.260839
725.063784	169.608392
727.351261	171.137063
729.636166	171.290909
731.920494	171.460140
734.202253	173.153846
736.485426	169.103497
738.768022	165.918881
741.046062	166.095804
743.325517	161.334965
745.604395	158.381818
747.882699	158.865035
750.156453	157.795105
752.431620	157.231469
754.706214	160.609091
756.978249	160.178322
759.251697	160.180420
761.522587	159.723077
763.790921	155.949650
766.060668	157.374126
768.327861	157.071329
770.594483	154.379021
772.860535	153.171329
775.124036	156.101399
777.388950	153.051049
779.653294	151.911189
781.913109	154.787413
784.174336	154.523077
786.434996	153.402797
788.693110	157.118881
790.948679	158.441259
793.207639	160.704196
795.460100	161.416783
797.717927	161.816783
799.971236	162.372028
802.222005	163.383916
804.474186	159.037762
806.723828	157.476923
808.974883	157.870629
811.221426	155.926573
813.469381	153.888811
815.714802	154.141958
817.961634	152.474126
820.207905	150.979021
822.449671	153.432168
824.694821	154.246853
826.933498	155.265035
829.175557	154.881119
831.413118	156.113986
833.652091	155.115385
835.888537	155.929371
838.126394	155.497902
840.361726	154.585315
842.594535	153.950350
844.828755	155.404196
847.060452	154.232867
849.291595	152.165734
851.522183	148.764336
853.752217	148.611189
855.981697	148.314685
858.206695	148.261538
860.435068	149.203497
862.658961	150.659441
864.884266	151.418182
867.105095	152.418881
869.329296	151.506993
871.549024	151.148951
873.770162	149.522378
875.990750	146.207692
878.208829	145.395804
880.428317	146.262937
882.643339	144.227972
884.857814	144.515385
887.071740	144.739161
889.285120	145.103497
891.497952	143.813986
893.710238	143.882517
895.920021	143.579021
898.129259	145.916084
900.337952	148.444056
902.544146	148.360140
904.751749	147.130769
906.956854	144.347552
909.161416	145.842657
911.363483	148.038462
913.566959	145.499301
915.767941	150.772028
917.968381	154.193007
920.170230	164.527972
922.365688	177.730070
924.564505	188.576224
926.758883	203.007692
928.956619	216.157343
931.149919	230.300000
933.344628	248.165734
935.536851	262.593706
937.728535	273.476923
939.919682	279.613287
942.108346	286.796503
944.296474	290.523077
946.482121	292.932867
948.671120	295.196503
950.855696	293.372727
953.039737	296.723776
955.227128	297.923077
957.406215	298.650350
959.588653	302.394406
961.770557	304.055245
963.949986	309.453846
966.126943	311.258042
968.305308	314.287413
970.485080	311.390210
972.658503	311.040559
974.835272	310.653147
977.007634	306.491608
979.181404	299.126573
981.350770	286.232168
983.523480	273.292308
985.693725	266.733566
987.863441	253.734266
990.032628	240.605594
992.197418	228.619580
994.365549	218.474825
996.529286	204.530070
998.694429	196.855245
1000.857113	192.452448
1003.019272	189.933566
1005.178974	187.583916
1007.338151	187.058042
1009.498735	191.674825
1011.656865	196.031469
1013.814470	188.750350
1015.971552	187.061538
1018.128110	179.211888
1020.280289	169.262238
1022.433875	159.578322
1024.586939	149.617483
1026.737554	145.739161
1028.889576	142.847552
1031.037224	142.940559
1033.188204	148.153846
1035.334813	148.167832
1037.480903	150.405594
1039.626475	150.670629
1041.773452	151.783916
1043.914140	150.118881
1046.058158	151.758741
1048.199735	147.027972
1050.340796	143.771329
1052.483261	142.124476
1054.619447	140.367832
1056.758958	139.418182
1058.894115	141.626573
1061.032596	138.170629
1063.166723	138.602098
1065.300337	142.780420
1067.435356	144.643357
1069.566025	149.371329
1071.698099	152.640559
1073.827744	150.510490
1075.956877	147.132168
1078.085498	146.892308
1080.213608	142.272028
1082.339292	139.083916
1084.464466	135.592308
1086.591044	133.487413
1088.713284	136.034266
1090.836929	135.731469
1092.956239	137.437762
1095.080779	143.526573
1097.199073	145.693007
1099.318772	146.227273
1101.436052	145.211189
1103.552826	146.588112
1105.669093	139.956643
1107.782944	136.011189
1109.898200	134.193706
1112.009132	130.739860
1114.123377	133.360839
1116.233301	125.734266
1118.344629	128.674126
1120.455452	131.482517
1122.561959	129.374825
1124.671776	126.692308
1126.777278	128.656643
1128.884183	127.764336
1130.984873	125.673427
1133.090775	123.475524
1135.192368	125.797902
1137.295364	118.290210
1139.397859	117.322378
1141.494147	116.160839
1143.595643	118.702797
1145.692835	120.119580
1147.789530	119.360140
1149.885726	117.138462
1151.981425	122.809091
1154.076625	125.732867
1156.169429	130.993007
1158.263636	131.325874
1160.351651	135.786014
1162.444864	134.074825
1164.531889	132.820979
1166.622213	132.745455
1168.708250	134.551049
1170.797584	127.685315
1172.880737	124.224476
1174.965292	123.618881
1177.051249	124.933566
1179.132924	123.712587
1181.216001	128.858741
1183.296692	130.374825
1185.376891	132.125175
1187.456599	133.171329
1189.535816	134.037762
1191.612651	133.412587
1193.687105	133.693007
1195.764850	128.081818
1197.838326	129.335664
1199.913202	130.926573
1201.983811	127.008392
1204.055821	126.360140
1206.125456	128.618182
1208.196491	126.786713
1210.267038	125.180420
1212.333324	126.853147
1214.401011	126.348951
1216.466326	125.220979
1218.533041	123.488811
1220.595500	123.337762
1222.661244	124.218881
1224.722734	121.890909
1226.785625	120.824476
1228.846148	124.176923
1230.906187	125.177622
1232.965744	126.336364
1235.022935	127.474126
1237.079645	131.679021
1239.133991	133.321678
1241.191619	134.732168
1243.246884	135.149650
1245.297908	134.718881
1247.350332	134.939161
1249.402276	133.227273
1251.451862	135.371329
1253.500969	135.262238
1255.549598	135.224476
1257.597748	132.453147
1259.645419	132.325874
1261.688860	139.566434
1263.735577	139.320979
1265.779940	134.012587
1267.823827	135.119580
1269.865362	135.677622
1271.904548	138.174825
1273.947007	142.297902
1275.985243	143.672727
1278.024878	142.060140
1280.064038	145.453846
1282.098979	143.539161
1284.135319	148.652448
1286.169315	153.560140
1288.204708	148.923776
1290.235889	145.430769
1292.268467	147.208392
1294.300574	148.543357
1296.330340	150.634266
1298.361504	149.802797
1300.388460	147.152448
1302.416814	144.576923
1304.440963	143.360140
1306.468378	142.311189
1308.491590	143.634266
1310.516200	142.934266
1312.538476	139.340559
1314.562149	138.002797
1316.583489	139.759441
1318.604361	143.053846
1320.624766	144.037063
1322.640978	143.476923
1324.658587	144.807692
1326.673868	145.877622
1328.692408	145.390909
1330.706759	147.397203
1332.718784	147.425175
1334.734066	146.621678
1336.745163	146.586713
1338.757657	146.493706
1340.765968	148.453846
1342.777534	147.655944
1344.783062	146.520979
1346.791845	144.990210
1348.796450	144.498601
1350.804309	143.936364
1352.811706	144.201399
1354.813072	140.555944
1356.815834	139.173427
1358.818137	136.911189
1360.819980	136.907692
1362.821363	137.798601
1364.820433	138.849650
1366.819044	137.798601
1368.817197	136.864336
1370.814891	135.145455
1372.808423	135.348951
1374.803351	135.396503
1376.797821	139.322378
1378.791835	138.337063
1380.783542	136.158741
1382.774794	135.169231
1384.763740	134.492308
1386.754081	133.790909
1388.743967	129.955944
1390.731549	123.729371
1392.718678	118.776923
1394.703505	117.303497
1396.689727	117.099301
1398.673649	119.718881
1400.657118	125.572727
1402.640134	125.453846
1404.620853	125.983916
1406.602966	128.047552
1408.582783	127.179021
1410.562148	126.560839
1412.537375	126.054545
1414.515840	122.291608
1416.492012	123.965734
1418.467735	125.287413
1420.443008	125.458042
1422.415990	125.533566
1424.388524	125.917483
1426.360610	124.214685
1428.332249	126.544056
1430.299759	123.861538
1432.272343	121.841259
1434.237122	122.139161
1436.206972	124.944056
1438.172699	123.416084
1440.139818	124.044056
1442.104654	122.211888
1444.065370	122.011888
1446.031154	122.329371
1447.990983	126.411888
1449.952206	126.814685
1451.914821	129.753147
1453.873321	128.772727
1455.831378	132.467133
1457.788994	135.774126
1459.746167	136.915385
1461.701065	134.659441
1463.657356	133.897902
1465.611372	130.700699
1467.564947	130.126573
1469.516250	129.685315
1471.468946	128.389510
1473.419369	124.383217
1475.369354	126.721678
1477.318900	124.753147
1479.266177	127.461538
1481.211186	127.833566
1483.157588	126.960839
1485.103552	128.969930
1487.049079	130.124476
1488.992340	130.853147
1490.935166	132.570629
1492.875728	134.808392
1494.817681	133.257343
1496.757372	128.027972
1498.696629	128.645455
1500.635450	125.027972
1502.572012	125.390210
1504.509965	125.080420
1506.445659	124.616084
1508.380920	127.129371
1510.313925	129.257343
1512.246497	134.616783
1514.178637	136.392308
1516.110345	136.627273
1518.039799	134.135664
1519.970644	132.454545
1521.901057	132.262937
1523.827398	129.419580
1525.755130	131.209091
1527.680611	130.779720
1529.605663	132.527273
1531.530286	133.211189
1533.454480	135.200699
1535.376426	136.899301
1537.299763	138.093706
1539.220853	138.724476
1541.139700	139.513986
1543.059935	141.538462
1544.977928	142.868531
1546.895494	142.965035
1548.810818	147.933566
1550.727532	149.753147
1552.640191	156.035664
1554.556054	157.618881
1556.469677	162.697902
1558.381062	168.081818
1560.293837	170.430769
1562.202562	179.141958
1564.112676	189.014685
1566.022367	199.909091
1567.931635	219.301399
1569.838669	239.265035
1571.743470	270.085315
1573.649660	302.088811
1575.553618	333.671329
1577.457155	363.183217
1579.360272	385.261538
1581.261159	395.616084
1583.163435	392.575524
1585.063483	379.044755
1586.964918	350.247552
1588.862320	315.730769
1590.759303	282.846853
1592.655868	250.213287
1594.553821	225.217483
1596.445939	199.085315
1598.341250	185.189510
1600.236144	178.605594
1602.128816	171.235664
1604.021071	169.867832
1605.911107	169.559441
1607.800727	165.658741
1609.689932	161.839161
1611.578722	163.777622
1613.465294	164.990210
1615.353254	164.813986
1617.237197	160.849650
1619.122527	157.461538
1621.007444	158.088811
1622.890147	155.644056
1624.774237	155.214685
1626.654315	155.479720
1628.535781	154.544755
1630.415036	150.102098
1632.295677	145.246853
1634.170514	141.263636
1636.050332	137.083916
1637.926146	134.237063
1639.801549	129.330070
1641.678338	128.775524
1643.549331	129.586713
1645.423505	130.401399
1647.293680	130.973427
1649.167037	130.206294
1651.038190	128.646853
1652.907141	124.471329
1654.777477	123.988811
1656.643821	122.840559
1658.511550	124.975524
1660.377080	125.762238
1662.243996	125.293007
1664.106923	125.840559
1665.971235	127.974126
1667.833351	126.000699
1669.695062	124.000000
1671.558159	124.803497
1673.419060	124.662238
1675.277769	122.067133
1677.136074	122.481119
1678.995764	120.788811
1680.849686	122.734965
1682.706782	122.877622
1684.563475	124.704895
1686.416191	121.857343
1688.272079	118.803497
1690.123993	114.587413
1691.975506	113.258042
1693.826618	109.920280
1695.677330	108.306993
1697.527641	101.182517
1699.375767	101.686014
1701.225278	100.297902
1703.069040	105.849650
1704.917751	110.438462
1706.760716	112.445455
1708.606848	114.384615
1710.449017	117.587413
1712.294352	117.848951
1714.133946	117.334266
1715.974924	114.158042
1717.817285	119.663636
1719.655690	120.176923
1721.495478	119.719580
1723.333091	117.042657
1725.170308	120.836364
1727.005352	120.130769
1728.841779	119.833566
1730.676034	122.241958
1732.509894	121.301399
1734.343360	119.059441
1736.172881	112.504196
1738.005560	108.741259
1739.834295	106.371329
1741.666187	101.295804
1743.494137	96.562238
1745.321696	97.504895
1747.148862	101.049650
1748.975637	99.960140
1750.802020	102.750350
1752.624467	104.213287
1754.450069	108.699301
1756.271736	112.495105
1758.094785	112.213287
1759.915672	108.655245
1761.736171	106.502797
1763.558051	109.774825
1765.374231	110.390909
1767.193563	107.928671
1769.008968	108.119580
1770.827523	106.240559
1772.642153	104.781818
1774.456396	102.144755
1776.270253	107.034266
1778.083723	111.034266
1779.895040	111.871329
1781.707737	108.644755
1783.520049	109.227972
1785.328443	112.150350
1787.138217	111.405594
1788.944077	110.406294
1790.753082	110.741958
1792.558174	112.889510
1794.364647	112.491608
1796.170736	107.456643
1797.972914	108.626573
1799.778237	106.877622
1801.579651	101.004895
1803.382445	96.902797
1805.181333	97.686713
1806.981602	99.746154
1808.781489	99.146154
1810.579234	99.725175
1812.376599	100.237762
1814.173584	106.275524
1815.970188	107.154545
1817.764653	102.192308
1819.560497	103.101399
1821.350686	102.981119
1823.145772	100.318182
1824.935206	100.576923
1826.727776	100.991608
1828.518211	102.109790
1830.306512	99.655944
1832.097948	100.786014
1833.883738	104.840559
1835.670908	107.345455
1837.455946	107.379021
1839.244118	108.262937
1841.028404	108.717483
1842.810560	109.490210
1844.594096	105.663636
1846.375503	105.622378
1848.158289	107.201399
1849.937194	107.713986
1851.717479	108.425874
1853.495637	109.016084
1855.275174	114.239161
1857.052586	114.364336
1858.827874	114.262238
1860.604540	113.255944
1862.379084	112.107692
1864.155006	114.395804
1865.925307	116.420280
1867.698736	118.632168
1869.470045	121.235664
1871.240983	117.730070
1873.013299	117.164336
1874.780001	112.934266
1876.549829	110.963636
1878.315793	105.478322
1880.084880	96.776224
1881.850106	92.409091
1883.614964	94.741958
1885.381199	96.657343
1887.143575	101.918182
1888.905584	104.577622
1890.667225	108.795105
1892.428500	114.112587
1894.189407	120.628671
1895.949948	120.241958
1897.708379	120.759441
1899.466444	117.830769
1901.222402	111.993706
1902.979736	111.954545
1904.736705	109.704196
1906.491567	104.755245
1908.244325	103.989510
1909.996718	99.933566
1911.750488	101.192308
1913.502154	102.374126
1915.251718	105.426573
1917.002657	105.655245
1918.753234	106.556643
1920.499971	104.234266
1922.248085	103.093007
1923.994099	106.292308
1925.741488	105.304895
1927.486780	105.506993
1929.229974	105.574126
1930.974543	103.429371
1932.717017	104.607692
1934.459130	103.277622
1936.200883	107.061189
1937.942276	108.642657
1939.681576	104.831818
1941.420517	102.734965
1943.159099	99.164685
1944.895590	102.037063
1946.631723	98.224126
1948.369230	96.760839
1950.102915	94.083566
1951.837975	91.539860
1953.570946	91.817832
1955.303561	91.654545
1957.035820	91.324126
1958.767722	87.926573
1960.497538	87.025175
1962.225269	87.718881
1963.954375	86.074825
1965.683126	88.553846
1967.409793	88.462238
1969.136106	92.941259
1970.863792	96.959441
1972.585942	97.965035
1974.311193	98.879021
1976.032637	99.015385
1977.757182	97.850350
1979.479646	96.951049
1981.198308	99.769231
1982.920068	97.391608
1984.638026	91.955944
1986.357357	89.592308
1988.072889	89.655944
1989.793241	90.717483
1991.509795	89.858042
1993.222552	88.500000
1994.938405	88.627273
1996.652186	93.542657
1998.365617	96.860140
2000.076977	98.995105
2001.789709	99.881119
2003.498651	96.601399
2005.210685	97.091608
2006.917211	92.841259
2008.626828	90.800000
2010.334379	89.320979
2012.041581	88.058042
2013.746718	88.243357
2015.451509	88.660140
2017.157671	90.003497
2018.860051	90.675524
2020.563802	91.553846
2022.265491	93.865035
2023.966835	95.118182
2025.667833	97.586014
2027.366770	95.895804
2029.067079	98.272727
2030.763613	98.548951
2032.461518	99.048252
2034.157364	98.648252
2035.856296	98.186713
2037.549742	97.267133
2039.244559	95.468531
2040.939034	97.938462
2042.629740	98.048951
2044.323530	98.551748
2046.013553	96.928671
2047.704947	96.434965
2049.394288	94.927273
2051.084999	92.657343
2052.771947	88.274825
2054.458556	85.636364
2056.146534	85.137063
2057.830753	81.009790
2059.516343	81.331469
2061.201593	87.277622
2062.884794	89.064336
2064.569366	92.251748
2066.248475	92.656643
2067.932369	94.493007
2069.610802	93.734266
2071.292313	92.505594
2072.970072	90.128671
2074.647495	89.796503
2076.326287	87.825874
2078.003037	82.739161
2079.677745	83.313287
2081.353822	85.831469
2083.027859	81.443357
2084.701560	81.984615
2086.374926	84.413287
2088.046253	89.089510
2089.717246	89.511189
2091.387905	93.156643
2093.058230	90.913287
2094.728221	89.816084
2096.396176	92.608392
2098.063798	90.479021
2099.729385	87.062937
2101.396341	88.981818
2103.061264	82.282517
2104.725855	82.195105
2106.388414	81.425175
2108.052341	82.967832
2109.714237	81.834266
2111.375803	82.948951
2113.037037	80.760839
2114.696243	87.448252
2116.355118	93.129371
2118.013664	94.893706
2119.671880	96.680420
2121.326372	100.507692
2122.983929	97.041958
2124.641157	95.004196
2126.294663	92.318182
2127.949537	89.221678
2129.600692	87.083916
2131.254910	86.939860
2132.905411	86.135664
2134.557278	87.754545
2136.203737	86.087413
2137.854951	90.072727
2139.502451	90.435664
2141.151318	89.302797
2142.798166	88.468531
2144.444689	90.037762
2146.090886	88.602797
2147.733375	86.676224
2149.378922	85.401399
2151.020762	83.724476
2152.665659	83.637762
2154.306850	83.012587
2155.947719	83.587413
2157.588263	86.522378
2159.226795	83.899301
2160.866693	83.294406
2162.502891	82.192308
2164.140455	84.193706
2165.777697	83.932867
2167.412929	83.936364
2169.047840	84.912587
2170.682428	84.291608
2172.316696	88.800699
2173.947270	87.704895
2175.580896	88.938462
2177.210830	86.492308
2178.842129	81.577622
2180.471423	81.056643
2182.100398	79.448252
2183.729053	80.610490
2185.357389	79.348252
2186.983723	78.448951
2188.609738	82.995105
2190.233751	82.987413
2191.859130	86.952448
2193.482508	88.470629
2195.107251	92.544056
2196.728313	90.841259
2198.349058	93.574825
2199.971168	97.192308
2201.591280	99.327972
2203.209395	102.570629
2204.827195	104.247552
2206.444680	104.913986
2208.061849	105.839161
2209.678703	103.586713
2211.295241	103.628671
2212.909787	103.767133
2214.522340	101.662937
2216.136257	97.286014
2217.748183	96.941958
2219.361472	95.083217
2220.972771	93.044056
2222.582080	93.056643
2224.192753	91.563636
2225.801437	88.257343
2227.409808	85.172028
2229.016193	83.766434
2230.623941	82.829371
2232.229702	77.842657
2233.835152	79.886014
2235.438617	85.841259
2237.043445	89.728671
2238.646289	92.994406
2240.247150	94.701399
2241.849374	98.804196
2243.449616	102.032168
2245.051220	101.481818
2246.649171	100.695105
2248.248485	99.223077
2249.845819	96.820280
2251.442845	93.320280
2253.041233	97.232168
2254.635972	93.618881
2256.228734	92.004196
2257.822859	90.693706
2259.418345	90.375524
2261.010186	91.637063
2262.601721	91.362937
2264.194618	89.879720
2265.782205	92.709091
2267.374488	92.034266
2268.961465	94.053846
2270.551469	93.430070
2272.136169	92.546154
2273.725563	91.410490
2275.309655	94.321678
2276.895107	92.158042
2278.478591	90.946853
2280.065100	91.741259
2281.647976	91.134266
2283.230549	91.746853
2284.812818	93.525874
2286.391457	88.536364
2287.973121	89.548951
2289.551156	86.431469
2291.132214	87.048951
2292.709645	87.506993
2294.285113	84.227972
2295.863603	82.952448
2297.438469	82.764336
2299.013034	84.317483
2300.587299	83.389510
2302.161263	86.144755
2303.734926	90.158741
2305.308290	92.371329
2306.878035	95.048951
2308.447481	92.048951
2310.019945	94.568531
2311.587135	91.456643
2313.157343	86.493007
2314.723936	82.811189
2316.291889	79.132867
2317.857886	74.940559
2319.423586	71.728671
2320.988988	75.138462
2322.552437	77.671329
2324.117245	78.272727
2325.678445	77.542657
2327.242659	77.129371
2328.801611	80.963636
2330.363578	82.831469
2331.923593	84.852448
2333.483314	83.758741
2335.041085	81.057343
2336.598561	77.872028
2338.155743	72.227972
2339.710977	75.004196
2341.265918	71.927273
2342.820564	66.195105
2344.374917	64.676923
2345.928977	66.768531
2347.482742	70.355944
2349.034564	74.241259
2350.584442	79.834266
2352.137328	81.348252
2353.684972	83.991608
2355.235623	83.816783
2356.782683	83.562937
2358.331101	85.565035
2359.879228	83.025175
2361.423766	78.695804
2362.969662	76.342657
2364.513620	76.511189
2366.058935	75.555245
2367.600665	72.291608
2369.143752	75.038462
2370.684903	75.711888
2372.225765	78.361538
2373.766338	78.425175
2375.306622	82.491608
2376.846617	82.866434
2378.383034	83.102098
2379.922452	85.462238
2381.458293	84.781818
2382.995490	86.814685
2384.529112	87.462937
2386.065734	79.290210
2387.600426	78.554545
2389.133188	73.164336
2390.665663	71.764336
2392.196210	72.928671
2393.729755	72.429371
2395.258089	73.250350
2396.787780	74.076923
2398.317184	83.147552
2399.846304	87.358741
2401.375139	90.555944
2402.898768	89.276923
2404.427033	83.562238
2405.950096	85.879720
2407.477792	85.677622
2408.998649	85.032867
2410.524139	85.346853
2412.046068	85.100699
2413.569353	83.352448
2415.090716	79.613287
2416.610160	84.651049
2418.130959	81.481818
2419.649840	80.258042
2421.168438	79.211189
2422.685119	76.683217
2424.203154	81.381818
2425.720908	88.313986
2427.235111	86.762937
2428.749033	89.465035
2430.262675	91.696503
2431.777672	89.715385
2433.289120	88.501399
2434.801923	89.077622
2436.312812	84.009091
2437.823423	88.824476
2439.332122	92.883217
2440.843807	91.841259
2442.351949	96.747552
2443.859813	94.226573
2445.367399	89.302797
2446.871444	90.558741
2448.378474	95.348951
2449.883597	99.351748
2451.388441	99.409091
2452.891379	96.780420
2454.394041	100.497203
2455.896426	104.423776
2457.396906	106.704196
2458.898739	105.027273
2460.398667	100.251748
2461.898320	92.139161
2463.397698	88.971329
2464.895173	93.072727
2466.390746	96.534266
2467.889299	98.835664
2469.384324	94.801399
2470.880701	94.496503
2472.373552	91.986014
2473.867756	87.160839
2475.361686	87.032168
2476.852092	85.127972
2478.345476	80.689510
2479.836962	82.246154
2481.326551	87.304196
2482.815868	90.447552
2484.303289	89.514685
2485.793686	90.269231
2487.280565	88.015385
2488.768795	84.217483
2490.253508	75.670629
2491.737952	72.979021
2493.223746	75.138462
2494.707649	73.605594
2496.192902	75.360839
2497.673022	81.646154
2499.156115	84.193706
2500.637317	79.216783
2502.118250	77.904895
2503.597294	76.048951
2505.076069	76.304196
2506.554576	74.046154
2508.032815	72.819580
2509.510785	71.722378
2510.985250	74.248951
2512.462685	73.760839
2513.936616	78.411189
2515.411897	82.730070
2516.886911	80.254545
2518.358425	77.493706
2519.831288	75.939860
2521.302269	74.094406
2522.774600	74.166434
2524.241817	73.006993
2525.712001	71.809091
2527.180304	72.167133
2528.648342	72.558042
2530.116115	73.253147
2531.583623	75.186713
2533.050866	76.546853
2534.514617	74.018182
2535.979718	76.395105
2537.442942	76.672028
2538.907516	76.530070
2540.368600	76.752448
2541.831034	74.124476
2543.293205	73.632168
2544.751890	74.690909
2546.215147	73.772727
2547.673307	71.362238
2549.132816	70.930070
2550.587231	70.973427
2552.046217	70.081119
2553.503331	71.193706
2554.958574	71.746853
2556.413555	72.685315
2557.866668	75.903497
2559.321129	77.635664
2560.773720	82.211189
2562.226052	85.088811
2563.676517	91.910490
2565.129937	91.174825
2566.578275	90.777622
2568.029569	90.749650
2569.478996	85.743357
2570.924951	81.826573
2572.373861	81.462238
2573.819301	77.281818
2575.266088	77.145455
2576.711013	78.710490
2578.155679	79.541958
2579.601693	78.043357
2581.044241	83.483916
2582.488136	82.750350
2583.928566	82.102098
2585.370343	84.474825
2586.810261	82.654545
2588.251526	84.345455
2589.689329	87.333566
2591.130082	83.462238
2592.565773	81.791608
2594.004413	78.604895
2595.441195	74.902797
2596.876122	73.342657
2598.313996	75.255245
2599.746813	74.630769
2601.180977	74.465035
2602.613287	76.489510
2604.046943	76.334965
2605.478746	78.689510
2606.910295	81.386014
2608.341592	78.151748
2609.771036	76.386014
2611.200228	75.648951
2612.627570	76.180420
2614.056257	75.360839
2615.484693	76.590210
2616.909681	73.413287
2618.336016	72.569930
2619.760502	75.190210
2621.186334	76.229371
2622.608722	81.374126
2624.032456	82.439161
2625.454343	85.769231
2626.875981	91.289510
2628.295773	91.934266
2629.716911	94.727273
2631.137799	93.113986
2632.555249	95.423077
2633.975638	92.807692
2635.392590	91.638462
2636.809293	94.077622
2638.225748	96.026573
2639.641955	102.976224
2641.057914	108.288112
2642.472032	116.879720
2643.885902	123.734965
2645.297934	123.704895
2646.711309	129.962238
2648.121255	135.894406
2649.534137	141.309790
2650.943590	144.797203
2652.352797	146.188112
2653.760168	152.370629
2655.170473	158.502098
2656.578943	167.875524
2657.985577	178.435664
2659.391966	190.206993
2660.796521	200.485315
2662.202420	210.788112
2663.606486	219.564336
2665.010307	236.469231
2666.413884	251.215385
2667.815630	271.149650
2669.218719	294.904196
2670.618390	321.045455
2672.019405	348.176923
2673.417004	376.780420
2674.817533	411.182517
2676.214646	444.506294
2677.613103	471.661538
2679.009733	496.156643
2680.406120	513.588112
2681.802265	535.262937
2683.196585	542.900699
2684.592246	548.290210
2685.984499	550.972028
2687.378094	539.943357
2688.769865	527.309790
2690.162979	505.001399
2691.554269	483.478322
2692.943736	459.271329
2694.332963	429.627273
2695.721951	401.701399
2697.112280	373.816084
2698.497626	349.568531
2699.885895	319.338462
2701.272344	296.168531
2702.658554	275.151748
2704.044525	249.679021
2705.427098	228.959441
2706.811013	209.713986
2708.194690	193.827972
2709.578128	185.711189
2710.958172	178.123776
2712.339556	171.567832
2713.719126	165.486713
2715.100036	160.966434
2716.479132	155.657343
2717.856414	150.651049
2719.235037	144.255944
2720.611847	135.871329
2721.988420	128.755944
2723.364758	126.067832
2724.739285	120.055245
2726.115152	120.167133
2727.487632	115.578322
2728.863028	110.155245
2730.233464	104.404895
2731.605241	98.820979
2732.976783	96.355245
2734.346517	90.164336
2735.717592	85.355944
2737.086858	81.813986
2738.455891	81.079021
2739.823118	84.172727
2741.190112	83.202797
2742.556872	85.436364
2743.923401	85.312587
2745.288124	86.491608
2746.652615	87.162238
2748.016875	90.230070
2749.380902	87.906294
2750.744698	81.994406
2752.105120	81.363636
2753.468452	79.288811
2754.826842	77.009091
2756.188142	76.544056
2757.546072	73.584615
2758.906910	74.046853
2760.265949	75.283916
2761.621619	74.979720
2762.980197	76.058741
2764.335408	75.813986
2765.690390	71.140559
2767.043576	71.230769
2768.399668	77.489510
2769.752395	77.537063
2771.104895	75.324476
2772.457166	73.065035
2773.810776	69.180420
2775.161024	69.037063
2776.509478	69.253147
2777.860838	65.790210
2779.208838	61.701399
2780.558176	58.064336
2781.905722	57.537762
2783.253042	61.880420
2784.600135	68.483217
2785.945437	67.367832
2787.290512	63.344755
2788.635362	62.393007
2789.979986	62.141259
2791.321258	66.546154
2792.663868	63.490210
2794.006252	65.269930
2795.348411	66.683916
2796.687221	66.257343
2798.028931	67.204196
2799.367293	70.855245
2800.706991	69.358042
2802.044905	67.081818
2803.381034	61.786014
2804.716939	62.698601
2806.054182	60.140559
2807.389641	58.082517
2808.724877	51.454545
2810.058330	55.826573
2811.393120	58.230070
2812.724570	59.095105
2814.058915	60.906993
2815.388362	64.425874
2816.719146	64.983217
2818.049708	68.846853
2819.378491	72.373427
2820.708610	77.781818
2822.036951	75.444056
2823.365071	71.983217
2824.691413	69.109790
2826.019092	68.927972
2827.343437	67.843357
2828.669119	65.418881
2829.993025	61.376224
2831.316712	57.737762
2832.641734	58.449650
2833.963426	57.002098
2835.284900	60.397203
2836.606155	60.899301
2837.927191	59.094406
2839.246454	62.161538
2840.567053	67.484615
2841.885881	68.426573
2843.204490	69.579720
2844.521328	68.314685
2845.837949	68.422378
2847.154353	67.483916
2848.468987	66.660839
2849.784957	63.681119
2851.097606	64.250350
2852.411590	66.043357
2853.725358	65.979720
2855.038909	66.516084
2856.350694	65.036364
2857.660712	61.299301
2858.972065	57.849650
2860.280103	55.625874
2861.589475	58.639161
2862.898633	56.637063
2864.207575	54.312587
2865.514753	56.658042
2866.820169	57.230769
2868.126919	58.558741
2869.431906	56.754545
2870.736680	58.038462
2872.039692	58.454545
2873.345585	54.876224
2874.646624	52.381818
2875.948997	54.239860
2877.249610	56.755944
2878.551557	54.530070
2879.853290	53.309091
2881.151720	53.663636
2882.451483	53.093007
2883.749489	53.095105
2885.047283	55.125874
2886.343321	58.870629
2887.640692	58.332168
2888.936307	56.993706
2890.231711	57.588811
2891.526904	62.730070
2892.818800	63.089510
2894.113572	60.604895
2895.405047	61.125175
2896.697855	61.248951
2897.990453	60.537063
2899.279757	55.817483
2900.570393	53.425874
2901.859278	51.320280
2903.149495	49.140559
2904.436421	48.157343
2905.724679	51.013986
2907.011188	55.945455
2908.297489	58.597902
2909.583581	60.181818
2910.867925	66.048252
2912.155140	67.791608
2913.437529	69.248252
2914.721250	65.450350
2916.003225	61.564336
2917.284992	53.600699
2918.565015	48.926573
2919.847907	45.720979
2921.129054	48.649650
2922.406919	49.023077
2923.687653	51.816084
2924.965106	51.997203
2926.242353	54.695804
2927.517858	54.690909
2928.796231	56.435664
2930.069790	51.169231
2931.346216	45.883916
2932.620901	41.162238
2933.893845	42.204196
2935.168121	40.316783
2936.440657	42.916084
2937.712988	43.095105
2938.982047	43.476224
2940.253971	46.497203
2941.524157	51.193706
2942.794139	53.621678
2944.063918	54.948951
2945.331961	51.786014
2946.598267	50.083217
2947.864372	51.574825
2949.131806	53.786014
2950.397506	53.813986
2951.663003	56.050350
2952.928298	54.775524
2954.190328	50.717483
2955.453688	54.530769
2956.716847	55.904196
2957.978274	53.607692
2959.241030	50.179021
2960.502054	46.611888
2961.761348	46.626573
2963.020442	48.235664
2964.279335	50.644755
2965.538028	53.387413
2966.796521	58.037762
2968.053285	57.360140
2969.309849	52.487413
2970.564686	50.606993
2971.820851	45.320280
2973.073762	41.606294
2974.328002	38.737063
2975.582043	40.291608
2976.834358	43.727273
2978.086474	44.209091
2979.336866	47.583217
2980.590113	50.491608
2981.838583	53.942657
2983.089908	54.501399
2984.337983	50.893706
2985.585862	50.357343
2986.833543	49.459441
2988.081027	53.802797
2989.326790	55.631469
2990.572357	60.599301
2991.819251	60.165734
2993.062901	56.482517
2994.307879	56.515385
2995.549613	51.439860
2996.794199	51.569930
2998.037066	53.068531
2999.276692	51.400699
3000.519168	52.039161
3001.758404	50.027972
3002.998968	50.132168
3004.237816	52.867832
3005.476468	52.978322
3006.713406	50.533566
3007.951670	50.769930
3009.188219	50.879021
3010.424575	50.597902
3011.660737	51.248252
3012.895185	50.483217
3014.129441	47.493706
3015.363503	46.167832
3016.595853	44.255944
3017.826491	46.546853
3019.059975	51.635664
3020.291747	54.589510
3021.521809	56.678322
3022.751679	58.935664
3023.979839	60.628671
3025.209325	62.758741
3026.437102	60.058741
3027.664688	58.813287
3028.893601	56.539860
3030.117771	52.395804
3031.344784	47.969930
3032.568573	46.754545
3033.793689	44.756643
3035.017098	43.858741
3036.240317	40.544056
3037.461831	42.604196
3038.686186	45.930070
3039.905806	46.446154
3041.126752	49.162937
3042.347509	50.134965
3043.566562	50.512587
3044.786940	49.111888
3046.004102	50.091608
3047.222590	51.111189
3048.439375	50.447552
3049.655973	52.646853
3050.872382	51.959441
3052.085579	53.827273
3053.301613	53.686713
3054.514435	53.204196
3055.730094	56.830070
3056.941030	57.551049
3058.153291	54.896503
3059.365366	51.399301
3060.577253	50.946853
3061.787444	49.893007
3062.997448	50.375175
3064.207266	54.264336
3065.415388	43.901748
3066.623325	42.528671
3067.829566	40.779371
3069.037132	40.402098
3070.243003	41.226923
3071.448690	38.259441
3072.654191	29.696154
3073.857999	29.216783
3075.063131	33.098951
3076.266570	34.174825
3077.468318	38.762587
3078.669881	43.158741
3079.871261	41.102797
3081.072457	43.980420
3082.271963	46.295105
3083.471286	52.646154
3084.671932	54.351049
3085.870888	51.085315
3087.066650	44.200000
3088.265241	44.677622
3089.460638	44.374825
3090.657358	41.292308
3091.850886	42.975524
3093.047242	45.038462
3094.241912	44.402098
3095.433391	41.511189
3096.629201	43.961538
3097.820318	49.632168
3099.012757	47.362937
3100.202009	44.796503
3101.394086	37.755944
3102.584480	37.728671
3103.771688	39.388112
3104.960219	41.106993
3106.150071	42.118182
3107.336740	44.136364
3108.523228	45.351748
3109.709538	47.455245
3110.897169	49.860140
3112.081618	53.753846
3113.264388	51.316084
3114.449980	47.625874
3115.633893	44.573427
3116.816127	43.223776
3117.998182	39.317483
3119.180059	37.179720
3120.361758	37.876224
3121.541780	35.914685
3122.720125	34.370629
3123.901290	34.379720
3125.079280	34.920280
3126.257094	37.737063
3127.434730	37.223077
3128.610691	38.365734
3129.786475	40.595804
3130.963581	38.226573
3132.139012	38.169930
3133.312770	42.846154
3134.484855	47.948252
3135.658262	45.282517
3136.831492	46.281818
3138.003051	46.925175
3139.175930	48.293007
3140.345642	50.534965
3141.516675	46.981818
3142.686038	45.930070
3143.853730	42.954545
3145.024238	41.086014
3146.190088	41.367133
3147.360246	41.469930
3148.525748	43.883217
3149.691075	45.490909
3150.856229	47.367832
3152.021210	48.899301
3153.187510	47.872727
3154.349158	45.151748
3155.512125	40.987413
3156.674920	40.414685
3157.837542	36.660140
3158.998499	37.495105
3160.159283	34.671329
3161.319895	35.588112
3162.478843	41.353147
3163.637620	42.960140
3164.796225	45.284615
3165.954657	46.475524
3167.112919	44.923776
3168.269518	45.293007
3169.424456	45.791608
3170.580713	43.730769
3171.735309	43.305594
3172.889735	43.821678
3174.042501	42.650350
3175.195096	46.479021
3176.347522	49.502098
3177.499778	49.048252
3178.651863	50.134266
3179.800803	50.705594
3180.952549	51.362238
3182.102637	53.625874
3183.251069	54.239860
3184.399331	52.109091
3185.547425	49.186713
3186.695350	44.825874
3187.841619	42.530769
3188.987720	39.400699
3190.132167	36.046154
3191.276446	36.658042
3192.420557	37.302098
3193.565985	40.226573
3194.708275	43.367832
3195.850398	43.218182
3196.992353	46.504895
3198.134141	44.122378
3199.275762	43.768531
3200.414248	42.338462
3201.554051	41.853846
3202.695172	40.087413
3203.833158	41.083217
3204.969495	48.734965
3206.105666	45.716783
3207.243154	46.108392
3208.378994	44.250350
3209.516151	41.282517
3210.648695	41.390210
3211.785521	39.058741
3212.917735	39.346154
3214.051266	38.233566
3215.184633	39.895804
3216.314872	40.763636
3217.447909	46.326573
3218.577820	49.093706
3219.709047	44.038462
3220.837150	46.118881
3221.968049	45.647552
3223.097304	46.534965
3224.224916	45.872028
3225.349405	45.579021
3226.478170	44.040559
3227.603813	42.528671
3228.729294	43.221678
3229.853133	42.868531
3230.979766	46.316084
3232.101802	47.476923
3233.225154	51.214685
3234.348344	53.344755
3235.471372	55.357343
3236.592760	58.363636
3237.713986	57.067832
3238.833575	57.453147
3239.953002	55.209091
3241.070791	53.532168
3242.191372	49.768531
3243.308840	45.529371
3244.426147	46.764336
3245.543294	48.905594
3246.658805	51.006993
3247.775630	50.219580
3248.889346	46.895804
3250.005851	49.888112
3251.120722	46.943357
3252.232484	48.599301
3253.344086	48.132168
3254.457004	45.391608
3255.569762	44.034965
3256.679414	43.965734
3257.790381	47.002098
3258.901189	51.004895
3260.010365	51.488811
3261.117911	49.319580
3262.226770	47.847552
3263.335472	50.372727
3264.441071	47.410490
3265.547984	40.534266
3266.653268	38.500000
3267.759866	33.513287
3268.863364	31.567832
3269.968177	30.265734
3271.072832	30.051049
3272.174388	29.628671
3273.275788	29.415385
3274.378502	31.690909
3275.481060	36.175524
3276.580521	38.709091
3277.682766	38.841259
3278.781915	34.839860
3279.879440	40.293007
3280.976809	42.639161
3282.076960	42.439860
3283.174019	44.905594
3284.270922	42.068531
3285.367670	39.844755
3286.459860	38.337762
3287.556298	38.713287
3288.651114	38.921678
3289.745776	37.697902
3290.838816	35.723077
3291.931701	36.656643
3293.022967	41.349650
3294.115544	43.032867
3295.206502	45.382517
3296.295840	49.705594
3297.385025	53.611189
3298.475523	52.908392
3299.562936	55.813986
3300.650196	57.967832
3301.738769	57.532168
3302.827190	52.851748
3303.911063	45.172727
3304.999178	38.534965
3306.084211	34.159441
3307.167629	28.300699
3308.252359	26.816783
3309.335473	26.182517
3310.419900	30.885315
3311.501248	28.549650
3312.583908	35.338462
3313.664954	35.677622
3314.745849	37.384615
3315.825130	37.483217
3316.904261	32.749650
3317.984704	30.024476
3319.062072	34.096503
3320.140752	35.035664
3321.217820	36.884615
3322.294739	39.359441
3323.370046	40.588112
3324.445204	36.406993
3325.521673	36.818182
3326.595072	36.002797
3327.668322	36.266434
3328.742882	36.974825
3329.815834	32.991608
3330.887177	34.641259
3331.959831	38.174126
3333.029419	36.417483
3334.100317	37.257343
3335.169608	34.833566
3336.240210	28.774126
3337.309205	23.558741
3338.376594	23.104895
3339.442378	23.663636
3340.512388	20.411888
3341.579335	22.337762
3342.643220	26.820280
3343.709873	35.736364
3344.774921	36.117483
3345.838366	34.465734
3346.901665	36.791608
3347.964817	36.990909
3349.027823	37.643357
3350.090683	37.046853
3351.151941	37.504196
3352.210142	36.051748
3353.272563	34.797203
3354.331929	36.453147
3355.391149	40.504196
3356.451679	40.730769
3357.507699	39.893007
3358.566483	38.579720
3359.620760	37.991608
3360.677801	32.498601
3361.733243	28.604196
3362.789995	26.963636
3363.845148	26.367832
3364.898704	28.251049
3365.950664	29.033566
3367.005385	28.243357
3368.057057	28.712587
3369.108586	30.669231
3370.161423	34.939161
3371.211213	35.442657
3372.262312	32.559441
3373.310365	27.974126
3374.361177	25.899301
3375.408945	25.808392
3376.456570	21.309790
3377.504052	19.927972
3378.549942	19.193706
3379.597140	17.739161
3380.641296	18.104196
3381.688210	23.990210
3382.733532	24.459441
3383.775813	27.818182
3384.817954	27.273427
3385.861402	30.236364
3386.904709	32.284615
3387.946427	31.017483
3388.988003	28.948252
3390.029438	32.262937
3391.069285	33.647552
3392.107543	36.336364
3393.147109	35.803497
3394.186535	36.209790
3395.224373	32.593706
3396.260624	34.405594
3397.296736	33.216084
3398.334155	35.093706
3399.368541	34.510490
3400.404234	29.334965
3401.439788	26.652448
3402.472311	24.762238
3403.507587	23.689510
3404.539832	26.567133
3405.571939	24.637762
3406.602462	25.137762
3407.634292	29.568531
3408.665984	32.557343
3409.694648	36.213287
3410.723175	35.455944
3411.753008	32.560839
3412.782704	29.126573
3413.809374	28.543357
3414.837351	25.286014
3415.862303	26.220280
3416.890005	22.188811
3417.914684	21.251748
3418.940669	22.737762
3419.965074	26.930769
3420.989343	26.933566
3422.012033	32.720280
3423.034587	34.100699
3424.058447	35.428671
3425.079287	36.415385
3426.099991	35.924076
3427.122002	35.781144
3428.140994	36.582218
3429.159850	38.922927
3430.180013	43.398901
3431.197159	50.605769
