-118.047834	-3.317679
-115.378234	-0.956648
-112.711569	1.081009
-110.045656	2.814447
-107.382675	4.262823
-104.718265	5.445293
-102.056785	6.381014
-99.393875	7.089141
-96.736073	7.588832
-94.076840	7.899241
-91.418357	8.039526
-88.762797	8.028843
-86.105809	7.886347
-83.453918	7.631195
-80.800598	7.282544
-78.150198	6.859549
-75.498368	6.381367
-72.851629	5.867154
-70.203460	5.336066
-67.556035	4.807260
-64.911523	4.299891
-62.265583	1.227030
-59.624724	-8.867499
-56.982436	-38.804677
-54.343056	-109.180383
-51.702248	-168.171417
-49.062180	-150.114591
-46.427184	-90.318539
-43.790760	-29.376334
-41.157238	28.521894
-38.522288	83.496012
-35.892403	135.828204
-33.258926	183.226742
-30.630511	226.316567
-28.002829	266.713482
-25.373720	303.293228
-22.749667	336.884532
-20.122025	366.115760
-17.499436	391.579646
-14.877579	413.913443
-12.256452	432.176657
-9.636055	446.593861
-7.018546	456.218186
-4.399609	463.106724
-1.783558	465.571199
0.831765	465.261722
3.446361	461.296571
6.058074	453.269109
8.671216	441.680907
11.279324	426.651180
13.891014	407.144025
16.497673	384.720031
19.105760	359.074641
21.713123	329.327894
24.315461	294.795192
26.921377	257.607963
29.522271	216.906187
32.124593	172.038963
34.721898	124.083669
37.322778	72.498390
39.918644	17.341647
42.515937	-40.042489
45.112511	-98.325926
47.704076	-148.363786
50.297069	-170.078319
52.887201	-121.944317
55.478761	-40.541769
58.067461	-3.318225
60.657588	0.150630
63.242717	1.423317
65.829272	1.250469
68.415114	1.605266
70.998102	0.818631
73.582516	0.699241
76.159802	-0.230686
78.740654	-0.482443
81.318657	-1.179196
83.895950	-3.391806
86.474669	-4.927802
89.048407	-7.723784
91.623571	-9.489860
94.195892	-10.242013
96.767505	-11.310118
99.336278	-10.315328
101.906478	-8.169401
104.473840	-4.078677
107.042627	0.974423
109.608578	6.523046
112.171694	13.468869
114.738366	21.994005
117.295817	30.843331
119.858953	41.253440
122.417130	51.201339
124.978860	61.490510
127.535634	71.279550
130.093835	83.675248
132.647083	95.120101
135.199632	106.493499
137.755732	118.986208
140.306885	131.326371
142.857339	142.955365
145.407096	153.738671
147.954035	164.066124
150.500277	175.183455
153.047945	184.977826
155.594917	194.031018
158.136954	201.038702
160.678297	208.508408
163.218947	215.152904
165.761023	221.014006
168.300287	224.778865
170.836743	227.975784
173.372507	228.557694
175.909697	229.143200
178.446196	228.393512
180.979889	227.340316
183.510779	224.206597
186.040980	220.905157
188.572606	218.708382
191.101431	215.750980
193.627457	213.266203
196.152797	210.575588
198.679563	208.138152
201.203531	207.777700
203.726815	207.446852
206.249414	208.562511
208.769220	208.356482
211.288343	208.611039
213.806783	209.364161
216.326647	210.167398
218.839510	210.562350
221.355904	211.157049
223.871616	210.940390
226.382438	211.158785
228.894686	211.598272
231.404150	213.670265
233.912936	213.984995
236.421044	214.771844
238.930575	216.395855
241.435226	216.863956
243.939202	217.407684
246.444601	218.008190
248.945125	219.149247
251.449172	220.581627
253.946249	221.388656
256.446848	221.820516
258.944676	222.905087
261.441831	224.306344
263.938313	224.222641
266.429932	224.166569
268.925071	223.330643
271.417444	221.963742
273.909146	221.736302
276.398084	223.735058
278.888447	225.990244
281.376047	228.393198
283.860888	231.794223
286.349244	235.980261
288.830660	238.827501
291.315590	241.600415
293.795675	243.323740
296.279272	246.886806
298.758026	250.087456
301.238204	252.694843
303.715629	256.196492
306.192391	259.382722
308.668490	260.571041
311.141840	262.198464
313.614528	263.604983
316.086555	266.237510
318.557921	267.586636
321.026543	268.260286
323.494505	268.993669
325.963889	270.371513
328.428451	271.726458
330.896517	272.260151
333.359763	271.858144
335.822351	271.634138
338.284283	271.824809
340.745558	270.996920
343.204099	270.918845
345.664062	269.396243
348.121292	267.707431
350.577868	266.214102
353.033790	264.666918
355.486983	262.709992
357.941597	260.238706
360.391410	257.722283
362.844719	254.535067
365.293230	253.163812
367.741090	250.545460
370.190371	250.764501
372.634859	251.571644
375.080769	253.814865
377.526030	254.127964
379.968571	254.289768
382.410465	254.365173
384.851712	254.520524
387.290243	253.725586
389.730196	254.250190
392.167435	254.185767
394.601962	254.972974
397.039977	253.823509
399.473215	253.891492
401.907875	254.367869
404.337761	253.615341
406.771133	253.367058
409.199735	254.115454
411.627696	255.934766
414.057077	256.926458
416.481693	257.208853
418.907731	257.859143
421.333128	259.130529
423.757885	260.788062
426.177884	261.229142
428.599304	261.866552
431.018027	262.139212
433.438171	262.481264
435.855620	262.599236
438.274489	262.322540
440.690665	262.012841
443.102094	261.044544
445.516999	260.727890
447.929214	260.613234
450.340795	260.829788
452.751742	260.400912
455.160003	259.626938
457.567631	259.277141
459.974628	258.991357
462.380992	258.190746
464.784674	256.302182
467.187726	256.100079
469.590148	253.819346
471.991941	251.344526
474.391055	248.203600
476.791589	245.315193
479.191494	241.954431
481.586676	238.902714
483.985325	234.537502
486.379254	230.833946
488.772557	226.753611
491.165234	221.716519
493.557286	217.033928
495.950756	212.162869
498.339515	207.135407
500.725607	203.267612
503.113118	198.871556
505.500007	194.521672
507.884232	190.122750
510.269876	185.115742
512.652857	180.601414
515.033178	175.724128
517.414918	171.231498
519.793999	167.334151
522.174499	162.011794
524.552341	158.552131
526.927528	154.247114
529.302097	150.483272
531.678085	147.633876
534.051419	144.901392
536.426171	142.241350
538.796238	140.193255
541.165689	138.082530
543.536558	136.266142
545.902747	134.334814
548.270354	132.995462
550.635315	132.117156
552.999663	130.904368
555.363399	129.829923
557.728552	128.206728
560.089032	127.888219
562.450931	127.151180
564.810190	126.378280
567.166810	126.128740
569.526875	125.782373
571.880250	125.103303
574.237069	124.513548
576.591252	124.372355
578.944828	123.360269
581.297795	122.880754
583.648131	122.064920
585.999883	121.696383
588.344959	121.555801
590.695499	120.701043
593.039365	120.755543
595.388693	121.119438
597.733373	119.509289
600.075427	118.689275
602.418899	117.991213
604.759748	117.143933
607.099995	115.772608
609.437621	115.196758
611.778682	114.990606
614.115105	115.468131
616.452945	115.099987
618.788168	115.079100
621.120775	113.540106
623.454798	112.359091
625.786208	112.309918
628.117019	110.938837
630.447232	109.550225
632.776847	108.411161
635.101840	106.130254
637.432274	105.120677
639.758086	103.630996
642.081292	103.474379
644.405913	102.397020
646.727929	101.823544
649.049352	101.327379
651.368171	100.764693
653.688406	100.046468
656.008048	99.486513
658.325089	98.455731
660.641538	97.770160
662.955389	96.841298
665.270656	96.838348
667.583326	96.043183
669.897411	94.831598
672.206896	93.376125
674.517797	93.013037
676.826105	92.578171
679.133825	91.824691
681.442960	91.047175
683.747502	90.592617
686.051457	89.320088
688.354827	88.357808
690.659611	87.282700
692.959809	87.383088
695.261421	87.145988
697.562449	86.833553
699.858894	87.032257
702.156755	87.398364
704.454032	87.880396
706.750726	87.608639
709.042844	87.323954
711.338373	87.403661
713.629329	87.268637
715.921699	87.772364
718.211493	88.143087
720.500707	88.082949
722.789342	88.001453
725.075405	88.084066
727.362881	87.796418
729.647786	88.589725
731.932114	89.107047
734.213873	90.467686
736.497046	90.792792
738.779642	92.038021
741.057683	92.207924
743.337137	92.354941
745.616016	93.838025
747.894319	94.707518
750.168073	94.758345
752.443241	96.512413
754.717835	97.650779
756.989869	98.047965
759.263317	98.126742
761.534207	98.001479
763.802541	98.372403
766.072288	100.084703
768.339481	99.673515
770.606103	100.006082
772.872155	100.917723
775.135656	101.322741
777.400570	101.273694
779.664914	102.176421
781.924729	102.866386
784.185957	103.553174
786.446616	102.684982
788.704730	103.104952
790.960299	103.005319
793.219259	102.670636
795.471720	102.572708
797.729548	102.603848
799.982856	102.361473
802.233625	102.088027
804.485806	100.828317
806.735449	100.025717
808.986503	98.518208
811.233046	96.937558
813.481001	95.525721
815.726422	94.456438
817.973254	93.944753
820.219525	92.931738
822.461292	92.253589
824.706441	91.932152
826.945118	91.027785
829.187177	90.071089
831.424738	88.727964
833.663711	88.084210
835.900157	87.550892
838.138014	86.645128
840.373346	85.692975
842.606155	85.254680
844.840375	84.850076
847.072073	84.242153
849.303215	83.749932
851.533804	83.830726
853.763837	84.342301
855.993317	83.691479
858.218315	82.650452
860.446688	83.577892
862.670582	83.510476
864.895886	83.237231
867.116715	83.510864
869.340916	82.975248
871.560644	83.384978
873.781783	84.331035
876.002371	83.864737
878.220449	84.513063
880.439938	84.819826
882.654959	85.563105
884.869434	85.978830
887.083360	86.379716
889.296740	86.006663
891.509572	86.309494
893.721858	85.655456
895.931641	85.991841
898.140879	85.488490
900.349572	84.925350
902.555766	84.740133
904.763369	84.184506
906.968474	84.288778
909.173036	83.335237
911.375103	83.335887
913.578579	83.762529
915.779561	82.649959
917.980002	82.772499
920.181850	83.129421
922.377308	83.565308
924.576125	83.129613
926.770503	84.220734
928.968239	82.906244
931.161539	83.761538
933.356248	84.686396
935.548471	84.470915
937.740156	84.983546
939.931303	86.001339
942.119967	86.170143
944.308094	87.564950
946.493741	89.152275
948.682740	90.582604
950.867316	92.118674
953.051357	93.391431
955.238748	95.425656
957.417835	96.970173
959.600273	99.104887
961.782177	100.593782
963.961607	101.561338
966.138563	103.694284
968.316928	106.091138
970.496700	107.441935
972.670123	108.904765
974.846892	111.161700
977.019254	112.986068
979.193024	114.042275
981.362390	114.440809
983.535101	115.973816
985.705345	117.247210
987.875061	117.422409
990.044248	118.326794
992.209038	119.190506
994.377169	120.547463
996.540906	120.766875
998.706049	121.341376
1000.868734	123.301017
1003.030892	123.363310
1005.190594	124.548929
1007.349772	124.901920
1009.510356	126.039675
1011.668485	126.592596
1013.826090	128.473773
1015.983172	128.829770
1018.139731	131.542275
1020.291910	132.932301
1022.445495	134.855770
1024.598559	136.690327
1026.749175	138.539779
1028.901196	139.830521
1031.048844	142.360400
1033.199824	143.712557
1035.346433	146.019770
1037.492524	146.593084
1039.638095	147.552214
1041.785072	149.222379
1043.925760	150.101165
1046.069778	150.976596
1048.211355	152.400842
1050.352416	152.913570
1052.494881	153.760360
1054.631067	153.540665
1056.770579	153.208238
1058.905735	153.468450
1061.044216	153.513334
1063.178343	153.267752
1065.311957	151.883376
1067.446976	151.198176
1069.577645	150.581155
1071.709719	148.944675
1073.839364	146.372704
1075.968497	145.427650
1078.097118	143.230106
1080.225228	141.436315
1082.350912	139.815664
1084.476086	138.267346
1086.602664	137.217710
1088.724905	135.063354
1090.848549	134.254221
1092.967860	132.904952
1095.092399	132.005218
1097.210693	130.687914
1099.330392	130.284912
1101.447672	128.373297
1103.564446	127.996610
1105.680713	127.500916
1107.794565	126.112823
1109.909820	124.561194
1112.020753	123.887268
1114.134997	122.724713
1116.244921	122.747960
1118.356249	121.639884
1120.467072	120.281016
1122.573579	118.972861
1124.683396	119.015734
1126.788898	118.541956
1128.895803	118.012797
1130.996493	117.277503
1133.102395	116.697544
1135.203988	115.132798
1137.306984	114.998438
1139.409479	113.977333
1141.505767	113.812898
1143.607263	113.138811
1145.704456	113.036559
1147.801150	113.143645
1149.897346	111.856207
1151.993045	110.757389
1154.088245	110.110843
1156.181050	108.915489
1158.275256	108.317274
1160.363271	108.067014
1162.456484	106.350055
1164.543509	106.075527
1166.633833	105.853357
1168.719870	105.547995
1170.809204	104.714111
1172.892357	104.452982
1174.976912	104.214281
1177.062869	103.256368
1179.144544	103.337305
1181.227621	103.507732
1183.308312	103.195563
1185.388511	103.205677
1187.468219	104.367852
1189.547436	104.398621
1191.624271	102.847349
1193.698725	102.864968
1195.776470	102.832916
1197.849946	102.604158
1199.924822	102.235002
1201.995431	101.479057
1204.067442	101.635857
1206.137076	101.621611
1208.208111	101.740364
1210.278658	101.382512
1212.344944	100.834748
1214.412631	99.551481
1216.477946	100.248226
1218.544661	99.984319
1220.607120	100.462010
1222.672864	99.762607
1224.734355	100.060500
1226.797245	99.311593
1228.857768	98.982486
1230.917807	99.213779
1232.977364	98.388660
1235.034555	98.081151
1237.091265	98.432981
1239.145612	97.931812
1241.203239	98.111628
1243.258504	97.882032
1245.309528	96.991326
1247.361952	97.177813
1249.413896	97.506126
1251.463482	97.967813
1253.512589	97.942689
1255.561218	98.755452
1257.609368	99.384567
1259.657039	99.503853
1261.700481	99.967691
1263.747197	100.330503
1265.791560	100.451014
1267.835447	101.200484
1269.876982	101.527562
1271.916168	101.244033
1273.958627	101.098486
1275.996863	102.825516
1278.036498	103.619359
1280.075658	104.854771
1282.110599	105.529478
1284.146939	107.081954
1286.180935	109.311981
1288.216329	110.544814
1290.247509	112.075012
1292.280088	113.669929
1294.312194	116.345757
1296.341960	120.054527
1298.373124	124.403534
1300.400080	127.658078
1302.428434	131.983324
1304.452584	136.022405
1306.479998	141.312688
1308.503210	145.193748
1310.527820	149.910336
1312.550096	155.709001
1314.573769	161.114054
1316.595109	166.340565
1318.615981	171.696972
1320.636386	176.515546
1322.652598	180.799542
1324.670207	184.298927
1326.685488	187.506929
1328.704028	190.980305
1330.718379	194.095126
1332.730404	196.606191
1334.745686	197.262014
1336.756783	197.829312
1338.769277	197.669401
1340.777588	196.691021
1342.789155	194.803818
1344.794682	192.912906
1346.803465	190.402500
1348.808070	187.314416
1350.815929	183.640229
1352.823326	178.400362
1354.824692	174.653270
1356.827455	170.399769
1358.829757	164.703761
1360.831600	160.090475
1362.832983	153.963633
1364.832053	149.068424
1366.830664	143.657162
1368.828817	138.356612
1370.826511	133.507557
1372.820043	128.755666
1374.814971	124.952699
1376.809441	121.371098
1378.803456	117.736214
1380.795162	113.749143
1382.786414	110.760544
1384.775360	108.608831
1386.765701	106.357708
1388.755587	104.604507
1390.743170	103.320974
1392.730298	103.119613
1394.715125	101.792875
1396.701347	100.536603
1398.685269	100.476260
1400.668738	99.348301
1402.651755	98.760068
1404.632473	98.117793
1406.614587	97.863764
1408.594403	97.615773
1410.573769	97.855984
1412.548995	97.233313
1414.527461	96.389821
1416.503632	96.532083
1418.479355	96.170893
1420.454628	95.808897
1422.427610	96.061713
1424.400144	95.839325
1426.372231	95.180675
1428.343869	94.792945
1430.311379	94.526450
1432.283964	94.645927
1434.248742	95.504350
1436.218592	95.143492
1438.184319	94.656861
1440.151438	95.106951
1442.116274	94.911261
1444.076990	95.108356
1446.042775	94.750827
1448.002604	94.650015
1449.963826	94.210581
1451.926441	94.187543
1453.884941	94.548357
1455.842998	94.428976
1457.800614	94.188752
1459.757788	93.450766
1461.712686	93.329613
1463.668976	94.049793
1465.622992	94.178551
1467.576568	93.960993
1469.527871	93.727353
1471.480566	93.468332
1473.430990	92.903251
1475.380974	93.127924
1477.330520	94.102304
1479.277797	93.470797
1481.222807	93.860989
1483.169208	93.973716
1485.115172	94.888158
1487.060699	94.763890
1489.003961	94.935006
1490.946786	94.908220
1492.887348	95.780850
1494.829301	96.039736
1496.768992	96.447057
1498.708249	96.881749
1500.647070	97.468192
1502.583632	97.585562
1504.521585	97.890375
1506.457279	98.612505
1508.392540	98.862232
1510.325545	99.290466
1512.258117	98.004634
1514.190257	98.100218
1516.121965	99.058432
1518.051419	99.999908
1519.982264	101.042829
1521.912677	102.522152
1523.839018	104.281448
1525.766750	105.844937
1527.692231	107.215319
1529.617283	108.571020
1531.541906	110.958960
1533.466100	112.131000
1535.388047	114.789035
1537.311383	117.602369
1539.232474	120.929857
1541.151320	124.685741
1543.071556	127.950818
1544.989548	130.841014
1546.907114	134.710035
1548.822438	137.467817
1550.739152	141.019599
1552.651811	144.136799
1554.567674	148.486924
1556.481297	151.204520
1558.392683	154.304036
1560.305457	156.939251
1562.214182	159.480322
1564.124297	161.458571
1566.033987	163.328644
1567.943255	165.276901
1569.850289	166.150264
1571.755090	167.262948
1573.661280	167.600659
1575.565238	167.950997
1577.468776	167.029377
1579.371892	166.566783
1581.272780	164.805018
1583.175055	163.145687
1585.075103	161.723718
1586.976538	159.792766
1588.873940	157.840429
1590.770923	156.998381
1592.667488	155.813308
1594.565441	152.784162
1596.457559	149.845006
1598.352870	147.793769
1600.247764	144.957551
1602.140436	142.203390
1604.032692	138.836716
1605.922727	137.068921
1607.812348	134.987997
1609.701552	131.313714
1611.590342	129.279336
1613.476914	126.909808
1615.364874	123.688006
1617.248817	120.967520
1619.134148	118.849679
1621.019064	116.087971
1622.901767	113.825791
1624.785857	110.930481
1626.665936	109.113932
1628.547401	107.113522
1630.426656	105.834269
1632.307297	102.953593
1634.182134	100.548575
1636.061953	99.069000
1637.937766	96.797094
1639.813169	94.768594
1641.689958	92.046245
1643.560951	90.824992
1645.435125	88.804272
1647.305301	86.832484
1649.178657	85.540722
1651.049810	84.901998
1652.918761	83.451045
1654.789098	83.271015
1656.655441	82.497657
1658.523170	81.609115
1660.388701	81.627990
1662.255616	81.119604
1664.118543	80.305140
1665.982855	79.699983
1667.844971	79.606231
1669.706683	78.665234
1671.569779	78.999306
1673.430681	79.796091
1675.289389	79.155775
1677.147694	79.093320
1679.007384	78.432785
1680.861307	77.785313
1682.718402	77.184951
1684.575095	76.315232
1686.427812	75.935185
1688.283699	76.168768
1690.135613	75.410891
1691.987126	75.549509
1693.838238	75.738531
1695.688950	75.647000
1697.539261	76.047877
1699.387388	75.985139
1701.236898	76.197081
1703.080660	75.806885
1704.929371	75.112457
1706.772337	74.679768
1708.618468	74.596309
1710.460638	74.609049
1712.305972	74.072254
1714.145566	74.057952
1715.986544	73.766469
1717.828905	74.705524
1719.667310	74.829390
1721.507098	74.997740
1723.344711	75.529652
1725.181928	73.998359
1727.016972	73.864964
1728.853399	73.495768
1730.687654	73.413316
1732.521514	72.909006
1734.354981	73.645814
1736.184501	73.536437
1738.017180	72.655879
1739.845915	73.414861
1741.677808	73.797692
1743.505758	73.505550
1745.333316	72.450343
1747.160482	71.979454
1748.987257	71.472464
1750.813641	71.546848
1752.636087	71.145792
1754.461689	71.128793
1756.283356	71.796601
1758.106405	71.233924
1759.927292	71.386256
1761.747791	71.016707
1763.569671	71.218491
1765.385851	71.063450
1767.205183	71.293796
1769.020588	71.570819
1770.839143	71.751542
1772.653773	71.498503
1774.468017	71.247074
1776.281873	71.883520
1778.095343	72.503661
1779.906660	72.075125
1781.719358	72.631655
1783.531669	72.360574
1785.340063	72.257681
1787.149837	71.836651
1788.955697	72.171862
1790.764702	71.634530
1792.569794	71.298377
1794.376267	70.542886
1796.182356	70.448698
1797.984535	70.681832
1799.789857	72.053772
1801.591271	71.940861
1803.394065	72.805563
1805.192953	73.390218
1806.993222	73.967520
1808.793109	73.820010
1810.590855	74.133714
1812.388219	74.587360
1814.185204	74.729521
1815.981808	74.677927
1817.776273	74.578681
1819.572117	75.590266
1821.362307	75.731031
1823.157392	76.880571
1824.946826	77.286452
1826.739396	77.137698
1828.529831	77.523099
1830.318132	77.088547
1832.109568	77.523230
1833.895358	76.641001
1835.682528	76.558641
1837.467566	76.420027
1839.255738	76.947607
1841.040024	76.786609
1842.822181	76.650395
1844.605716	76.460779
1846.387123	76.594843
1848.169909	76.182395
1849.948814	75.596675
1851.729099	73.997352
1853.507257	75.205999
1855.286794	74.230987
1857.064206	74.453977
1858.839494	74.313286
1860.616161	74.558484
1862.390704	73.952825
1864.166626	74.795257
1865.936927	74.764510
1867.710356	74.758493
1869.481665	74.877848
1871.252604	75.249252
1873.024919	75.239635
1874.791621	75.125411
1876.561449	74.731153
1878.327413	74.816672
1880.096501	74.116489
1881.861727	73.790855
1883.626584	73.212374
1885.392819	73.549278
1887.155195	72.974323
1888.917204	72.458737
1890.678845	71.907365
1892.440120	72.077499
1894.201027	72.247245
1895.961568	71.844985
1897.719999	71.088411
1899.478065	71.298665
1901.234022	70.083760
1902.991356	69.984916
1904.748325	68.591802
1906.503188	68.680060
1908.255945	69.070548
1910.008339	69.533950
1911.762108	69.725101
1913.513774	70.230826
1915.263338	70.285667
1917.014277	70.159907
1918.764854	69.629294
1920.511591	70.198556
1922.259705	70.471679
1924.005719	71.613199
1925.753109	70.367023
1927.498400	70.876338
1929.241594	70.925184
1930.986163	70.959287
1932.728637	70.788878
1934.470750	71.605912
1936.212503	71.575645
1937.953897	71.834587
1939.693196	72.461914
1941.432137	72.631520
1943.170720	71.948798
1944.907210	71.399188
1946.643343	71.458122
1948.380850	71.049212
1950.114535	70.290000
1951.849595	69.867106
1953.582567	69.822915
1955.315182	70.211920
1957.047440	69.571460
1958.779342	70.494201
1960.509158	70.542777
1962.236889	70.585427
1963.965995	70.384262
1965.694746	70.143239
1967.421413	69.052210
1969.147726	69.925826
1970.875412	69.083917
1972.597562	69.487617
1974.322813	70.606811
1976.044258	71.236734
1977.768802	72.164593
1979.491267	72.261613
1981.209928	71.634556
1982.931688	71.972185
1984.649646	72.411789
1986.368977	72.120804
1988.084509	72.459994
1989.804861	72.873782
1991.521415	73.229783
1993.234172	73.807609
1994.950026	73.618177
1996.663806	74.744574
1998.377237	74.978140
2000.088597	75.331367
2001.801330	75.474078
2003.510271	75.501972
2005.222306	75.450268
2006.928831	75.760784
2008.638449	75.184733
2010.345999	75.173140
2012.053202	74.043981
2013.758339	74.068829
2015.463129	74.235224
2017.169291	73.920236
2018.871671	73.893398
2020.575423	73.067739
2022.277111	73.227475
2023.978455	73.164318
2025.679453	72.825896
2027.378391	73.070893
2029.078699	71.168101
2030.775233	70.699638
2032.473138	70.314926
2034.168984	70.074301
2035.867916	69.879698
2037.561362	70.113417
2039.256179	69.502775
2040.950654	70.032824
2042.641360	69.935298
2044.335150	69.093233
2046.025173	69.890964
2047.716567	70.220058
2049.405908	70.602827
2051.096619	71.235342
2052.783567	71.353266
2054.470176	70.934522
2056.158155	70.420337
2057.842374	71.666949
2059.527963	72.975749
2061.213213	73.107212
2062.896415	72.542458
2064.580986	72.729582
2066.260095	72.895253
2067.943989	73.099485
2069.622423	73.307762
2071.303933	74.238099
2072.981693	74.797949
2074.659115	74.909202
2076.337907	74.256390
2078.014657	74.230259
2079.689365	73.522374
2081.365442	73.878341
2083.039479	72.908526
2084.713180	72.211658
2086.386546	72.254418
2088.057874	72.055945
2089.728867	72.753392
2091.399526	72.786705
2093.069850	72.147568
2094.739841	72.515969
2096.407796	72.131136
2098.075418	72.767246
2099.741005	72.414547
2101.407962	72.544461
2103.072884	73.434692
2104.737475	72.620747
2106.400034	73.239090
2108.063961	73.410555
2109.725858	73.439544
2111.387423	73.822034
2113.048657	74.776997
2114.707863	74.535918
2116.366738	73.568912
2118.025284	73.734408
2119.683500	74.098364
2121.337992	74.276011
2122.995549	73.778860
2124.652777	75.278106
2126.306283	75.179798
2127.961157	73.715777
2129.612313	73.521659
2131.266530	74.149138
2132.917031	74.031912
2134.568898	74.881653
2136.215357	75.358999
2137.866571	75.836119
2139.514071	74.835682
2141.162938	73.824037
2142.809787	73.120703
2144.456309	73.086662
2146.102506	73.389267
2147.744995	73.150604
2149.390542	73.548702
2151.032382	74.093739
2152.677279	74.100227
2154.318471	73.814394
2155.959339	74.451857
2157.599883	74.662158
2159.238415	74.777041
2160.878313	75.757812
2162.514511	74.760299
2164.152076	74.850508
2165.789317	74.419931
2167.424549	74.694406
2169.059460	74.798896
2170.694049	74.105149
2172.328316	74.933549
2173.958890	74.663057
2175.592516	74.431485
2177.222450	74.687264
2178.853749	74.573707
2180.483043	74.371089
2182.112018	74.561861
2183.740673	74.327846
2185.369010	74.457895
2186.995343	75.082944
2188.621358	74.268197
2190.245372	74.719560
2191.870750	74.722078
2193.494129	73.934810
2195.118871	74.241612
2196.739933	74.881888
2198.360678	74.414403
2199.982788	74.975828
2201.602900	74.299302
2203.221015	73.858615
2204.838815	73.137733
2206.456300	72.949461
2208.073469	73.630006
2209.690323	73.739295
2211.306862	73.812762
2212.921407	74.131795
2214.533960	74.748523
2216.147877	74.000567
2217.759803	74.503909
2219.373092	75.450801
2220.984391	76.650068
2222.593700	76.681675
2224.204373	75.663847
2225.813057	75.997465
2227.421429	75.603451
2229.027813	76.317296
2230.635561	76.539932
2232.241322	76.915620
2233.846772	76.484218
2235.450237	77.003957
2237.055065	76.990999
2238.657909	76.496361
2240.258771	76.036516
2241.860994	76.457114
2243.461236	75.632816
2245.062840	75.874820
2246.660792	75.652515
2248.260106	74.994952
2249.857440	75.969340
2251.454465	76.028618
2253.052853	75.083376
2254.647592	75.778930
2256.240354	75.392299
2257.834479	74.793796
2259.429965	74.762354
2261.021807	74.757496
2262.613342	74.066028
2264.206238	73.440030
2265.793825	73.015851
2267.386109	72.366336
2268.973085	72.175147
2270.563090	72.758046
2272.147790	72.439168
2273.737183	72.410007
2275.321275	73.183066
2276.906728	72.997633
2278.490211	73.035905
2280.076721	73.039232
2281.659597	73.282818
2283.242169	73.454464
2284.824438	73.769719
2286.403078	72.401734
2287.984741	72.487766
2289.562776	73.331317
2291.143834	72.515943
2292.721265	72.747273
2294.296733	71.805114
2295.875223	70.515509
2297.450089	70.095785
2299.024654	70.393649
2300.598919	70.637842
2302.172883	70.769364
2303.746547	71.014547
2305.319910	71.482056
2306.889655	71.419263
2308.459101	72.619314
2310.031565	73.614996
2311.598755	74.174203
2313.168963	74.561909
2314.735556	75.244363
2316.303509	75.829836
2317.869506	76.507110
2319.435206	76.098578
2321.000609	76.710788
2322.564057	76.575344
2324.128865	76.397493
2325.690065	76.019263
2327.254279	76.176295
2328.813231	76.521729
2330.375198	76.464484
2331.935214	76.563388
2333.494934	77.062424
2335.052705	75.890933
2336.610181	75.899769
2338.167363	75.922793
2339.722597	75.152206
2341.277538	74.817662
2342.832185	75.008172
2344.386538	74.058702
2345.940597	73.868559
2347.494362	73.190859
2349.046184	72.430922
2350.596062	72.804852
2352.148948	72.035416
2353.696592	71.372734
2355.247243	70.956115
2356.794303	69.751106
2358.342722	69.549095
2359.890848	70.326751
2361.435386	70.165675
2362.981282	70.442969
2364.525240	70.311261
2366.070555	70.153061
2367.612285	70.948671
2369.155372	72.004084
2370.696524	72.278673
2372.237386	72.185270
2373.777959	71.866953
2375.318242	72.932301
2376.858237	73.589755
2378.394654	73.562590
2379.934072	74.135996
2381.469913	73.850927
2383.007110	74.114678
2384.540732	74.126528
2386.077355	74.750382
2387.612046	75.585837
2389.144808	75.324019
2390.677283	74.879406
2392.207830	75.333461
2393.741376	75.155600
2395.269709	75.728448
2396.799400	75.581958
2398.328805	76.683398
2399.857924	77.251525
2401.386759	76.976002
2402.910388	76.941306
2404.438654	77.998730
2405.961716	77.759597
2407.489412	78.586915
2409.010269	78.926877
2410.535759	78.700257
2412.057688	78.470383
2413.580973	77.983005
2415.102337	77.232096
2416.621781	77.109582
2418.142580	76.422497
2419.661460	76.704045
2421.180058	76.469894
2422.696739	76.049719
2424.214774	76.233837
2425.732528	76.796064
2427.246731	77.495379
2428.760653	77.318487
2430.274295	76.854832
2431.789292	76.030010
2433.300740	75.732938
2434.813543	75.731328
2436.324432	76.089524
2437.835043	75.376866
2439.343742	75.553366
2440.855427	75.170021
2442.363569	74.315249
2443.871433	74.397714
2445.379019	74.504865
2446.883064	74.574720
2448.390095	74.418797
2449.895217	73.934866
2451.400062	74.673594
2452.902999	75.259287
2454.405661	75.101802
2455.908046	75.127052
2457.408526	75.501379
2458.910359	75.490671
2460.410288	75.007998
2461.909941	75.627396
2463.409318	75.372141
2464.906793	75.599215
2466.402366	75.061172
2467.900919	74.371334
2469.395944	74.125878
2470.892322	73.933191
2472.385172	74.655705
2473.879376	75.032161
2475.373306	75.666661
2476.863712	76.078380
2478.357096	76.034081
2479.848582	76.556752
2481.338171	76.199948
2482.827488	77.044234
2484.314910	77.173197
2485.805307	77.517893
2487.292185	77.037654
2488.780415	76.436956
2490.265129	76.070610
2491.749572	76.000423
2493.235367	75.313146
2494.719269	75.676923
2496.204523	75.837183
2497.684642	75.819700
2499.167735	75.765142
2500.648937	75.969130
2502.129870	75.061172
2503.608914	75.022427
2505.087689	74.819848
2506.566196	75.263436
2508.044435	74.664715
2509.522405	74.877809
2510.996871	74.387888
2512.474305	74.232017
2513.948236	74.307718
2515.423517	74.368755
2516.898532	74.830311
2518.370045	74.287377
2519.842908	74.061565
2521.313889	74.311056
2522.786220	73.126022
2524.253438	74.082006
2525.723621	74.277944
2527.191924	75.672084
2528.659962	76.831480
2530.127735	76.967455
2531.595243	77.174200
2533.062486	77.840329
2534.526237	77.666892
2535.991338	78.098490
2537.454562	78.096531
2538.919136	77.511013
2540.380220	77.814198
2541.842654	78.136036
2543.304825	77.146547
2544.763510	76.992757
2546.226767	76.275418
2547.684927	75.569654
2549.144436	74.789760
2550.598852	75.123365
2552.057837	74.170370
2553.514951	75.042227
2554.970194	74.004106
2556.425176	74.171199
2557.878288	73.763354
2559.332749	72.520276
2560.785341	71.944395
2562.237673	72.446595
2563.688137	72.580401
2565.141557	73.026467
2566.589895	72.184633
2568.041189	72.786867
2569.490616	73.312278
2570.936571	73.649191
2572.385481	73.553484
2573.830921	73.774842
2575.277709	73.557799
2576.722633	73.028832
2578.167299	73.439325
2579.613314	74.424591
2581.055861	73.692679
2582.499756	74.646071
2583.940186	74.620341
2585.381963	75.300532
2586.821881	74.290715
2588.263146	74.521087
2589.700950	75.351599
2591.141703	76.966486
2592.577393	77.100384
2594.016033	76.869654
2595.452816	76.337449
2596.887742	76.933688
2598.325617	76.817195
2599.758433	76.217819
2601.192597	76.073838
2602.624907	76.811065
2604.058563	76.447956
2605.490366	76.202090
2606.921915	75.772390
2608.353212	76.117435
2609.782656	76.143091
2611.211848	76.855561
2612.639190	76.908517
2614.067878	77.675108
2615.496313	77.378987
2616.921301	78.454688
2618.347636	79.942659
2619.772122	80.558724
2621.197954	81.177093
2622.620342	81.493346
2624.044076	81.789716
2625.465963	82.981112
2626.887601	83.589227
2628.307393	83.336817
2629.728531	83.635006
2631.149419	84.080056
2632.566869	83.911894
2633.987258	84.555465
2635.404210	85.683088
2636.820913	85.998333
2638.237369	85.750434
2639.653575	86.763140
2641.069534	86.932929
2642.483652	87.643335
2643.897523	88.915328
2645.309554	90.928204
2646.722930	91.682665
2648.132876	92.604298
2649.545757	91.696793
2650.955210	91.887892
2652.364417	93.079253
2653.771788	93.514412
2655.182094	93.253846
2656.590563	93.750822
2657.997197	94.203835
2659.403586	94.605105
2660.808141	93.856931
2662.214040	93.863349
2663.618106	94.575034
2665.021927	94.782093
2666.425505	94.663436
2667.827250	95.245128
2669.230339	95.427126
2670.630010	96.540360
2672.031025	96.599092
2673.428624	97.792583
2674.829153	97.176945
2676.226267	96.906545
2677.624724	95.908739
2679.021353	95.678830
2680.417740	95.461735
2681.813886	95.097788
2683.208205	93.979742
2684.603867	93.815472
2685.996119	92.601811
2687.389714	91.606017
2688.781486	91.244910
2690.174599	90.641175
2691.565889	89.938143
2692.955356	88.647384
2694.344583	87.627410
2695.733571	87.217540
2697.123901	87.784371
2698.509246	87.941206
2699.897515	88.433697
2701.283964	87.155792
2702.670174	85.867712
2704.056146	85.463585
2705.438718	84.890122
2706.822633	84.882669
2708.206310	83.887369
2709.589749	83.029770
2710.969792	82.555068
2712.351177	81.876871
2713.730746	81.626441
2715.111657	81.128640
2716.490752	80.442127
2717.868034	81.062237
2719.246657	81.298464
2720.623467	79.929046
2722.000041	80.463502
2723.376379	80.362333
2724.750905	79.048558
2726.126772	80.218522
2727.499252	78.336856
2728.874648	78.703098
2730.245084	78.078969
2731.616861	77.732336
2732.988403	76.865352
2734.358137	76.334578
2735.729212	76.244308
2737.098478	75.206196
2738.467512	74.612902
2739.834738	75.097622
2741.201732	73.562891
2742.568493	73.264654
2743.935021	72.581077
2745.299744	72.499372
2746.664236	72.714974
2748.028495	72.320232
2749.392522	71.925093
2750.756318	71.627283
2752.116740	71.340006
2753.480073	70.186736
2754.838463	69.890986
2756.199763	69.189166
2757.557692	69.239404
2758.918531	69.295371
2760.277569	69.320319
2761.633239	68.955949
2762.991817	68.797317
2764.347028	68.944112
2765.702011	69.816427
2767.055196	69.009826
2768.411288	68.392962
2769.764016	68.584541
2771.116515	68.838339
2772.468786	68.942210
2773.822396	68.122776
2775.172644	67.573350
2776.521099	67.699293
2777.872458	68.036367
2779.220458	68.726773
2780.569796	70.035787
2781.917343	69.238719
2783.264662	70.037427
2784.611755	69.641415
2785.957057	69.028924
2787.302133	68.038706
2788.646982	68.277870
2789.991606	67.982150
2791.332878	66.977848
2792.675488	66.666019
2794.017872	66.659230
2795.360032	65.177010
2796.698842	64.663201
2798.040551	64.352703
2799.378913	63.718696
2800.718612	62.532200
2802.056525	61.192068
2803.392654	61.060456
2804.728559	60.469781
2806.065802	60.991492
2807.401261	61.363951
2808.736497	61.668376
2810.069950	62.275357
2811.404741	62.840905
2812.736190	62.936852
2814.070535	62.974999
2815.399982	62.839448
2816.730766	62.648296
2818.061328	62.931179
2819.390111	62.791841
2820.720230	61.854348
2822.048571	62.840691
2823.376691	63.959318
2824.703033	64.615516
2826.030712	65.044243
2827.355057	65.464169
2828.680739	66.493787
2830.004645	67.751324
2831.328332	68.752310
2832.653354	68.046538
2833.975046	67.698756
2835.296520	66.920284
2836.617775	66.583830
2837.938811	65.874192
2839.258075	66.313526
2840.578674	66.245722
2841.897501	66.317876
2843.216110	65.537646
2844.532948	65.435682
2845.849569	65.128671
2847.165973	65.230119
2848.480608	64.740901
2849.796577	64.970797
2851.109226	65.073882
2852.423211	64.962616
2853.736978	65.210795
2855.050530	65.619364
2856.362314	66.139347
2857.672332	65.836673
2858.983685	66.780505
2860.291723	66.642118
2861.601096	65.867320
2862.910253	65.507343
2864.219195	65.507614
2865.526373	65.244731
2866.831789	64.856259
2868.138539	64.744766
2869.443526	64.685977
2870.748300	65.583821
2872.051312	65.324168
2873.357206	65.800467
2874.658244	66.654348
2875.960617	67.349675
2877.261230	68.037545
2878.563177	68.938178
2879.864911	69.465343
2881.163340	69.508063
2882.463104	68.550325
2883.761109	67.651813
2885.058903	66.415668
2886.354941	66.423513
2887.652312	65.482028
2888.947927	66.022479
2890.243331	65.825193
2891.538524	66.777434
2892.830420	66.162376
2894.125192	66.957742
2895.416667	67.877682
2896.709475	68.418007
2898.002073	68.273166
2899.291377	68.583751
2900.582013	68.759113
2901.870898	69.082892
2903.161116	69.170191
2904.448041	68.920092
2905.736300	68.045377
2907.022808	68.612675
2908.309109	68.544518
2909.595201	68.296008
2910.879545	68.393272
2912.166760	68.216515
2913.449149	67.389685
2914.732870	68.752747
2916.014845	68.954828
2917.296612	68.479764
2918.576635	68.327244
2919.859527	67.636468
2921.140674	67.550770
2922.418539	67.902190
2923.699273	67.120101
2924.976726	67.597949
2926.253973	67.796885
2927.529479	67.947424
2928.807852	67.235412
2930.081410	66.849832
2931.357836	65.304690
2932.632521	64.044727
2933.905466	63.309944
2935.179741	63.101431
2936.452277	61.969379
2937.724609	62.354719
2938.993667	61.842650
2940.265591	62.391435
2941.535777	61.798656
2942.805760	62.624495
2944.075539	62.805812
2945.343581	63.395440
2946.609888	63.101771
2947.875992	62.231254
2949.143426	61.920215
2950.409126	61.667682
2951.674623	61.961665
2952.939918	62.754330
2954.201948	63.130665
2955.465309	62.613683
2956.728467	62.278485
2957.989894	62.851848
2959.252650	62.949972
2960.513675	63.176242
2961.772968	63.673777
2963.032062	63.855094
2964.290955	63.579960
2965.549648	64.208150
2966.808141	63.277124
2968.064905	63.521336
2969.321469	63.212714
2970.576306	62.433313
2971.832471	62.848270
2973.085382	62.429081
2974.339622	61.971801
2975.593663	61.986574
2976.845978	62.059326
2978.098095	61.941101
2979.348486	61.909084
2980.601733	62.040669
2981.850203	61.725865
2983.101528	62.281853
2984.349603	61.929591
2985.597482	62.082089
2986.845163	62.022566
2988.092648	62.074048
2989.338410	61.277106
2990.583977	61.134365
2991.830871	61.271897
2993.074521	61.665915
2994.319499	61.128125
2995.561233	60.235988
2996.805819	59.561298
2998.048686	58.964270
2999.288312	59.061957
3000.530788	59.174200
3001.770025	59.937310
3003.010589	59.940442
3004.249436	59.214346
3005.488089	58.620236
3006.725026	58.568716
3007.963290	59.040525
3009.199840	59.228736
3010.436195	58.861761
3011.672357	59.012374
3012.906806	59.059265
3014.141061	58.667254
3015.375123	58.632549
3016.607473	58.165749
3017.838111	57.921816
3019.071595	57.062267
3020.303367	57.217579
3021.533429	56.731524
3022.763299	56.325311
3023.991459	56.574872
3025.220945	56.580959
3026.448723	57.171465
3027.676309	56.939033
3028.905221	57.098054
3030.129391	57.193708
3031.356404	56.899380
3032.580193	57.012967
3033.805309	56.233649
3035.028718	56.783193
3036.251937	56.499559
3037.473451	56.284746
3038.697807	55.985820
3039.917426	55.469929
3041.138372	55.405903
3042.359129	55.011955
3043.578182	55.082835
3044.798561	55.362455
3046.015723	55.669935
3047.234210	55.915363
3048.450995	56.564119
3049.667593	56.578053
3050.884002	56.230636
3052.097199	55.694904
3053.313233	55.285228
3054.526055	55.010589
3055.741714	55.376450
3056.952650	55.411104
3058.164911	54.799047
3059.376986	54.843449
3060.588874	54.815566
3061.799064	54.882709
3063.009068	54.674617
3064.218887	54.111706
3065.427009	53.505351
3066.634945	53.319202
3067.841187	53.449703
3069.048752	54.106187
3070.254624	53.505735
3071.460310	53.577988
3072.665811	54.410186
3073.869619	54.302984
3075.074751	54.030706
3076.278191	53.516065
3077.479938	53.494203
3078.681502	53.627584
3079.882881	53.191860
3081.084078	53.720140
3082.283583	53.613109
3083.482906	53.954269
3084.683552	53.711669
3085.882508	53.569026
3087.078270	53.169194
3088.276861	53.397783
3089.472258	54.574678
3090.668978	55.529369
3091.862506	55.721744
3093.058862	56.021310
3094.253532	55.303794
3095.445011	55.429897
3096.640821	56.328771
3097.831938	55.784266
3099.024377	55.322462
3100.213629	55.722152
3101.405707	55.949788
3102.596100	56.299302
3103.783308	56.504634
3104.971839	56.201785
3106.161692	56.237336
3107.348360	56.108962
3108.534849	56.422924
3109.721158	56.614473
3110.908789	56.201152
3112.093239	55.943702
3113.276008	55.732894
3114.461600	55.759113
3115.645513	55.969261
3116.827747	56.221349
3118.009802	55.724325
3119.191680	55.861032
3120.373379	55.878878
3121.553400	54.927558
3122.731745	54.988184
3123.912911	55.264423
3125.090901	55.456979
3126.268714	55.297426
3127.446350	55.216048
3128.622311	55.342327
3129.798095	54.233400
3130.975201	54.771722
3132.150632	54.561709
3133.324390	54.998970
3134.496476	55.158126
3135.669882	55.581230
3136.843113	55.153371
3138.014671	54.841682
3139.187550	54.237109
3140.357263	54.028025
3141.528295	53.346455
3142.697658	54.229360
3143.865351	54.000746
3145.035859	53.232667
3146.201708	53.193643
3147.371867	53.399716
3148.537368	52.468005
3149.702696	52.919451
3150.867850	53.034679
3152.032830	52.774454
3153.199131	52.151547
3154.360778	51.937637
3155.523746	52.730259
3156.686540	51.712252
3157.849162	51.334954
3159.010119	50.915166
3160.170903	50.647314
3161.331515	50.752319
3162.490464	51.548248
3163.649240	51.614765
3164.807845	51.106798
3165.966278	50.930939
3167.124539	50.837144
3168.281138	51.447506
3169.436076	52.076705
3170.592333	51.681709
3171.746929	51.895938
3172.901355	52.171910
3174.054121	52.225433
3175.206717	52.442323
3176.359142	52.068262
3177.511398	52.610712
3178.663483	51.833169
3179.812423	51.992194
3180.964169	50.666639
3182.114257	50.456678
3183.262689	50.096152
3184.410952	50.683900
3185.559045	50.980798
3186.706970	50.702308
3187.853240	50.832104
3188.999341	51.420097
3190.143787	51.054911
3191.288066	51.328989
3192.432177	51.950840
3193.577606	52.286972
3194.719895	52.717789
3195.862018	53.718958
3197.003973	53.708085
3198.145762	53.644958
3199.287383	53.875204
3200.425868	54.112850
3201.565671	53.762708
3202.706792	53.720450
3203.844778	53.968637
3204.981115	54.754649
3206.117286	54.680815
3207.254775	55.029713
3208.390614	55.600017
3209.527771	54.471809
3210.660315	54.298263
3211.797141	54.030669
3212.929355	53.896728
3214.062886	54.024072
3215.196253	53.628243
3216.326492	53.158833
3217.459529	53.519669
3218.589440	53.460474
3219.720667	52.685654
3220.848770	52.522619
3221.979669	52.051787
3223.108924	51.767206
3224.236536	51.707570
3225.361026	51.150696
3226.489790	50.636603
3227.615434	51.471277
3228.740914	50.683005
3229.864753	50.397561
3230.991386	49.723077
3232.113422	49.294114
3233.236774	49.204512
3234.359964	49.818325
3235.482992	49.522872
3236.604380	49.582717
3237.725607	50.555805
3238.845195	50.158192
3239.964622	49.608639
3241.082411	50.092404
3242.202993	49.659392
3243.320460	48.929460
3244.437767	48.383621
3245.554914	48.340408
3246.670425	49.109817
3247.787251	49.591932
3248.900966	48.852092
3250.017471	48.873201
3251.132342	48.024848
3252.244104	48.027575
3253.355707	47.101008
3254.468624	46.839094
3255.581383	46.950836
3256.691035	47.133409
3257.802001	47.594376
3258.912809	48.285929
3260.021986	49.157952
3261.129531	49.821794
3262.238390	49.424238
3263.347092	49.990824
3264.452691	50.354505
3265.559604	50.829517
3266.664888	51.109577
3267.771487	51.538841
3268.874985	51.295580
3269.979797	50.631415
3271.084452	50.865334
3272.186008	50.271028
3273.287409	49.335691
3274.390123	49.900397
3275.492680	49.730189
3276.592141	49.571164
3277.694386	48.751669
3278.793535	48.980213
3279.891060	48.087438
3280.988429	48.279497
3282.088581	47.885532
3283.185639	47.573454
3284.282542	47.008844
3285.379290	47.007758
3286.471480	46.135804
3287.567918	45.784982
3288.662734	46.001833
3289.757396	45.991666
3290.850436	45.338012
3291.943322	43.986762
3293.034587	43.379157
3294.127165	43.304132
3295.218122	43.244910
3296.307460	44.073734
3297.396645	44.610363
3298.487143	44.984999
3299.574556	44.379366
3300.661817	45.269096
3301.750390	45.831018
3302.838810	46.523788
3303.922683	46.192665
3305.010798	46.205127
3306.095832	45.583455
3307.179249	46.837881
3308.263979	46.796470
3309.347094	47.179672
3310.431520	48.018644
3311.512868	48.333850
3312.595528	47.446267
3313.676574	47.647912
3314.757469	47.874554
3315.836750	48.149535
3316.915882	49.163057
3317.996324	49.135490
3319.073693	48.984314
3320.152372	48.694498
3321.229441	48.643636
3322.306359	49.229081
3323.381666	49.219285
3324.456824	49.744103
3325.533293	48.922409
3326.606692	48.727554
3327.679942	47.722558
3328.754502	47.712658
3329.827454	47.567403
3330.898797	47.580265
3331.971452	47.236904
3333.041039	46.513439
3334.111937	46.915795
3335.181228	46.916672
3336.251830	47.044718
3337.320825	46.625917
3338.388214	46.496906
3339.453998	45.930817
3340.524008	44.827383
3341.590955	44.872665
3342.654840	44.614525
3343.721493	44.891021
3344.786541	44.908993
3345.849986	44.990837
3346.913285	45.304525
3347.976437	45.797993
3349.039443	45.515302
3350.102303	46.110371
3351.163561	46.436878
3352.221762	46.993721
3353.284184	46.690497
3354.343549	45.895057
3355.402769	45.854112
3356.463299	46.193124
3357.519319	46.124255
3358.578104	46.520677
3359.632381	46.179196
3360.689421	45.008643
3361.744864	45.131969
3362.801615	44.537419
3363.856768	43.930285
3364.910325	43.606056
3365.962284	43.250652
3367.017005	43.253261
3368.068677	42.683363
3369.120206	43.366565
3370.173043	44.209551
3371.222833	44.321593
3372.273932	44.636860
3373.321985	44.602600
3374.372798	44.485719
3375.420565	44.667843
3376.468190	44.442991
3377.515672	43.378289
3378.561562	42.800572
3379.608760	42.299764
3380.652916	41.688363
3381.699830	42.186937
3382.745152	42.454653
3383.787433	43.035599
3384.829574	42.346525
3385.873022	42.999114
3386.916330	43.692434
3387.958047	44.158436
3388.999623	44.101514
3390.041059	43.129809
3391.080905	43.061425
3392.119164	42.553750
3393.158730	42.303818
3394.198155	42.032558
3395.235993	41.619813
3396.272244	41.822012
3397.308356	42.075143
3398.345775	41.898316
3399.380161	42.400205
3400.415854	43.773742
3401.451408	43.508164
3402.483931	43.680518
3403.519207	44.092604
3404.551452	44.465225
3405.583559	44.190981
3406.614082	44.898569
3407.645912	44.876504
3408.677604	45.465662
3409.706269	45.086269
3410.734795	46.027523
3411.764629	45.899806
3412.794324	45.754552
3413.820994	45.600503
3414.848971	45.446405
3415.873923	45.301002
3416.901625	45.173037
3417.926304	45.071254
3418.952289	45.004397
3419.976694	44.981211
3421.000963	45.010439
3422.023653	45.100826
3423.046207	45.261114
3424.070067	45.500050
3425.090907	45.826375
3426.111612	46.248835
3427.133622	46.776173
3428.152614	47.417134
3429.171471	48.180461
3430.191633	49.074899
3431.208779	50.109190
