-118.047834	-3.515259
-115.378234	-1.033303
-112.711569	1.052460
-110.045656	2.767642
-107.382675	4.137859
-104.718265	5.188724
-102.056785	5.945852
-99.393875	6.434857
-96.736073	6.681353
-94.076840	6.710954
-91.418357	6.549275
-88.762797	6.221930
-86.105809	5.754532
-83.453918	5.172697
-80.800598	4.502038
-78.150198	3.768170
-75.498368	2.996706
-72.851629	2.213262
-70.203460	1.443450
-67.556035	0.712886
-64.911523	0.047184
-62.265583	-2.993656
-59.624724	-14.266857
-56.982436	-51.578895
-54.343056	-131.527143
-51.702248	-185.435617
-49.062180	-169.731987
-46.427184	-101.997042
-43.790760	-33.264623
-41.157238	32.736236
-38.522288	94.449404
-35.892403	151.992399
-33.258926	206.147031
-30.630511	255.458310
-28.002829	301.162699
-25.373720	342.075850
-22.749667	379.683869
-20.122025	412.913011
-17.499436	442.182495
-14.877579	466.906737
-12.256452	487.614477
-9.636055	504.307775
-7.018546	516.411436
-4.399609	523.639701
-1.783558	528.030935
0.831765	527.039788
3.446361	522.442572
6.058074	513.350059
8.671216	500.360408
11.279324	482.963515
13.891014	461.214167
16.497673	436.005637
19.105760	406.001283
21.713123	371.556957
24.315461	333.792849
26.921377	291.707287
29.522271	244.612156
32.124593	193.899516
34.721898	139.682984
37.322778	81.718958
39.918644	19.986173
42.515937	-44.724303
45.112511	-110.216283
47.704076	-167.499058
50.297069	-186.845329
52.887201	-129.632877
55.478761	-49.267603
58.067461	-3.876146
60.657588	0.142567
63.242717	0.594389
65.829272	1.074139
68.415114	1.377490
70.998102	1.160531
73.582516	1.209198
76.159802	1.700698
78.740654	1.042323
81.318657	1.073686
83.895950	-0.001689
86.474669	-2.158314
89.048407	-4.623531
91.623571	-5.976583
94.195892	-7.162913
96.767505	-7.514150
99.336278	-6.331402
101.906478	-4.189166
104.473840	-0.801248
107.042627	4.574872
109.608578	10.560308
112.171694	17.433693
114.738366	24.817475
117.295817	35.438331
119.858953	44.801614
122.417130	55.434884
124.978860	66.750600
127.535634	77.954069
130.093835	89.552075
132.647083	101.329260
135.199632	113.377338
137.755732	125.314058
140.306885	137.251119
142.857339	148.971792
145.407096	159.360666
147.954035	170.290445
150.500277	180.675649
153.047945	191.663458
155.594917	201.046158
158.136954	209.455762
160.678297	216.378908
163.218947	222.969938
165.761023	228.886417
168.300287	232.970596
170.836743	235.751630
173.372507	237.843741
175.909697	238.843396
178.446196	237.787438
180.979889	235.132061
183.510779	233.324203
186.040980	229.610685
188.572606	226.057655
191.101431	222.897461
193.627457	219.820498
196.152797	217.425896
198.679563	215.746376
201.203531	214.742650
203.726815	214.510607
206.249414	214.332148
208.769220	214.042716
211.288343	214.120965
213.806783	214.300663
216.326647	214.353558
218.839510	215.956429
221.355904	215.144762
223.871616	216.478555
226.382438	216.474977
228.894686	216.034207
231.404150	216.772647
233.912936	217.907308
236.421044	218.319508
238.930575	219.694921
241.435226	221.241424
243.939202	221.948462
246.444601	222.810956
248.945125	224.938898
251.449172	225.989533
253.946249	227.507317
256.446848	228.109699
258.944676	229.209590
261.441831	230.084589
263.938313	230.560849
266.429932	229.500947
268.925071	228.219709
271.417444	228.346638
273.909146	229.245809
276.398084	230.791278
278.888447	232.759793
281.376047	236.986108
283.860888	241.767228
286.349244	244.934111
288.830660	248.205345
291.315590	252.010882
293.795675	255.243697
296.279272	259.825176
298.758026	262.946337
301.238204	265.841808
303.715629	269.461735
306.192391	271.033226
308.668490	274.286505
311.141840	277.665640
313.614528	278.916759
316.086555	280.788075
318.557921	282.887491
321.026543	284.041642
323.494505	285.868123
325.963889	286.275968
328.428451	286.617409
330.896517	286.716541
333.359763	287.339474
335.822351	287.097879
338.284283	287.480767
340.745558	286.952825
343.204099	285.314281
345.664062	284.618976
348.121292	282.591967
350.577868	280.327322
353.033790	278.944902
355.486983	276.513988
357.941597	274.261565
360.391410	270.575304
362.844719	267.174122
365.293230	263.888891
367.741090	263.233666
370.190371	263.880723
372.634859	263.901675
375.080769	265.887063
377.526030	266.423304
379.968571	267.691946
382.410465	266.675618
384.851712	265.107496
387.290243	265.244749
389.730196	265.054064
392.167435	264.602592
394.601962	264.241764
397.039977	263.970051
399.473215	264.112073
401.907875	264.797574
404.337761	264.865042
406.771133	265.661757
409.199735	265.683730
411.627696	265.417723
414.057077	266.303329
416.481693	267.357542
418.907731	267.417396
421.333128	268.228444
423.757885	268.089847
426.177884	267.688010
428.599304	267.441424
431.018027	268.387421
433.438171	268.189677
435.855620	268.742999
438.274489	268.132868
440.690665	267.735948
443.102094	267.222802
445.516999	267.344308
447.929214	268.263938
450.340795	269.263999
452.751742	269.441328
455.160003	270.113953
457.567631	269.519460
459.974628	269.207291
462.380992	269.413308
464.784674	269.597242
467.187726	269.311951
469.590148	267.537048
471.991941	266.728509
474.391055	263.208255
476.791589	260.360875
479.191494	256.333684
481.586676	253.099267
483.985325	250.146062
486.379254	245.434107
488.772557	241.788468
491.165234	236.838680
493.557286	233.138291
495.950756	227.979537
498.339515	223.166102
500.725607	217.591021
503.113118	212.809359
505.500007	207.947520
507.884232	202.491060
510.269876	197.225459
512.652857	191.724176
515.033178	185.988180
517.414918	180.762712
519.793999	175.112549
522.174499	169.615180
524.552341	165.365919
526.927528	161.232179
529.302097	157.591383
531.678085	155.082085
534.051419	151.711065
536.426171	149.660779
538.796238	147.249688
541.165689	146.198582
543.536558	144.899171
545.902747	143.594577
548.270354	142.367481
550.635315	141.901771
552.999663	140.469431
555.363399	140.431467
557.728552	140.488481
560.089032	139.507243
562.450931	138.711933
564.810190	137.554322
567.166810	137.477643
569.526875	136.741647
571.880250	136.243087
574.237069	135.155980
576.591252	134.425974
578.944828	132.880209
581.297795	132.104804
583.648131	131.136092
585.999883	129.617749
588.344959	128.993726
590.695499	126.930307
593.039365	126.332576
595.388693	125.444710
597.733373	125.122667
600.075427	124.430918
602.418899	123.727933
604.759748	123.298154
607.099995	122.950687
609.437621	122.859043
611.778682	122.688280
614.115105	122.159038
616.452945	122.560552
618.788168	122.387992
621.120775	122.228444
623.454798	121.997626
625.786208	121.527933
628.117019	119.541695
630.447232	118.946939
632.776847	118.024028
635.101840	117.776356
637.432274	117.177831
639.758086	117.086814
642.081292	117.116689
644.405913	117.707910
646.727929	117.358135
649.049352	116.876321
651.368171	116.047284
653.688406	115.405389
656.008048	115.123199
658.325089	115.399027
660.641538	114.212151
662.955389	113.102186
665.270656	111.986657
667.583326	110.877386
669.897411	109.415459
672.206896	108.118775
674.517797	107.058934
676.826105	105.537964
679.133825	104.585218
681.442960	102.722379
683.747502	101.336367
686.051457	100.720367
688.354827	99.820917
690.659611	99.299023
692.959809	98.953083
695.261421	97.743078
697.562449	96.959963
699.858894	96.403800
702.156755	95.639832
704.454032	95.642170
706.750726	94.857847
709.042844	95.172621
711.338373	94.315991
713.629329	93.577944
715.921699	92.473367
718.211493	92.824251
720.500707	92.616951
722.789342	93.999490
725.075405	94.681038
727.362881	96.487683
729.647786	97.472150
731.932114	99.193350
734.213873	99.491671
736.497046	100.233518
738.779642	100.730189
741.057683	101.400105
743.337137	102.726480
745.616016	103.603006
747.894319	105.013207
750.168073	106.573467
752.443241	107.158065
754.717835	108.622086
756.989869	109.374820
759.263317	110.323273
761.534207	110.611453
763.802541	111.264977
766.072288	111.666739
768.339481	112.626934
770.606103	112.731411
772.872155	111.989856
775.135656	112.255906
777.400570	112.454077
779.664914	112.291884
781.924729	111.888451
784.185957	111.624102
786.446616	111.155526
788.704730	110.590200
790.960299	110.803120
793.219259	110.915136
795.471720	110.781971
797.729548	109.958921
799.982856	109.492622
802.233625	108.669296
804.485806	107.915153
806.735449	107.457699
808.986503	107.631690
811.233046	106.863183
813.481001	106.394738
815.726422	105.486038
817.973254	104.832554
820.219525	102.743008
822.461292	101.936891
824.706441	100.690650
826.945118	100.344086
829.187177	99.358977
831.424738	98.268607
833.663711	97.554492
835.900157	96.907985
838.138014	95.535591
840.373346	95.003848
842.606155	93.943021
844.840375	92.796112
847.072073	91.892840
849.303215	91.526493
851.533804	90.916061
853.763837	91.381256
855.993317	90.654610
858.218315	90.632131
860.446688	90.238732
862.670582	89.952672
864.895886	90.620987
867.116715	90.854108
869.340916	91.059976
871.560644	91.286252
873.781783	90.909372
876.002371	91.293137
878.220449	91.360382
880.439938	92.287434
882.654959	92.323727
884.869434	93.012313
887.083360	93.110781
889.296740	94.094127
891.509572	94.132266
893.721858	94.593316
895.931641	94.435516
898.140879	94.790432
900.349572	94.380091
902.555766	94.341145
904.763369	94.095907
906.968474	94.226105
909.173036	94.117226
911.375103	95.038152
913.578579	94.363000
915.779561	93.896108
917.980002	93.477678
920.181850	93.865941
922.377308	93.316811
924.576125	92.089877
926.770503	90.983926
928.968239	92.036760
931.161539	92.115856
933.356248	92.177578
935.548471	93.336319
937.740156	94.579742
939.931303	95.054147
942.119967	95.892617
944.308094	95.633313
946.493741	97.467708
948.682740	99.158921
950.867316	100.778978
953.051357	102.326192
955.238748	103.507697
957.417835	104.748200
959.600273	106.187076
961.782177	107.088376
963.961607	109.852511
966.138563	110.841620
968.316928	112.383176
970.496700	113.630058
972.670123	114.785231
974.846892	115.985143
977.019254	118.295685
979.193024	118.674550
981.362390	120.873197
983.535101	122.335364
985.705345	124.760317
987.875061	126.097888
990.044248	127.775623
992.209038	129.421380
994.377169	131.172481
996.540906	132.751019
998.706049	134.428361
1000.868734	135.044758
1003.030892	137.048436
1005.190594	138.301514
1007.349772	139.114564
1009.510356	139.909787
1011.668485	141.783769
1013.826090	143.534277
1015.983172	145.148462
1018.139731	146.091775
1020.291910	147.633496
1022.445495	148.812457
1024.598559	149.961944
1026.749175	150.832222
1028.901196	152.615070
1031.048844	154.042227
1033.199824	156.162101
1035.346433	157.721118
1037.492524	158.617156
1039.638095	159.618277
1041.785072	160.213897
1043.925760	161.253619
1046.069778	162.085462
1048.211355	161.313988
1050.352416	161.539753
1052.494881	160.980287
1054.631067	160.804224
1056.770579	160.715603
1058.905735	160.519102
1061.044216	160.993638
1063.178343	161.524443
1065.311957	160.426738
1067.446976	161.340901
1069.577645	160.516894
1071.709719	160.264248
1073.839364	158.975627
1075.968497	158.224870
1078.097118	157.198543
1080.225228	156.035220
1082.350912	154.605598
1084.476086	153.648479
1086.602664	151.676849
1088.724905	150.774916
1090.848549	148.968834
1092.967860	147.580562
1095.092399	146.715703
1097.210693	145.727117
1099.330392	143.969907
1101.447672	142.894891
1103.564446	141.729958
1105.680713	140.914185
1107.794565	138.977233
1109.909820	138.791749
1112.020753	137.500672
1114.134997	135.984327
1116.244921	134.646110
1118.356249	134.001545
1120.467072	132.859815
1122.573579	131.865771
1124.683396	131.187883
1126.788898	129.571949
1128.895803	127.892199
1130.996493	126.633893
1133.102395	124.704032
1135.203988	124.554322
1137.306984	123.676312
1139.409479	122.816532
1141.505767	122.537489
1143.607263	122.000087
1145.704456	121.563061
1147.801150	122.193608
1149.897346	120.747070
1151.993045	121.180950
1154.088245	119.951717
1156.181050	120.500253
1158.275256	120.092286
1160.363271	119.628749
1162.456484	119.535551
1164.543509	118.832951
1166.633833	118.484362
1168.719870	119.203094
1170.809204	118.830241
1172.892357	119.750718
1174.976912	120.077800
1177.062869	120.371473
1179.144544	120.973638
1181.227621	121.103141
1183.308312	121.491967
1185.388511	121.342559
1187.468219	121.662856
1189.547436	121.725115
1191.624271	122.041926
1193.698725	122.312549
1195.776470	121.611750
1197.849946	121.409010
1199.924822	121.763118
1201.995431	122.066787
1204.067442	121.358659
1206.137076	120.489096
1208.208111	120.357084
1210.278658	119.823614
1212.344944	119.818840
1214.412631	120.927471
1216.477946	119.867913
1218.544661	119.710472
1220.607120	118.448344
1222.672864	118.416283
1224.734355	118.087225
1226.797245	118.166076
1228.857768	117.945382
1230.917807	118.828361
1232.977364	117.030721
1235.034555	117.407225
1237.091265	116.932833
1239.145612	117.314752
1241.203239	116.561595
1243.258504	116.473227
1245.309528	116.626755
1247.361952	116.221410
1249.413896	116.994118
1251.463482	117.855570
1253.512589	116.722200
1255.561218	116.957424
1257.609368	117.266626
1259.657039	117.129927
1261.700481	117.734155
1263.747197	117.754282
1265.791560	118.715865
1267.835447	118.716750
1269.876982	120.101933
1271.916168	121.035525
1273.958627	122.247463
1275.996863	122.733487
1278.036498	124.224861
1280.075658	126.827754
1282.110599	127.722414
1284.146939	129.896723
1286.180935	132.001579
1288.216329	135.196029
1290.247509	138.296968
1292.280088	141.835604
1294.312194	145.430215
1296.341960	149.445146
1298.373124	152.779380
1300.400080	157.829028
1302.428434	162.164196
1304.452584	167.910921
1306.479998	173.448715
1308.503210	179.739644
1310.527820	184.969000
1312.550096	190.738069
1314.573769	196.151429
1316.595109	202.465064
1318.615981	207.904306
1320.636386	213.551521
1322.652598	218.357921
1324.670207	222.687325
1326.685488	225.930896
1328.704028	229.507540
1330.718379	232.351852
1332.730404	234.902007
1334.745686	234.767512
1336.756783	235.108072
1338.769277	235.092766
1340.777588	234.109368
1342.789155	232.339727
1344.794682	230.012876
1346.803465	226.872782
1348.808070	223.036769
1350.815929	219.883189
1352.823326	214.994118
1354.824692	209.508657
1356.827455	204.519613
1358.829757	198.971670
1360.831600	193.631432
1362.832983	186.634923
1364.832053	181.321637
1366.830664	175.704926
1368.828817	169.972263
1370.826511	164.104939
1372.820043	159.952293
1374.814971	154.466622
1376.809441	149.831729
1378.803456	144.952978
1380.795162	141.379314
1382.786414	137.541263
1384.775360	135.376618
1386.765701	132.653375
1388.755587	130.323587
1390.743170	128.618286
1392.730298	127.500737
1394.715125	126.399298
1396.701347	124.449400
1398.685269	123.358436
1400.668738	123.184916
1402.651755	122.278647
1404.632473	121.285772
1406.614587	120.727868
1408.594403	120.481923
1410.573769	119.434356
1412.548995	119.148462
1414.527461	117.625948
1416.503632	117.670671
1418.479355	117.504664
1420.454628	117.037148
1422.427610	116.023417
1424.400144	115.787107
1426.372231	115.733819
1428.343869	115.787246
1430.311379	115.197068
1432.283964	114.917972
1434.248742	114.411693
1436.218592	115.120101
1438.184319	114.300772
1440.151438	114.364082
1442.116274	113.649243
1444.076990	112.788119
1446.042775	112.247554
1448.002604	111.550761
1449.963826	110.533204
1451.926441	110.107439
1453.884941	109.606187
1455.842998	109.634229
1457.800614	109.150220
1459.757788	109.467464
1461.712686	109.091243
1463.668976	108.922492
1465.622992	108.401545
1467.576568	108.231686
1469.527871	108.449740
1471.480566	107.623103
1473.430990	106.947192
1475.380974	107.550369
1477.330520	108.051324
1479.277797	108.186941
1481.222807	108.117056
1483.169208	107.774061
1485.115172	108.018151
1487.060699	108.747563
1489.003961	109.493734
1490.946786	110.613962
1492.887348	110.531533
1494.829301	111.631764
1496.768992	111.338414
1498.708249	112.297679
1500.647070	112.716118
1502.583632	114.919067
1504.521585	115.863759
1506.457279	116.985392
1508.392540	118.323749
1510.325545	119.258785
1512.258117	120.031773
1514.190257	121.376378
1516.121965	121.458934
1518.051419	122.679969
1519.982264	123.652315
1521.912677	124.781208
1523.839018	127.282469
1525.766750	129.789873
1527.692231	132.644404
1529.617283	136.717941
1531.541906	140.881880
1533.466100	144.391470
1535.388047	148.579563
1537.311383	153.341184
1539.232474	158.003329
1541.151320	162.955190
1543.071556	167.892303
1544.989548	173.658078
1546.907114	178.252864
1548.822438	183.187888
1550.739152	188.358598
1552.651811	192.903735
1554.567674	196.957712
1556.481297	200.989123
1558.392683	203.588263
1560.305457	206.423051
1562.214182	208.376543
1564.124297	210.363135
1566.033987	211.235879
1567.943255	212.646067
1569.850289	212.967451
1571.755090	213.484170
1573.661280	211.582237
1575.565238	211.526336
1577.468776	210.699948
1579.371892	209.353231
1581.272780	205.724587
1583.175055	202.416558
1585.075103	198.527671
1586.976538	194.223696
1588.873940	190.008412
1590.770923	185.676714
1592.667488	181.173027
1594.565441	177.713687
1596.457559	173.622610
1598.352870	169.343902
1600.247764	165.478952
1602.140436	161.397670
1604.032692	157.486841
1605.922727	153.888014
1607.812348	151.261888
1609.701552	147.764758
1611.590342	144.439317
1613.476914	141.529007
1615.364874	138.857598
1617.248817	135.968629
1619.134148	132.984895
1621.019064	130.448183
1622.901767	127.180641
1624.785857	125.041830
1626.665936	122.139587
1628.547401	119.512893
1630.426656	117.305489
1632.307297	114.556167
1634.182134	111.836297
1636.061953	110.303630
1637.937766	107.654496
1639.813169	107.217296
1641.689958	105.936633
1643.560951	105.385239
1645.435125	103.844592
1647.305301	103.560400
1649.178657	102.846163
1651.049810	103.236847
1652.918761	102.074536
1654.789098	101.352642
1656.655441	100.486051
1658.523170	99.698189
1660.388701	99.800109
1662.255616	99.989768
1664.118543	99.598931
1665.982855	100.234513
1667.844971	99.637650
1669.706683	99.793010
1671.569779	99.370208
1673.430681	99.280392
1675.289389	99.209080
1677.147694	99.172455
1679.007384	98.948602
1680.861307	99.816868
1682.718402	100.196195
1684.575095	99.441180
1686.427812	98.922937
1688.283699	98.830979
1690.135613	97.593905
1691.987126	97.713164
1693.838238	97.712304
1695.688950	98.148754
1697.539261	97.405258
1699.387388	97.631118
1701.236898	97.564069
1703.080660	97.225760
1704.929371	96.927654
1706.772337	96.971194
1708.618468	97.192495
1710.460638	97.085231
1712.305972	96.820341
1714.145566	97.246507
1715.986544	96.239491
1717.828905	96.072010
1719.667310	94.960701
1721.507098	94.652210
1723.344711	93.562210
1725.181928	92.901771
1727.016972	91.589040
1728.853399	90.965884
1730.687654	90.612780
1732.521514	89.740743
1734.354981	89.708831
1736.184501	89.700567
1738.017180	88.919189
1739.845915	88.693582
1741.677808	88.307727
1743.505758	88.887412
1745.333316	88.486457
1747.160482	88.027811
1748.987257	87.849287
1750.813641	87.639993
1752.636087	86.901418
1754.461689	87.815341
1756.283356	87.611785
1758.106405	87.704616
1759.927292	87.663746
1761.747791	88.272220
1763.569671	88.330665
1765.385851	89.660417
1767.205183	89.225272
1769.020588	90.087905
1770.839143	90.183045
1772.653773	92.021511
1774.468017	92.310930
1776.281873	93.045591
1778.095343	93.737179
1779.906660	94.048213
1781.719358	93.584628
1783.531669	93.882944
1785.340063	92.780387
1787.149837	92.797334
1788.955697	92.133889
1790.764702	92.057167
1792.569794	91.998438
1794.376267	92.612204
1796.182356	92.737855
1797.984535	92.517492
1799.789857	91.143287
1801.591271	91.207033
1803.394065	91.594773
1805.192953	90.578263
1806.993222	90.890336
1808.793109	91.480985
1810.590855	90.886099
1812.388219	90.396793
1814.185204	89.966146
1815.981808	90.006641
1817.776273	89.151996
1819.572117	89.379140
1821.362307	89.469052
1823.157392	89.878236
1824.946826	90.235268
1826.739396	91.352638
1828.529831	90.894481
1830.318132	91.160609
1832.109568	91.228138
1833.895358	91.050657
1835.682528	90.856237
1837.467566	90.293569
1839.255738	90.034535
1841.040024	91.186134
1842.822181	90.627043
1844.605716	90.783529
1846.387123	90.172023
1848.169909	89.999337
1849.948814	89.581627
1851.729099	89.770426
1853.507257	89.809704
1855.286794	91.227200
1857.064206	91.421663
1858.839494	92.697216
1860.616161	92.614538
1862.390704	93.304830
1864.166626	93.060849
1865.936927	92.928540
1867.710356	92.280008
1869.481665	91.330320
1871.252604	90.584388
1873.024919	90.978433
1874.791621	90.386601
1876.561449	89.802971
1878.327413	89.593974
1880.096501	89.482368
1881.861727	88.960404
1883.626584	89.620197
1885.392819	89.511523
1887.155195	90.074641
1888.917204	89.455779
1890.678845	90.019630
1892.440120	90.238841
1894.201027	90.664837
1895.961568	90.437475
1897.719999	90.380741
1899.478065	89.596972
1901.234022	89.934892
1902.991356	89.963912
1904.748325	89.288280
1906.503188	88.541834
1908.255945	88.064187
1910.008339	88.195995
1911.762108	88.020906
1913.513774	86.931995
1915.263338	88.272963
1917.014277	88.808556
1918.764854	90.101918
1920.511591	90.992919
1922.259705	92.768338
1924.005719	93.372891
1925.753109	94.176602
1927.498400	95.162223
1929.241594	94.855554
1930.986163	95.070064
1932.728637	95.444607
1934.470750	94.993966
1936.212503	94.998218
1937.953897	94.225005
1939.693196	94.227578
1941.432137	94.159675
1943.170720	93.884988
1944.907210	93.502779
1946.643343	93.835933
1948.380850	93.872918
1950.114535	94.909331
1951.849595	95.751974
1953.582567	95.322202
1955.315182	94.639269
1957.047440	95.340741
1958.779342	94.955282
1960.509158	94.897450
1962.236889	95.187517
1963.965995	94.538621
1965.694746	94.870173
1967.421413	94.730894
1969.147726	94.712662
1970.875412	95.000495
1972.597562	94.098421
1974.322813	93.572850
1976.044258	93.496200
1977.768802	93.606918
1979.491267	92.820215
1981.209928	92.981533
1982.931688	93.869239
1984.649646	95.292129
1986.368977	94.822902
1988.084509	95.752027
1989.804861	95.929888
1991.521415	96.844430
1993.234172	95.940669
1994.950026	96.128980
1996.663806	96.086116
1998.377237	95.428867
2000.088597	95.443876
2001.801330	94.750500
2003.510271	94.572695
2005.222306	94.721812
2006.928831	94.266216
2008.638449	94.139212
2010.345999	93.521912
2012.053202	93.533296
2013.758339	93.059296
2015.463129	93.161944
2017.169291	92.944557
2018.871671	94.199263
2020.575423	94.229740
2022.277111	93.087299
2023.978455	93.025071
2025.679453	93.924984
2027.378391	93.489192
2029.078699	94.788232
2030.775233	95.853776
2032.473138	96.322811
2034.168984	96.559326
2035.867916	97.242388
2037.561362	97.390842
2039.256179	97.048855
2040.950654	96.577975
2042.641360	97.109922
2044.335150	96.822422
2046.025173	96.661063
2047.716567	97.095541
2049.405908	97.342829
2051.096619	97.284288
2052.783567	96.762302
2054.470176	96.695218
2056.158155	96.897334
2057.842374	96.311104
2059.527963	96.023902
2061.213213	95.229692
2062.896415	95.025568
2064.580986	94.925285
2066.260095	95.512701
2067.943989	94.657969
2069.622423	95.488555
2071.303933	95.072756
2072.981693	95.419874
2074.659115	94.953131
2076.337907	95.082255
2078.014657	95.391706
2079.689365	95.733544
2081.365442	95.438274
2083.039479	96.864436
2084.713180	96.720747
2086.386546	98.010459
2088.057874	97.225782
2089.728867	97.360042
2091.399526	96.880684
2093.069850	97.767429
2094.739841	98.157790
2096.407796	99.099088
2098.075418	98.649579
2099.741005	98.713561
2101.407962	97.884890
2103.072884	98.862996
2104.737475	98.627471
2106.400034	98.437537
2108.063961	98.169829
2109.725858	98.378516
2111.387423	98.421397
2113.048657	98.791754
2114.707863	98.155138
2116.366738	97.972398
2118.025284	97.914412
2119.683500	98.308356
2121.337992	98.723273
2122.995549	98.587696
2124.652777	98.042162
2126.306283	99.212885
2127.961157	99.492059
2129.612313	99.464492
2131.266530	100.079471
2132.917031	99.785335
2134.568898	99.657926
2136.215357	100.570199
2137.866571	99.736882
2139.514071	100.645910
2141.162938	100.094546
2142.809787	100.389467
2144.456309	99.829657
2146.102506	99.922069
2147.744995	99.730228
2149.390542	100.637209
2151.032382	99.136987
2152.677279	98.666430
2154.318471	96.978324
2155.959339	97.099817
2157.599883	96.582709
2159.238415	97.717261
2160.878313	97.330804
2162.514511	97.681020
2164.152076	97.624307
2165.789317	98.155125
2167.424549	97.313753
2169.059460	98.338632
2170.694049	98.349095
2172.328316	98.424796
2173.958890	98.719573
2175.592516	98.945281
2177.222450	100.150700
2178.853749	100.336162
2180.483043	100.527444
2182.112018	101.502600
2183.740673	101.186286
2185.369010	101.381326
2186.995343	101.251647
2188.621358	101.251691
2190.245372	100.804101
2191.870750	101.974641
2193.494129	100.938549
2195.118871	101.264427
2196.739933	101.470815
2198.360678	101.348964
2199.982788	101.406623
2201.602900	101.165718
2203.221015	100.620908
2204.838815	100.375544
2206.456300	99.620603
2208.073469	100.144871
2209.690323	99.658240
2211.306862	100.032344
2212.921407	99.573306
2214.533960	99.210572
2216.147877	97.196632
2217.759803	97.115969
2219.373092	97.412496
2220.984391	97.740250
2222.593700	97.379624
2224.204373	97.474310
2225.813057	97.484724
2227.421429	98.069575
2229.027813	96.866831
2230.635561	97.237345
2232.241322	96.883930
2233.846772	97.483023
2235.450237	97.446765
2237.055065	97.853213
2238.657909	97.421951
2240.258771	97.743305
2241.860994	97.588250
2243.461236	96.417235
2245.062840	96.026873
2246.660792	94.678651
2248.260106	94.490881
2249.857440	94.673869
2251.454465	94.670863
2253.052853	95.121428
2254.647592	94.327061
2256.240354	94.703002
2257.834479	94.563092
2259.429965	95.019207
2261.021807	94.898532
2262.613342	95.269820
2264.206238	94.272545
2265.793825	94.654893
2267.386109	94.499038
2268.973085	94.275845
2270.563090	94.716382
2272.147790	95.256215
2273.737183	94.524741
2275.321275	95.048859
2276.906728	94.404239
2278.490211	95.068367
2280.076721	95.116495
2281.659597	96.204682
2283.242169	96.007302
2284.824438	96.055495
2286.403078	95.477209
2287.984741	96.068236
2289.562776	96.475350
2291.143834	96.333505
2292.721265	96.007293
2294.296733	96.724486
2295.875223	96.126050
2297.450089	96.185436
2299.024654	96.587105
2300.598919	96.957878
2302.172883	97.830444
2303.746547	98.823256
2305.319910	98.889356
2306.889655	99.087862
2308.459101	99.459826
2310.031565	99.593673
2311.598755	100.929109
2313.168963	101.394507
2314.735556	101.854664
2316.303509	102.022134
2317.869506	101.457391
2319.435206	102.712086
2321.000609	102.955319
2322.564057	102.527584
2324.128865	102.216814
2325.690065	101.960334
2327.254279	101.818469
2328.813231	102.839042
2330.375198	102.286112
2331.935214	101.933762
2333.494934	102.182765
2335.052705	101.685523
2336.610181	101.375819
2338.167363	101.429260
2339.722597	100.661451
2341.277538	100.905005
2342.832185	99.846913
2344.386538	99.467581
2345.940597	98.425359
2347.494362	98.315878
2349.046184	97.217152
2350.596062	98.375230
2352.148948	98.599891
2353.696592	98.409499
2355.247243	97.986924
2356.794303	97.984284
2358.342722	98.747917
2359.890848	99.539976
2361.435386	99.912269
2362.981282	100.992687
2364.525240	101.500916
2366.070555	100.869065
2367.612285	100.419172
2369.155372	100.566159
2370.696524	100.403731
2372.237386	100.904808
2373.777959	100.997343
2375.318242	100.676893
2376.858237	101.511628
2378.394654	101.730093
2379.934072	101.542807
2381.469913	101.568930
2383.007110	101.475169
2384.540732	101.473965
2386.077355	101.601104
2387.612046	101.336337
2389.144808	101.697238
2390.677283	102.068467
2392.207830	101.623727
2393.741376	101.787517
2395.269709	101.857869
2396.799400	101.241127
2398.328805	100.961621
2399.857924	101.215468
2401.386759	101.283607
2402.910388	101.787006
2404.438654	102.570540
2405.961716	102.578315
2407.489412	102.040818
2409.010269	102.517383
2410.535759	101.997500
2412.057688	103.768061
2413.580973	103.935918
2415.102337	103.726018
2416.621781	103.322588
2418.142580	103.132523
2419.661460	103.229024
2421.180058	102.965330
2422.696739	102.532798
2424.214774	102.839452
2425.732528	102.077390
2427.246731	101.622340
2428.760653	101.602535
2430.274295	102.015476
2431.789292	101.659117
2433.300740	102.255792
2434.813543	102.349108
2436.324432	102.710262
2437.835043	103.336869
2439.343742	102.304669
2440.855427	102.458768
2442.363569	102.906401
2443.871433	103.373642
2445.379019	103.183411
2446.883064	102.632811
2448.390095	102.850107
2449.895217	103.204241
2451.400062	103.459693
2452.902999	102.597975
2454.405661	102.948257
2455.908046	102.745822
2457.408526	102.087600
2458.910359	102.133579
2460.410288	103.308351
2461.909941	102.892076
2463.409318	103.022676
2464.906793	102.312400
2466.402366	101.469353
2467.900919	100.999952
2469.395944	101.271622
2470.892322	101.036380
2472.385172	102.445613
2473.879376	102.319979
2475.373306	102.482988
2476.863712	102.436712
2478.357096	103.346909
2479.848582	103.910432
2481.338171	103.949352
2482.827488	103.115459
2484.314910	103.437803
2485.805307	102.914438
2487.292185	102.880815
2488.780415	102.772521
2490.265129	102.845019
2491.749572	102.320773
2493.235367	102.493560
2494.719269	101.870649
2496.204523	100.969157
2497.684642	100.689768
2499.167735	101.117845
2500.648937	101.814084
2502.129870	101.243532
2503.608914	100.872198
2505.087689	100.396649
2506.566196	100.116528
2508.044435	100.867686
2509.522405	100.474087
2510.996871	100.965779
2512.474305	100.960339
2513.948236	101.666307
2515.423517	101.016318
2516.898532	101.030294
2518.370045	101.193822
2519.842908	101.361189
2521.313889	100.234740
2522.786220	100.122095
2524.253438	100.870841
2525.723621	101.348375
2527.191924	101.293669
2528.659962	101.765182
2530.127735	102.120769
2531.595243	103.496906
2533.062486	103.946215
2534.526237	104.299839
2535.991338	104.238230
2537.454562	104.997404
2538.919136	103.734692
2540.380220	103.154330
2541.842654	102.547397
2543.304825	102.611951
2544.763510	102.019263
2546.226767	101.641930
2547.684927	101.850548
2549.144436	101.422444
2550.598852	101.577534
2552.057837	101.865762
2553.514951	101.383110
2554.970194	102.049243
2556.425176	102.262223
2557.878288	103.342881
2559.332749	103.879118
2560.785341	104.207727
2562.237673	104.772185
2563.688137	105.345203
2565.141557	106.013050
2566.589895	107.173193
2568.041189	106.887089
2569.490616	107.603713
2570.936571	107.190541
2572.385481	107.150137
2573.830921	107.069205
2575.277709	107.858694
2576.722633	107.177154
2578.167299	107.840373
2579.613314	107.984074
2581.055861	109.338688
2582.499756	109.536319
2583.940186	109.289445
2585.381963	108.774593
2586.821881	108.928601
2588.263146	108.994280
2589.700950	109.213539
2591.141703	108.561600
2592.577393	108.182630
2594.016033	107.638379
2595.452816	107.087329
2596.887742	106.020760
2598.325617	106.441005
2599.758433	106.837257
2601.192597	107.609350
2602.624907	107.666233
2604.058563	108.638636
2605.490366	109.660238
2606.921915	109.973755
2608.353212	111.793516
2609.782656	112.341642
2611.211848	113.080553
2612.639190	114.168764
2614.067878	114.269383
2615.496313	115.284746
2616.921301	115.342506
2618.347636	116.243815
2619.772122	116.593102
2621.197954	117.226812
2622.620342	118.531005
2624.044076	119.789140
2625.465963	119.916938
2626.887601	120.652537
2628.307393	121.149426
2629.728531	122.247328
2631.149419	123.362494
2632.566869	123.661669
2633.987258	124.038640
2635.404210	125.315254
2636.820913	125.758659
2638.237369	126.589834
2639.653575	126.485785
2641.069534	126.987530
2642.483652	127.119320
2643.897523	127.782504
2645.309554	127.714721
2646.722930	128.587216
2648.132876	129.132231
2649.545757	129.568825
2650.955210	130.455081
2652.364417	131.574078
2653.771788	132.444090
2655.182094	133.493752
2656.590563	135.077639
2657.997197	135.995196
2659.403586	136.642550
2660.808141	137.381740
2662.214040	137.147454
2663.618106	138.296217
2665.021927	139.021742
2666.425505	138.976325
2667.827250	138.849125
2669.230339	139.203312
2670.630010	138.830542
2672.031025	138.430856
2673.428624	138.465400
2674.829153	138.560339
2676.226267	138.012919
2677.624724	137.447515
2679.021353	137.272717
2680.417740	135.569052
2681.813886	133.607487
2683.208205	132.235586
2684.603867	131.121183
2685.996119	129.497535
2687.389714	127.866019
2688.781486	126.736180
2690.174599	125.661744
2691.565889	124.328156
2692.955356	123.319691
2694.344583	122.239186
2695.733571	121.142319
2697.123901	120.048397
2698.509246	119.397744
2699.897515	118.046481
2701.283964	116.628780
2702.670174	116.467176
2704.056146	115.154178
2705.438718	114.059693
2706.822633	113.863951
2708.206310	113.608482
2709.589749	113.244932
2710.969792	113.122706
2712.351177	113.678904
2713.730746	112.507784
2715.111657	112.159060
2716.490752	111.933780
2717.868034	112.306239
2719.246657	112.410795
2720.623467	112.026515
2722.000041	112.338811
2723.376379	112.943597
2724.750905	113.990894
2726.126772	113.164806
2727.499252	113.044867
2728.874648	114.216877
2730.245084	114.668816
2731.616861	114.989947
2732.988403	114.470928
2734.358137	113.367551
2735.729212	112.575392
2737.098478	111.632519
2738.467512	111.624142
2739.834738	111.717374
2741.201732	111.783302
2742.568493	111.339404
2743.935021	111.539343
2745.299744	110.633370
2746.664236	110.294463
2748.028495	109.250351
2749.392522	108.438038
2750.756318	107.629286
2752.116740	106.258807
2753.480073	105.125027
2754.838463	103.822667
2756.199763	102.913303
2757.557692	103.303002
2758.918531	102.297871
2760.277569	102.386976
2761.633239	101.967097
2762.991817	101.427650
2764.347028	100.767979
2765.702011	100.252450
2767.055196	99.198887
2768.411288	97.872477
2769.764016	97.968511
2771.116515	97.392604
2772.468786	97.432885
2773.822396	96.698215
2775.172644	97.084101
2776.521099	97.870287
2777.872458	97.919918
2779.220458	97.631533
2780.569796	96.859750
2781.917343	97.237048
2783.264662	97.159540
2784.611755	96.754370
2785.957057	96.379502
2787.302133	95.987988
2788.646982	96.815289
2789.991606	98.041442
2791.332878	98.125032
2792.675488	98.693516
2794.017872	99.603674
2795.360032	99.893586
2796.698842	98.646686
2798.040551	98.511048
2799.378913	97.987635
2800.718612	97.835678
2802.056525	97.668668
2803.392654	98.596928
2804.728559	99.048449
2806.065802	98.956992
2807.401261	99.615428
2808.736497	100.351381
2810.069950	101.015956
2811.404741	101.397216
2812.736190	100.598455
2814.070535	100.436961
2815.399982	99.549234
2816.730766	99.643427
2818.061328	99.215446
2819.390111	97.701431
2820.720230	96.056499
2822.048571	95.701514
2823.376691	95.558166
2824.703033	95.320529
2826.030712	94.619831
2827.355057	93.320180
2828.680739	92.700698
2830.004645	92.278633
2831.328332	90.512322
2832.653354	89.679964
2833.975046	88.583983
2835.296520	88.204503
2836.617775	87.413866
2837.938811	88.020734
2839.258075	88.035726
2840.578674	88.321659
2841.897501	89.358231
2843.216110	87.980056
2844.532948	87.503953
2845.849569	88.124517
2847.165973	88.863559
2848.480608	88.329015
2849.796577	87.794354
2851.109226	88.931240
2852.423211	90.126519
2853.736978	91.661207
2855.050530	92.623984
2856.362314	93.313255
2857.672332	93.465915
2858.983685	94.566447
2860.291723	94.756599
2861.601096	95.524984
2862.910253	95.567350
2864.219195	95.568646
2865.526373	96.024761
2866.831789	96.906218
2868.138539	97.454697
2869.443526	97.153218
2870.748300	96.549627
2872.051312	96.733540
2873.357206	96.961962
2874.658244	98.529386
2875.960617	98.688669
2877.261230	98.448986
2878.563177	97.621449
2879.864911	97.496335
2881.163340	97.814913
2882.463104	98.025992
2883.761109	97.384415
2885.058903	97.997491
2886.354941	98.003451
2887.652312	98.215995
2888.947927	98.272822
2890.243331	98.987238
2891.538524	99.301929
2892.830420	99.409468
2894.125192	99.259933
2895.416667	98.976823
2896.709475	99.858720
2898.002073	100.304132
2899.291377	99.915001
2900.582013	99.178145
2901.870898	99.529997
2903.161116	100.109839
2904.448041	99.110406
2905.736300	99.288974
2907.022808	98.138688
2908.309109	98.085187
2909.595201	97.676299
2910.879545	97.685004
2912.166760	96.552288
2913.449149	96.911715
2914.732870	96.636433
2916.014845	96.209254
2917.296612	95.864798
2918.576635	95.193276
2919.859527	94.266683
2921.140674	93.875374
2922.418539	93.818417
2923.699273	94.006981
2924.976726	93.140687
2926.253973	93.501876
2927.529479	91.700009
2928.807852	91.520747
2930.081410	91.692692
2931.357836	92.033440
2932.632521	91.954488
2933.905466	91.584070
2935.179741	91.235036
2936.452277	91.880907
2937.724609	90.987674
2938.993667	90.783546
2940.265591	90.527951
2941.535777	90.587067
2942.805760	90.495694
2944.075539	90.432179
2945.343581	91.291099
2946.609888	91.824032
2947.875992	91.067586
2949.143426	90.789611
2950.409126	90.909752
2951.674623	91.248388
2952.939918	90.869938
2954.201948	90.772080
2955.465309	90.618810
2956.728467	91.889267
2957.989894	90.980405
2959.252650	92.050404
2960.513675	91.429002
2961.772968	91.289664
2963.032062	91.494044
2964.290955	92.038627
2965.549648	90.981980
2966.808141	90.698163
2968.064905	91.457071
2969.321469	91.336437
2970.576306	90.691596
2971.832471	90.639029
2973.085382	90.383416
2974.339622	90.832833
2975.593663	90.689869
2976.845978	90.337934
2978.098095	89.653240
2979.348486	90.527750
2980.601733	89.534203
2981.850203	89.738994
2983.101528	89.527514
2984.349603	89.426419
2985.597482	89.283599
2986.845163	89.168908
2988.092648	88.153759
2989.338410	88.477150
2990.583977	89.193961
2991.830871	89.497975
2993.074521	89.556150
2994.319499	90.239474
2995.561233	89.865836
2996.805819	89.655155
2998.048686	89.026026
2999.288312	89.918487
3000.530788	89.622300
3001.770025	89.439430
3003.010589	88.606396
3004.249436	89.219386
3005.488089	89.671151
3006.725026	89.680051
3007.963290	89.866133
3009.199840	90.462503
3010.436195	89.463022
3011.672357	89.395244
3012.906806	89.523077
3014.141061	89.022819
3015.375123	88.752376
3016.607473	89.759662
3017.838111	89.464942
3019.071595	89.307256
3020.303367	89.331507
3021.533429	90.336219
3022.763299	90.883398
3023.991459	90.748706
3025.220945	90.311488
3026.448723	90.064052
3027.676309	90.070230
3028.905221	90.714381
3030.129391	90.110397
3031.356404	90.824325
3032.580193	90.412199
3033.805309	90.447288
3035.028718	89.856992
3036.251937	89.620843
3037.473451	88.462250
3038.697807	88.212365
3039.917426	88.048994
3041.138372	87.336310
3042.359129	86.782787
3043.578182	86.627366
3044.798561	85.607435
3046.015723	85.472460
3047.234210	84.948920
3048.450995	84.742545
3049.667593	84.199642
3050.884002	84.855552
3052.097199	84.658720
3053.313233	85.227759
3054.526055	85.715188
3055.741714	85.865278
3056.952650	86.089402
3058.164911	86.504712
3059.376986	86.516694
3060.588874	86.567424
3061.799064	86.342646
3063.009068	86.350447
3064.218887	86.778546
3065.427009	86.593368
3066.634945	86.282848
3067.841187	87.226083
3069.048752	86.756521
3070.254624	86.843025
3071.460310	86.726118
3072.665811	86.270653
3073.869619	86.419560
3075.074751	86.540682
3076.278191	86.367878
3077.479938	86.428588
3078.681502	86.118535
3079.882881	85.309416
3081.084078	84.741162
3082.283583	83.507902
3083.482906	82.429997
3084.683552	82.198613
3085.882508	81.206602
3087.078270	81.317034
3088.276861	82.010275
3089.472258	81.600589
3090.668978	81.079070
3091.862506	81.241642
3093.058862	81.114499
3094.253532	81.182364
3095.445011	80.864392
3096.640821	81.036978
3097.831938	81.992591
3099.024377	82.378647
3100.213629	82.104136
3101.405707	83.463004
3102.596100	83.121672
3103.783308	83.344827
3104.971839	83.609342
3106.161692	83.836742
3107.348360	83.007618
3108.534849	82.924434
3109.721158	82.846787
3110.908789	83.793992
3112.093239	85.019399
3113.276008	85.481932
3114.461600	86.022732
3115.645513	86.328758
3116.827747	85.846084
3118.009802	87.234604
3119.191680	86.854627
3120.373379	87.196230
3121.553400	87.280627
3122.731745	87.620027
3123.912911	87.286212
3125.090901	87.605895
3126.268714	87.829809
3127.446350	87.461962
3128.622311	87.872429
3129.798095	88.185562
3130.975201	88.726973
3132.150632	88.421205
3133.324390	88.432021
3134.496476	88.559793
3135.669882	88.059130
3136.843113	87.221013
3138.014671	86.579105
3139.187550	86.206894
3140.357263	85.928492
3141.528295	85.314145
3142.697658	85.222244
3143.865351	85.271949
3145.035859	85.118478
3146.201708	84.311292
3147.371867	83.734142
3148.537368	84.085663
3149.702696	82.754793
3150.867850	83.021480
3152.032830	82.359178
3153.199131	82.072939
3154.360778	81.626489
3155.523746	82.408814
3156.686540	82.221572
3157.849162	82.518090
3159.010119	82.024687
3160.170903	81.186234
3161.331515	80.344273
3162.490464	79.824608
3163.649240	79.764902
3164.807845	80.741075
3165.966278	79.529251
3167.124539	79.626986
3168.281138	78.548209
3169.436076	78.222025
3170.592333	77.786295
3171.746929	77.775776
3172.901355	77.427767
3174.054121	76.958707
3175.206717	77.617453
3176.359142	77.835787
3177.511398	77.489842
3178.663483	77.435687
3179.812423	77.321550
3180.964169	77.201209
3182.114257	77.853349
3183.262689	78.220887
3184.410952	78.474724
3185.559045	78.756455
3186.706970	79.382770
3187.853240	80.191444
3188.999341	80.616218
3190.143787	80.919560
3191.288066	81.363406
3192.432177	81.650552
3193.577606	82.189157
3194.719895	83.226799
3195.862018	83.196780
3197.003973	83.549932
3198.145762	83.402435
3199.287383	84.167451
3200.425868	83.795881
3201.565671	83.769436
3202.706792	83.001811
3203.844778	83.917309
3204.981115	83.490763
3206.117286	83.426166
3207.254775	83.283852
3208.390614	83.191972
3209.527771	82.877085
3210.660315	82.983149
3211.797141	81.682630
3212.929355	80.586273
3214.062886	79.920891
3215.196253	79.457978
3216.326492	79.085501
3217.459529	77.911986
3218.589440	78.421009
3219.720667	78.833204
3220.848770	78.878485
3221.979669	78.114556
3223.108924	77.429949
3224.236536	76.684615
3225.361026	76.785684
3226.489790	76.724351
3227.615434	76.445163
3228.740914	75.893691
3229.864753	76.290837
3230.991386	76.032257
3232.113422	76.845639
3233.236774	77.050041
3234.359964	76.632925
3235.482992	76.553074
3236.604380	76.198359
3237.725607	77.174833
3238.845195	77.754723
3239.964622	78.882285
3241.082411	78.109350
3242.202993	77.977146
3243.320460	78.218749
3244.437767	78.902609
3245.554914	78.677429
3246.670425	79.223871
3247.787251	79.875850
3248.900966	80.577599
3250.017471	79.913949
3251.132342	80.413373
3252.244104	81.156630
3253.355707	81.087809
3254.468624	81.113770
3255.581383	81.284964
3256.691035	80.638182
3257.802001	80.884005
3258.912809	80.101065
3260.021986	79.837715
3261.129531	79.692076
3262.238390	79.155186
3263.347092	79.789109
3264.452691	79.435159
3265.559604	78.332187
3266.664888	78.101785
3267.771487	77.688206
3268.874985	77.473843
3269.979797	77.821257
3271.084452	77.414830
3272.186008	77.425040
3273.287409	77.218740
3274.390123	77.133256
3275.492680	76.530922
3276.592141	77.127309
3277.694386	77.055177
3278.793535	76.410114
3279.891060	77.406667
3280.988429	77.701819
3282.088581	79.048130
3283.185639	78.573550
3284.282542	78.267996
3285.379290	77.788307
3286.471480	78.737358
3287.567918	78.947424
3288.662734	79.303591
3289.757396	79.326903
3290.850436	80.226812
3291.943322	79.525136
3293.034587	79.963991
3294.127165	79.778254
3295.218122	80.327571
3296.307460	80.198565
3297.396645	80.012182
3298.487143	79.801379
3299.574556	80.076530
3300.661817	80.029212
3301.750390	80.466879
3302.838810	79.703573
3303.922683	80.141276
3305.010798	80.308417
3306.095832	79.769859
3307.179249	79.852123
3308.263979	80.018356
3309.347094	79.500646
3310.431520	78.923251
3311.512868	78.903809
3312.595528	79.036917
3313.676574	78.231066
3314.757469	78.064750
3315.836750	77.561098
3316.915882	77.124888
3317.996324	77.469117
3319.073693	77.595039
3320.152372	77.389144
3321.229441	76.669667
3322.306359	75.904769
3323.381666	77.254479
3324.456824	75.351564
3325.533293	74.729059
3326.606692	73.502753
3327.679942	73.945587
3328.754502	73.847925
3329.827454	73.862773
3330.898797	73.342402
3331.971452	73.604991
3333.041039	73.107644
3334.111937	72.372665
3335.181228	71.629927
3336.251830	71.946992
3337.320825	71.554536
3338.388214	71.911423
3339.453998	71.386426
3340.524008	71.689664
3341.590955	71.528012
3342.654840	72.664383
3343.721493	72.017955
3344.786541	72.059021
3345.849986	71.919329
3346.913285	72.557568
3347.976437	72.965557
3349.039443	73.126122
3350.102303	73.458694
3351.163561	73.629028
3352.221762	74.234648
3353.284184	75.030822
3354.343549	75.052734
3355.402769	75.148903
3356.463299	74.839941
3357.519319	75.940394
3358.578104	76.741189
3359.632381	77.398373
3360.689421	77.435573
3361.744864	78.164383
3362.801615	77.624355
3363.856768	78.201732
3364.910325	78.809730
3365.962284	80.250674
3367.017005	79.267869
3368.068677	79.699538
3369.120206	80.175187
3370.173043	80.410057
3371.222833	78.662529
3372.273932	78.817540
3373.321985	78.352768
3374.372798	78.139334
3375.420565	77.203381
3376.468190	76.603626
3377.515672	76.387526
3378.561562	75.552960
3379.608760	75.161656
3380.652916	75.037759
3381.699830	75.600925
3382.745152	75.606964
3383.787433	75.295484
3384.829574	74.912086
3385.873022	74.066019
3386.916330	73.891378
3387.958047	73.979934
3388.999623	73.811017
3390.041059	73.147860
3391.080905	73.049915
3392.119164	72.177770
3393.158730	72.459876
3394.198155	72.620062
3395.235993	71.804765
3396.272244	70.620882
3397.308356	70.671940
3398.345775	71.103918
3399.380161	71.707854
3400.415854	72.113631
3401.451408	71.736468
3402.483931	71.736372
3403.519207	72.799468
3404.551452	71.820023
3405.583559	72.987465
3406.614082	73.271251
3407.645912	73.192975
3408.677604	72.607527
3409.706269	72.691130
3410.734795	72.371875
3411.764629	72.492032
3412.794324	72.623971
3413.820994	72.765276
3414.848971	72.913530
3415.873923	73.066314
3416.901625	73.221213
3417.926304	73.375808
3418.952289	73.527683
3419.976694	73.674421
3421.000963	73.813604
3422.023653	73.942816
3423.046207	74.059638
3424.070067	74.161655
3425.090907	74.246449
3426.111612	74.311602
3427.133622	74.354699
3428.152614	74.373320
3429.171471	74.365051
3430.191633	74.327472
3431.208779	74.258168
