-118.047834	10.993571
-115.378234	11.443931
-112.711569	11.786047
-110.045656	12.028526
-107.382675	12.179975
-104.718265	12.249002
-102.056785	12.244213
-99.393875	12.174217
-96.736073	12.047619
-94.076840	11.873028
-91.418357	11.659050
-88.762797	11.414293
-86.105809	11.147364
-83.453918	10.866869
-80.800598	10.581417
-78.150198	10.299615
-75.498368	10.030069
-72.851629	9.781387
-70.203460	9.562175
-67.556035	9.381042
-64.911523	9.246595
-62.265583	5.939744
-59.624724	-4.057084
-56.982436	-38.719883
-54.343056	-113.682997
-51.702248	-170.231511
-49.062180	-158.848388
-46.427184	-93.485632
-43.790760	-26.075605
-41.157238	36.633871
-38.522288	96.669283
-35.892403	152.304529
-33.258926	203.569802
-30.630511	251.220263
-28.002829	295.672704
-25.373720	335.782927
-22.749667	372.085218
-20.122025	403.732161
-17.499436	432.248135
-14.877579	456.233208
-12.256452	477.288760
-9.636055	493.158654
-7.018546	505.743073
-4.399609	513.309870
-1.783558	516.911349
0.831765	515.272076
3.446361	510.443876
6.058074	502.292661
8.671216	490.170548
11.279324	473.677927
13.891014	453.429905
16.497673	429.354810
19.105760	400.331494
21.713123	367.554296
24.315461	331.181090
26.921377	289.603172
29.522271	245.235141
32.124593	196.287159
34.721898	144.689109
37.322778	89.216419
39.918644	28.981295
42.515937	-34.562887
45.112511	-96.893656
47.704076	-152.460387
50.297069	-173.062673
52.887201	-121.896549
55.478761	-42.126498
58.067461	5.199782
60.657588	9.673524
63.242717	10.312679
65.829272	10.185423
68.415114	9.449016
70.998102	8.796208
73.582516	8.737166
76.159802	8.908316
78.740654	7.537017
81.318657	6.641970
83.895950	4.243492
86.474669	2.672372
89.048407	-0.594511
91.623571	-2.188839
94.195892	-3.715952
96.767505	-3.892312
99.336278	-4.559243
101.906478	-2.090903
104.473840	0.466534
107.042627	6.142327
109.608578	12.554976
112.171694	19.437436
114.738366	27.157598
117.295817	36.296056
119.858953	45.438715
122.417130	55.489738
124.978860	66.590528
127.535634	77.886234
130.093835	89.088608
132.647083	101.682373
135.199632	113.257978
137.755732	125.602653
140.306885	136.890837
142.857339	148.268642
145.407096	159.540141
147.954035	170.795035
150.500277	180.026345
153.047945	189.654352
155.594917	199.212640
158.136954	207.739967
160.678297	215.224006
163.218947	221.767054
165.761023	226.966565
168.300287	230.102138
170.836743	233.177468
173.372507	234.662237
175.909697	235.846647
178.446196	235.017614
180.979889	233.130922
183.510779	230.802422
186.040980	227.423539
188.572606	224.275745
191.101431	221.119717
193.627457	218.758576
196.152797	217.363192
198.679563	215.747877
201.203531	213.801497
203.726815	213.815406
206.249414	213.215620
208.769220	214.094166
211.288343	214.025293
213.806783	215.324207
216.326647	216.322671
218.839510	217.624224
221.355904	218.201475
223.871616	218.554540
226.382438	219.536729
228.894686	220.832964
231.404150	221.082857
233.912936	222.368249
236.421044	222.923714
238.930575	224.711741
241.435226	224.461111
243.939202	225.469174
246.444601	225.940133
248.945125	227.556617
251.449172	227.917178
253.946249	229.320468
256.446848	230.215738
258.944676	230.460749
261.441831	230.730067
263.938313	230.390336
266.429932	229.340809
268.925071	228.015930
271.417444	226.945176
273.909146	226.847205
276.398084	228.964575
278.888447	231.661050
281.376047	235.456927
283.860888	239.266622
286.349244	242.889581
288.830660	245.659305
291.315590	248.781810
293.795675	252.254392
296.279272	256.402151
298.758026	259.248737
301.238204	262.316947
303.715629	265.230695
306.192391	267.689358
308.668490	271.249963
311.141840	273.512256
313.614528	276.604586
316.086555	277.917169
318.557921	279.366683
321.026543	279.903290
323.494505	280.876325
325.963889	282.222819
328.428451	282.574410
330.896517	282.767643
333.359763	282.494232
335.822351	282.335556
338.284283	281.533025
340.745558	279.981033
343.204099	279.675243
345.664062	279.141350
348.121292	277.720996
350.577868	275.109198
353.033790	273.574619
355.486983	271.516187
357.941597	269.503137
360.391410	266.410192
362.844719	263.830289
365.293230	260.668323
367.741090	259.932000
370.190371	260.279851
372.634859	261.406117
375.080769	263.365845
377.526030	265.777324
379.968571	266.100415
382.410465	266.752677
384.851712	266.857773
387.290243	267.034063
389.730196	268.638732
392.167435	268.512649
394.601962	268.207269
397.039977	268.317156
399.473215	267.994930
401.907875	267.786448
404.337761	268.313644
406.771133	269.904171
409.199735	270.316131
411.627696	270.626672
414.057077	270.429709
416.481693	270.681509
418.907731	270.425599
421.333128	271.180562
423.757885	270.758694
426.177884	270.175265
428.599304	269.493350
431.018027	268.575051
433.438171	268.624085
435.855620	267.729526
438.274489	266.678887
440.690665	266.265295
443.102094	264.503473
445.516999	263.303613
447.929214	262.794725
450.340795	263.717998
452.751742	263.388115
455.160003	262.986492
457.567631	261.886047
459.974628	260.997160
462.380992	259.552703
464.784674	258.786033
467.187726	257.364161
469.590148	255.749627
471.991941	255.079419
474.391055	253.755426
476.791589	250.748043
479.191494	248.978664
481.586676	245.912649
483.985325	242.247659
486.379254	238.155378
488.772557	233.362045
491.165234	230.059549
493.557286	226.514573
495.950756	221.525926
498.339515	217.691256
500.725607	213.471975
503.113118	209.157542
505.500007	203.734879
507.884232	198.383128
510.269876	193.844797
512.652857	188.537619
515.033178	183.388141
517.414918	178.203613
519.793999	172.302766
522.174499	167.514756
524.552341	162.441830
526.927528	158.077787
529.302097	153.749705
531.678085	149.619765
534.051419	146.844251
536.426171	144.742009
538.796238	142.437292
541.165689	141.777639
543.536558	140.007047
545.902747	139.640438
548.270354	138.429015
550.635315	137.172473
552.999663	135.949496
555.363399	135.037235
557.728552	134.294926
560.089032	134.758685
562.450931	135.564920
564.810190	135.601047
567.166810	135.314695
569.526875	134.605005
571.880250	133.509926
574.237069	133.600284
576.591252	132.845390
578.944828	131.755334
581.297795	131.171281
583.648131	131.093403
585.999883	130.459043
588.344959	130.260657
590.695499	129.011942
593.039365	129.001357
595.388693	128.315677
597.733373	128.193652
600.075427	127.375160
602.418899	126.616598
604.759748	125.460007
607.099995	124.898800
609.437621	124.136459
611.778682	123.364169
614.115105	122.760042
616.452945	122.217749
618.788168	120.946507
621.120775	120.497592
623.454798	119.170077
625.786208	117.981744
628.117019	116.344457
630.447232	115.477050
632.776847	113.498778
635.101840	112.616379
637.432274	111.134155
639.758086	110.896627
642.081292	109.837855
644.405913	108.903080
646.727929	107.804232
649.049352	107.327126
651.368171	106.266739
653.688406	106.077237
656.008048	104.478319
658.325089	103.632711
660.641538	102.775283
662.955389	102.631332
665.270656	102.025472
667.583326	102.028435
669.897411	101.651049
672.206896	100.960997
674.517797	101.052376
676.826105	100.580226
679.133825	99.607736
681.442960	99.089825
683.747502	97.765378
686.051457	97.955469
688.354827	97.448126
690.659611	96.884511
692.959809	95.306305
695.261421	94.897299
697.562449	95.153925
699.858894	95.193656
702.156755	94.545831
704.454032	94.593001
706.750726	94.620935
709.042844	94.923055
711.338373	94.812125
713.629329	94.296021
715.921699	93.710297
718.211493	94.616955
720.500707	94.567917
722.789342	95.441027
725.075405	95.242746
727.362881	95.784048
729.647786	96.050753
731.932114	97.010110
734.213873	97.433287
736.497046	97.592482
738.779642	97.741206
741.057683	98.092020
743.337137	98.083049
745.616016	99.235220
747.894319	99.727209
750.168073	101.260456
752.443241	102.310376
754.717835	104.371648
756.989869	105.211554
759.263317	105.260971
761.534207	106.665775
763.802541	106.928003
766.072288	106.288564
768.339481	106.179794
770.606103	106.221196
772.872155	106.426746
775.135656	106.040600
777.400570	106.587159
779.664914	106.727855
781.924729	106.935948
784.185957	106.426367
786.446616	107.027292
788.704730	106.524909
790.960299	106.304965
793.219259	106.815755
795.471720	106.880226
797.729548	106.779593
799.982856	107.001780
802.233625	105.362167
804.485806	105.599315
806.735449	106.288154
808.986503	106.276133
811.233046	104.655600
813.481001	104.329975
815.726422	104.359379
817.973254	103.383289
820.219525	102.764697
822.461292	102.072211
824.706441	100.931751
826.945118	99.201750
829.187177	98.710175
831.424738	97.659894
833.663711	97.155504
835.900157	97.247210
838.138014	96.645168
840.373346	96.528548
842.606155	96.166089
844.840375	96.090610
847.072073	94.619146
849.303215	94.249762
851.533804	93.894411
853.763837	93.075579
855.993317	92.274104
858.218315	92.803857
860.446688	92.179039
862.670582	91.759366
864.895886	91.140935
867.116715	91.472076
869.340916	91.508731
871.560644	90.837297
873.781783	90.664785
876.002371	90.983525
878.220449	90.781810
880.439938	91.466046
882.654959	91.535499
884.869434	90.818173
887.083360	91.016166
889.296740	91.092456
891.509572	90.852472
893.721858	91.965081
895.931641	91.616746
898.140879	91.480924
900.349572	91.545037
902.555766	93.141647
904.763369	92.848357
906.968474	91.994764
909.173036	92.018273
911.375103	92.465487
913.578579	92.616820
915.779561	92.591007
917.980002	93.243828
920.181850	93.514765
922.377308	94.124669
924.576125	94.441232
926.770503	93.793765
928.968239	94.225477
931.161539	94.943274
933.356248	96.125293
935.548471	96.556831
937.740156	97.009228
939.931303	96.766600
942.119967	97.866251
944.308094	98.452280
946.493741	99.410598
948.682740	99.586317
950.867316	100.631144
953.051357	101.671626
955.238748	102.874877
957.417835	104.643161
959.600273	105.721271
961.782177	107.118474
963.961607	108.438802
966.138563	109.754745
968.316928	111.226476
970.496700	111.837925
972.670123	113.574925
974.846892	115.052812
977.019254	116.288206
979.193024	118.254448
981.362390	120.120367
983.535101	122.116423
985.705345	123.660448
987.875061	125.234247
990.044248	126.158838
992.209038	125.938134
994.377169	127.888206
996.540906	129.151185
998.706049	130.216205
1000.868734	131.503997
1003.030892	132.410930
1005.190594	132.862655
1007.349772	134.774187
1009.510356	135.972067
1011.668485	136.891771
1013.826090	138.013482
1015.983172	140.240966
1018.139731	141.795135
1020.291910	143.499250
1022.445495	143.538339
1024.598559	144.746350
1026.749175	146.014320
1028.901196	147.522470
1031.048844	148.427519
1033.199824	149.312531
1035.346433	150.756228
1037.492524	152.150404
1039.638095	154.101178
1041.785072	154.955735
1043.925760	156.349256
1046.069778	157.981557
1048.211355	158.791138
1050.352416	160.080278
1052.494881	160.673799
1054.631067	161.159959
1056.770579	161.780117
1058.905735	162.662991
1061.044216	162.004494
1063.178343	161.417588
1065.311957	160.923234
1067.446976	159.145604
1069.577645	157.690706
1071.709719	156.466831
1073.839364	155.261717
1075.968497	153.207012
1078.097118	151.496248
1080.225228	149.791199
1082.350912	147.271107
1084.476086	145.445168
1086.602664	143.757564
1088.724905	141.960081
1090.848549	139.543370
1092.967860	138.344622
1095.092399	135.183324
1097.210693	133.003059
1099.330392	131.158589
1101.447672	129.341411
1103.564446	127.373201
1105.680713	125.667180
1107.794565	123.057607
1109.909820	122.320066
1112.020753	120.039168
1114.134997	118.714198
1116.244921	117.256626
1118.356249	116.787159
1120.467072	116.626005
1122.573579	115.845054
1124.683396	115.656416
1126.788898	114.448833
1128.895803	115.373908
1130.996493	115.139147
1133.102395	114.087373
1135.203988	114.624827
1137.306984	114.464815
1139.409479	113.558777
1141.505767	113.618269
1143.607263	112.695571
1145.704456	111.974785
1147.801150	112.454208
1149.897346	112.618635
1151.993045	112.633631
1154.088245	113.027135
1156.181050	112.649915
1158.275256	111.905389
1160.363271	111.576517
1162.456484	112.004573
1164.543509	111.715345
1166.633833	112.240495
1168.719870	112.283084
1170.809204	111.893176
1172.892357	111.377800
1174.976912	110.451442
1177.062869	110.829971
1179.144544	110.498246
1181.227621	111.592286
1183.308312	111.190733
1185.388511	112.023784
1187.468219	112.120071
1189.547436	112.000292
1191.624271	111.426175
1193.698725	112.183084
1195.776470	111.719407
1197.849946	112.051202
1199.924822	110.965806
1201.995431	111.387499
1204.067442	110.569318
1206.137076	110.036123
1208.208111	109.217270
1210.278658	108.918565
1212.344944	108.902478
1214.412631	107.877028
1216.477946	107.641097
1218.544661	107.274022
1220.607120	106.564964
1222.672864	106.272429
1224.734355	106.558877
1226.797245	106.252411
1228.857768	105.449012
1230.917807	106.226519
1232.977364	104.455216
1235.034555	103.726205
1237.091265	102.885004
1239.145612	102.710467
1241.203239	101.854880
1243.258504	102.263354
1245.309528	101.757276
1247.361952	101.134770
1249.413896	100.831245
1251.463482	100.457559
1253.512589	99.981723
1255.561218	100.015402
1257.609368	100.161552
1259.657039	100.669942
1261.700481	100.661237
1263.747197	100.818788
1265.791560	99.639810
1267.835447	100.603486
1269.876982	100.839478
1271.916168	101.875352
1273.958627	102.783520
1275.996863	104.437921
1278.036498	104.205903
1280.075658	104.860823
1282.110599	105.271932
1284.146939	107.935420
1286.180935	108.213225
1288.216329	110.734308
1290.247509	112.905834
1292.280088	116.092761
1294.312194	118.704171
1296.341960	121.511235
1298.373124	125.058637
1300.400080	128.950002
1302.428434	132.983385
1304.452584	136.878027
1306.479998	140.378485
1308.503210	144.897046
1310.527820	148.712937
1312.550096	154.206030
1314.573769	158.093992
1316.595109	163.855875
1318.615981	168.694742
1320.636386	173.201453
1322.652598	176.973145
1324.670207	180.607081
1326.685488	183.377848
1328.704028	186.777006
1330.718379	188.093307
1332.730404	190.753061
1334.745686	191.881570
1336.756783	192.104738
1338.769277	191.894878
1340.777588	192.185279
1342.789155	189.841088
1344.794682	187.217584
1346.803465	184.761874
1348.808070	182.838160
1350.815929	180.035569
1352.823326	176.636965
1354.824692	172.416515
1356.827455	167.691204
1358.829757	161.948401
1360.831600	157.744701
1362.832983	153.015341
1364.832053	149.541799
1366.830664	143.412213
1368.828817	140.273568
1370.826511	135.108469
1372.820043	130.396121
1374.814971	126.237139
1376.809441	122.842973
1378.803456	120.104965
1380.795162	116.894899
1382.786414	114.230267
1384.775360	111.919085
1386.765701	110.408430
1388.755587	109.228409
1390.743170	108.130826
1392.730298	108.072128
1394.715125	107.260840
1396.701347	107.042367
1398.685269	106.441620
1400.668738	106.288551
1402.651755	105.031267
1404.632473	104.600528
1406.614587	105.502888
1408.594403	106.042144
1410.573769	105.432981
1412.548995	105.635913
1414.527461	105.198311
1416.503632	104.085231
1418.479355	103.606506
1420.454628	102.893656
1422.427610	101.208299
1424.400144	100.503844
1426.372231	99.662813
1428.343869	98.919630
1430.311379	98.671120
1432.283964	98.961813
1434.248742	98.104974
1436.218592	97.654431
1438.184319	97.363362
1440.151438	97.481592
1442.116274	97.061242
1444.076990	96.949679
1446.042775	96.049051
1448.002604	96.448248
1449.963826	95.254243
1451.926441	95.400711
1453.884941	95.578891
1455.842998	95.284777
1457.800614	94.848615
1459.757788	94.830233
1461.712686	94.479140
1463.668976	94.300380
1465.622992	94.510834
1467.576568	94.300724
1469.527871	94.669658
1471.480566	95.074550
1473.430990	95.094009
1475.380974	95.459505
1477.330520	95.794646
1479.277797	96.720629
1481.222807	96.189323
1483.169208	96.847031
1485.115172	98.029089
1487.060699	97.908705
1489.003961	98.456486
1490.946786	99.371430
1492.887348	99.863829
1494.829301	98.996060
1496.768992	99.739264
1498.708249	99.888582
1500.647070	100.445102
1502.583632	100.249055
1504.521585	100.434426
1506.457279	102.293940
1508.392540	103.443462
1510.325545	104.186033
1512.258117	104.309669
1514.190257	105.326611
1516.121965	105.188128
1518.051419	105.804778
1519.982264	106.777272
1521.912677	108.494694
1523.839018	109.768284
1525.766750	111.070823
1527.692231	112.617191
1529.617283	114.704267
1531.541906	116.554636
1533.466100	119.683298
1535.388047	121.540970
1537.311383	124.489677
1539.232474	126.931166
1541.151320	130.729268
1543.071556	134.650735
1544.989548	138.487364
1546.907114	142.004215
1548.822438	145.847816
1550.739152	149.078136
1552.651811	151.698604
1554.567674	155.814996
1556.481297	159.278219
1558.392683	161.015847
1560.305457	164.269366
1562.214182	166.590135
1564.124297	168.243868
1566.033987	170.016030
1567.943255	170.751486
1569.850289	170.195990
1571.755090	171.100467
1573.661280	171.924251
1575.565238	170.971207
1577.468776	170.018090
1579.371892	168.182512
1581.272780	166.760867
1583.175055	165.689463
1585.075103	162.214560
1586.976538	159.533544
1588.873940	156.571312
1590.770923	152.917095
1592.667488	149.118893
1594.565441	146.830494
1596.457559	143.567390
1598.352870	140.555744
1600.247764	137.221201
1602.140436	134.705428
1604.032692	131.276801
1605.922727	128.811746
1607.812348	126.220559
1609.701552	124.044609
1611.590342	120.574506
1613.476914	120.213055
1615.364874	117.915773
1617.248817	116.945347
1619.134148	115.321454
1621.019064	113.409481
1622.901767	111.362302
1624.785857	110.437942
1626.665936	108.087434
1628.547401	106.793010
1630.426656	105.207369
1632.307297	103.477473
1634.182134	101.274454
1636.061953	99.700161
1637.937766	97.472652
1639.813169	96.651756
1641.689958	95.166246
1643.560951	95.036795
1645.435125	93.457930
1647.305301	93.725708
1649.178657	91.628697
1651.049810	90.211562
1652.918761	89.146564
1654.789098	88.815725
1656.655441	88.486339
1658.523170	87.279397
1660.388701	85.871923
1662.255616	85.563153
1664.118543	83.875352
1665.982855	83.633335
1667.844971	83.737973
1669.706683	83.546376
1671.569779	82.904756
1673.430681	83.278577
1675.289389	83.111052
1677.147694	82.835372
1679.007384	82.770352
1680.861307	82.930468
1682.718402	82.935224
1684.575095	83.867429
1686.427812	84.328012
1688.283699	84.456150
1690.135613	83.246320
1691.987126	84.101614
1693.838238	83.974947
1695.688950	84.900349
1697.539261	84.615681
1699.387388	84.857681
1701.236898	83.827174
1703.080660	83.409822
1704.929371	82.556338
1706.772337	82.734910
1708.618468	82.322959
1710.460638	81.902282
1712.305972	82.259955
1714.145566	82.799987
1715.986544	83.319656
1717.828905	83.708783
1719.667310	83.030054
1721.507098	83.748741
1723.344711	83.604603
1725.181928	84.051150
1727.016972	83.785274
1728.853399	84.948955
1730.687654	84.994092
1732.521514	85.003927
1734.354981	85.131825
1736.184501	85.498255
1738.017180	85.539853
1739.845915	86.598630
1741.677808	86.506388
1743.505758	86.620468
1745.333316	86.675758
1747.160482	87.164431
1748.987257	86.379057
1750.813641	86.145264
1752.636087	86.347969
1754.461689	86.213535
1756.283356	86.605690
1758.106405	86.472556
1759.927292	85.358109
1761.747791	84.637489
1763.569671	85.223199
1765.385851	85.649989
1767.205183	84.954383
1769.020588	84.387870
1770.839143	83.077434
1772.653773	82.601601
1774.468017	82.313626
1776.281873	82.014159
1778.095343	81.593067
1779.906660	81.278254
1781.719358	80.820978
1783.531669	80.338793
1785.340063	81.062206
1787.149837	80.586609
1788.955697	80.821663
1790.764702	80.824251
1792.569794	80.754680
1794.376267	81.066565
1796.182356	80.792857
1797.984535	80.911296
1799.789857	81.131319
1801.591271	82.009416
1803.394065	81.495685
1805.192953	81.382565
1806.993222	81.408774
1808.793109	81.311824
1810.590855	80.719176
1812.388219	81.224303
1814.185204	81.728164
1815.981808	81.825446
1817.776273	82.030080
1819.572117	82.091989
1821.362307	81.697949
1823.157392	82.205327
1824.946826	82.637218
1826.739396	83.117043
1828.529831	82.866901
1830.318132	82.570684
1832.109568	83.148287
1833.895358	83.988852
1835.682528	84.134391
1837.467566	84.015197
1839.255738	83.501326
1841.040024	83.504957
1842.822181	83.749483
1844.605716	83.718832
1846.387123	84.018871
1848.169909	83.869309
1849.948814	83.128897
1851.729099	82.613076
1853.507257	82.412588
1855.286794	82.705074
1857.064206	82.872769
1858.839494	82.122086
1860.616161	82.443427
1862.390704	82.250338
1864.166626	81.375719
1865.936927	81.661277
1867.710356	81.717911
1869.481665	81.938448
1871.252604	81.287443
1873.024919	81.695842
1874.791621	81.144553
1876.561449	81.891579
1878.327413	81.170147
1880.096501	81.731079
1881.861727	81.149836
1883.626584	82.586204
1885.392819	81.809599
1887.155195	81.166984
1888.917204	81.192133
1890.678845	81.455884
1892.440120	81.431083
1894.201027	81.886007
1895.961568	82.535543
1897.719999	82.811816
1899.478065	83.311414
1901.234022	83.906405
1902.991356	84.928252
1904.748325	85.026803
1906.503188	84.423644
1908.255945	84.100240
1910.008339	83.589882
1911.762108	83.623956
1913.513774	83.842175
1915.263338	83.592000
1917.014277	82.809673
1918.764854	82.311002
1920.511591	81.474327
1922.259705	80.448748
1924.005719	79.909870
1925.753109	79.336047
1927.498400	79.301217
1929.241594	78.320671
1930.986163	77.873773
1932.728637	77.186376
1934.470750	76.597914
1936.212503	78.204479
1937.953897	78.087395
1939.693196	77.845720
1941.432137	77.713910
1943.170720	78.320810
1944.907210	78.804385
1946.643343	79.875965
1948.380850	78.795065
1950.114535	79.727813
1951.849595	79.396291
1953.582567	81.134079
1955.315182	80.129286
1957.047440	81.183575
1958.779342	81.319128
1960.509158	81.719824
1962.236889	81.706623
1963.965995	83.107433
1965.694746	83.926288
1967.421413	83.894439
1969.147726	83.851791
1970.875412	84.142731
1972.597562	84.583935
1974.322813	84.628524
1976.044258	84.914058
1977.768802	85.119959
1979.491267	85.759331
1981.209928	86.033847
1982.931688	85.420402
1984.649646	85.251477
1986.368977	84.446197
1988.084509	84.617867
1989.804861	83.288254
1991.521415	81.961460
1993.234172	81.301606
1994.950026	81.667106
1996.663806	80.859946
1998.377237	80.118033
2000.088597	80.008678
2001.801330	79.904717
2003.510271	80.238819
2005.222306	80.476173
2006.928831	79.760378
2008.638449	79.712845
2010.345999	79.392735
2012.053202	80.030848
2013.758339	80.326463
2015.463129	79.215411
2017.169291	78.504197
2018.871671	79.189812
2020.575423	79.792526
2022.277111	79.670762
2023.978455	79.157821
2025.679453	79.317880
2027.378391	78.174488
2029.078699	78.976103
2030.775233	78.728121
2032.473138	78.852145
2034.168984	78.061285
2035.867916	77.745683
2037.561362	78.311606
2039.256179	79.758894
2040.950654	80.191479
2042.641360	80.054579
2044.335150	79.852799
2046.025173	80.258371
2047.716567	80.518343
2049.405908	79.646621
2051.096619	79.385135
2052.783567	80.198626
2054.470176	79.239465
2056.158155	79.220110
2057.842374	78.766687
2059.527963	78.431873
2061.213213	77.995349
2062.896415	78.703617
2064.580986	78.520620
2066.260095	79.229294
2067.943989	78.876308
2069.622423	79.269314
2071.303933	79.451333
2072.981693	79.471369
2074.659115	79.772748
2076.337907	79.937462
2078.014657	79.758977
2079.689365	80.819338
2081.365442	81.026598
2083.039479	81.718212
2084.713180	82.842672
2086.386546	83.869671
2088.057874	84.732227
2089.728867	84.893643
2091.399526	85.353139
2093.069850	85.107265
2094.739841	85.206335
2096.407796	85.710258
2098.075418	85.228505
2099.741005	86.281805
2101.407962	86.669383
2103.072884	86.869453
2104.737475	87.041455
2106.400034	86.790746
2108.063961	86.455234
2109.725858	86.654470
2111.387423	87.172381
2113.048657	88.121087
2114.707863	87.781216
2116.366738	88.180811
2118.025284	88.469641
2119.683500	88.222300
2121.337992	87.592434
2122.995549	86.836485
2124.652777	86.731210
2126.306283	85.669340
2127.961157	85.274960
2129.612313	85.667058
2131.266530	84.966508
2132.917031	83.697727
2134.568898	82.893988
2136.215357	82.946241
2137.866571	82.075501
2139.514071	81.562010
2141.162938	80.902832
2142.809787	80.763319
2144.456309	79.637432
2146.102506	80.064990
2147.744995	79.833627
2149.390542	79.906414
2151.032382	79.912313
2152.677279	80.009966
2154.318471	79.616489
2155.959339	79.568986
2157.599883	79.729089
2159.238415	79.570553
2160.878313	79.645652
2162.514511	79.737441
2164.152076	79.904237
2165.789317	80.404018
2167.424549	80.669418
2169.059460	82.044505
2170.694049	83.246451
2172.328316	83.798626
2173.958890	84.692910
2175.592516	85.448789
2177.222450	85.521929
2178.853749	86.086867
2180.483043	86.201091
2182.112018	86.627903
2183.740673	86.122553
2185.369010	85.800899
2186.995343	85.832549
2188.621358	85.327095
2190.245372	85.989502
2191.870750	85.766024
2193.494129	85.720852
2195.118871	86.052908
2196.739933	85.092303
2198.360678	85.609320
2199.982788	85.675828
2201.602900	85.477761
2203.221015	85.223544
2204.838815	85.416781
2206.456300	85.125385
2208.073469	85.310725
2209.690323	84.748567
2211.306862	85.716297
2212.921407	85.165653
2214.533960	85.514477
2216.147877	85.362485
2217.759803	84.377835
2219.373092	83.904930
2220.984391	84.248920
2222.593700	84.229700
2224.204373	84.085994
2225.813057	83.750329
2227.421429	84.693900
2229.027813	84.610493
2230.635561	85.432410
2232.241322	85.301488
2233.846772	85.667874
2235.450237	84.547855
2237.055065	84.037065
2238.657909	84.187111
2240.258771	83.465679
2241.860994	83.380047
2243.461236	83.414412
2245.062840	82.912501
2246.660792	83.308290
2248.260106	82.906213
2249.857440	83.026550
2251.454465	83.890065
2253.052853	84.028780
2254.647592	83.993935
2256.240354	85.111401
2257.834479	84.993861
2259.429965	85.526925
2261.021807	85.656828
2262.613342	86.414420
2264.206238	85.288924
2265.793825	85.880156
2267.386109	86.009414
2268.973085	85.847664
2270.563090	85.110526
2272.147790	84.809276
2273.737183	83.960158
2275.321275	83.672145
2276.906728	82.545139
2278.490211	82.579353
2280.076721	82.375416
2281.659597	81.823496
2283.242169	82.163220
2284.824438	82.021886
2286.403078	81.866362
2287.984741	81.316462
2289.562776	80.976716
2291.143834	81.427431
2292.721265	80.498711
2294.296733	79.907985
2295.875223	79.166798
2297.450089	79.713539
2299.024654	78.706255
2300.598919	79.142096
2302.172883	79.580503
2303.746547	80.038160
2305.319910	80.586550
2306.889655	80.622667
2308.459101	81.729620
2310.031565	82.358820
2311.598755	82.158748
2313.168963	83.434766
2314.735556	83.903641
2316.303509	84.914870
2317.869506	85.137351
2319.435206	85.837170
2321.000609	84.837556
2322.564057	85.699044
2324.128865	84.995665
2325.690065	85.229735
2327.254279	85.070972
2328.813231	85.421855
2330.375198	84.392583
2331.935214	84.356342
2333.494934	84.460090
2335.052705	84.100467
2336.610181	84.024722
2338.167363	83.967909
2339.722597	83.650783
2341.277538	83.915341
2342.832185	83.696322
2344.386538	83.109769
2345.940597	82.855469
2347.494362	82.503024
2349.046184	82.277691
2350.596062	81.466744
2352.148948	81.178873
2353.696592	80.645940
2355.247243	80.130621
2356.794303	79.386649
2358.342722	79.840613
2359.890848	80.582364
2361.435386	80.694267
2362.981282	81.924416
2364.525240	82.260539
2366.070555	82.289096
2367.612285	81.449797
2369.155372	81.585558
2370.696524	81.864025
2372.237386	81.251054
2373.777959	81.526528
2375.318242	81.868541
2376.858237	80.804027
2378.394654	81.268533
2379.934072	80.271583
2381.469913	80.483328
2383.007110	80.357494
2384.540732	80.894978
2386.077355	80.589092
2387.612046	81.633767
2389.144808	81.167695
2390.677283	81.034382
2392.207830	81.348833
2393.741376	82.062651
2395.269709	82.339531
2396.799400	81.740770
2398.328805	82.398530
2399.857924	81.642641
2401.386759	81.639531
2402.910388	82.301963
2404.438654	82.326280
2405.961716	83.070090
2407.489412	83.799577
2409.010269	84.849928
2410.535759	85.528191
2412.057688	85.598935
2413.580973	85.971242
2415.102337	86.296352
2416.621781	87.194289
2418.142580	87.872595
2419.661460	88.221449
2421.180058	88.195859
2422.696739	87.610184
2424.214774	87.707474
2425.732528	87.577154
2427.246731	87.035721
2428.760653	86.785745
2430.274295	86.842271
2431.789292	87.312274
2433.300740	87.352267
2434.813543	87.292172
2436.324432	86.679934
2437.835043	86.189803
2439.343742	86.444836
2440.855427	86.287403
2442.363569	85.995371
2443.871433	85.229478
2445.379019	85.340281
2446.883064	85.014084
2448.390095	85.027623
2449.895217	84.916283
2451.400062	85.083978
2452.902999	84.299756
2454.405661	83.839251
2455.908046	83.427523
2457.408526	83.462411
2458.910359	84.035669
2460.410288	83.988861
2461.909941	85.284799
2463.409318	86.718356
2464.906793	86.930586
2466.402366	87.263096
2467.900919	88.122217
2469.395944	88.150905
2470.892322	87.847040
2472.385172	87.267651
2473.879376	87.378472
2475.373306	87.043126
2476.863712	87.500013
2478.357096	87.162114
2479.848582	86.935377
2481.338171	87.545246
2482.827488	88.267551
2484.314910	88.596889
2485.805307	88.181090
2487.292185	88.350055
2488.780415	88.290925
2490.265129	87.660400
2491.749572	87.712365
2493.235367	86.721004
2494.719269	86.010432
2496.204523	85.728073
2497.684642	85.267150
2499.167735	84.870806
2500.648937	84.787211
2502.129870	84.204149
2503.608914	83.708774
2505.087689	83.755618
2506.566196	83.861748
2508.044435	83.570186
2509.522405	82.998085
2510.996871	82.040887
2512.474305	81.736843
2513.948236	82.499721
2515.423517	81.955011
2516.898532	82.971849
2518.370045	83.180291
2519.842908	83.101833
2521.313889	82.915747
2522.786220	82.632065
2524.253438	82.326201
2525.723621	81.901296
2527.191924	81.933461
2528.659962	81.601440
2530.127735	80.847371
2531.595243	80.593023
2533.062486	81.283869
2534.526237	81.746660
2535.991338	82.671574
2537.454562	83.101763
2538.919136	83.718116
2540.380220	84.173808
2541.842654	84.721502
2543.304825	84.582770
2544.763510	84.859592
2546.226767	85.439461
2547.684927	86.116523
2549.144436	86.589637
2550.598852	87.632541
2552.057837	87.245272
2553.514951	87.765941
2554.970194	88.130329
2556.425176	88.006942
2557.878288	88.429041
2559.332749	89.371277
2560.785341	89.421729
2562.237673	89.903560
2563.688137	90.163231
2565.141557	89.692011
2566.589895	89.179327
2568.041189	88.568223
2569.490616	88.638086
2570.936571	89.004520
2572.385481	89.103805
2573.830921	88.248693
2575.277709	89.098128
2576.722633	88.658602
2578.167299	88.167725
2579.613314	87.859544
2581.055861	87.365439
2582.499756	87.514708
2583.940186	87.162738
2585.381963	87.071508
2586.821881	87.425813
2588.263146	86.400275
2589.700950	87.135870
2591.141703	87.600825
2592.577393	87.547777
2594.016033	87.399044
2595.452816	87.772791
2596.887742	87.676548
2598.325617	88.447511
2599.758433	88.985218
2601.192597	89.641935
2602.624907	90.553907
2604.058563	91.165426
2605.490366	91.610520
2606.921915	91.048135
2608.353212	91.076827
2609.782656	91.383066
2611.211848	92.371617
2612.639190	92.998613
2614.067878	93.098866
2615.496313	94.564069
2616.921301	95.377573
2618.347636	95.104394
2619.772122	95.429203
2621.197954	94.991514
2622.620342	94.466028
2624.044076	94.667612
2625.465963	94.239107
2626.887601	95.275540
2628.307393	96.187133
2629.728531	96.760635
2631.149419	96.321140
2632.566869	96.940691
2633.987258	96.844343
2635.404210	96.848850
2636.820913	97.177381
2638.237369	97.899524
2639.653575	98.827471
2641.069534	99.575077
2642.483652	99.170247
2643.897523	99.413953
2645.309554	98.787364
2646.722930	99.772686
2648.132876	99.676548
2649.545757	100.067372
2650.955210	100.016397
2652.364417	100.072643
2653.771788	99.831751
2655.182094	100.754042
2656.590563	101.041686
2657.997197	102.125817
2659.403586	102.215598
2660.808141	102.077591
2662.214040	102.322165
2663.618106	102.811702
2665.021927	103.124643
2666.425505	103.709071
2667.827250	103.713037
2669.230339	103.631672
2670.630010	103.499629
2672.031025	104.624364
2673.428624	104.460051
2674.829153	103.931210
2676.226267	104.076338
2677.624724	103.887809
2679.021353	102.921489
2680.417740	103.044413
2681.813886	102.874244
2683.208205	103.710629
2684.603867	103.482648
2685.996119	102.291457
2687.389714	101.546625
2688.781486	101.156861
2690.174599	99.766124
2691.565889	99.679851
2692.955356	99.172848
2694.344583	99.449090
2695.733571	98.897674
2697.123901	98.798521
2698.509246	97.736433
2699.897515	97.080553
2701.283964	96.518164
2702.670174	96.312217
2704.056146	95.229940
2705.438718	94.892569
2706.822633	94.108076
2708.206310	92.939936
2709.589749	92.445063
2710.969792	93.126790
2712.351177	93.171521
2713.730746	93.095166
2715.111657	91.977979
2716.490752	91.931921
2717.868034	92.038841
2719.246657	92.313805
2720.623467	91.555901
2722.000041	91.819887
2723.376379	91.775461
2724.750905	91.938571
2726.126772	92.475898
2727.499252	93.375505
2728.874648	93.140992
2730.245084	92.159396
2731.616861	92.946992
2732.988403	92.163820
2734.358137	92.270422
2735.729212	93.096706
2737.098478	93.265321
2738.467512	93.155539
2739.834738	92.324464
2741.201732	92.426210
2742.568493	91.799708
2743.935021	91.073175
2745.299744	90.952912
2746.664236	92.015105
2748.028495	91.643811
2749.392522	91.626947
2750.756318	90.413971
2752.116740	89.683529
2753.480073	88.314416
2754.838463	88.048772
2756.199763	87.162271
2757.557692	86.386282
2758.918531	85.877233
2760.277569	85.277163
2761.633239	84.736564
2762.991817	84.018151
2764.347028	83.790279
2765.702011	84.040530
2767.055196	82.206183
2768.411288	82.059278
2769.764016	81.256905
2771.116515	81.004896
2772.468786	80.623984
2773.822396	79.940892
2775.172644	78.626210
2776.521099	78.666334
2777.872458	77.824120
2779.220458	77.924857
2780.569796	77.376177
2781.917343	77.911650
2783.264662	77.588023
2784.611755	78.070527
2785.957057	79.721903
2787.302133	79.281317
2788.646982	79.957097
2789.991606	79.599607
2791.332878	79.819290
2792.675488	79.616890
2794.017872	79.423505
2795.360032	79.626458
2796.698842	78.808652
2798.040551	79.682063
2799.378913	79.671613
2800.718612	78.959034
2802.056525	79.114826
2803.392654	79.208015
2804.728559	79.278280
2806.065802	78.941935
2807.401261	78.793032
2808.736497	79.593503
2810.069950	79.698953
2811.404741	80.175728
2812.736190	80.107417
2814.070535	79.672647
2815.399982	79.771997
2816.730766	79.843667
2818.061328	79.698708
2819.390111	79.659972
2820.720230	78.954012
2822.048571	80.039173
2823.376691	78.999376
2824.703033	79.490698
2826.030712	80.253711
2827.355057	80.000057
2828.680739	80.385405
2830.004645	80.487168
2831.328332	80.843235
2832.653354	81.588106
2833.975046	81.082508
2835.296520	82.120376
2836.617775	81.782853
2837.938811	82.349160
2839.258075	81.928919
2840.578674	80.853763
2841.897501	80.917780
2843.216110	80.275950
2844.532948	80.372446
2845.849569	79.928561
2847.165973	79.892251
2848.480608	79.789009
2849.796577	79.865928
2851.109226	80.067136
2852.423211	79.391291
2853.736978	79.358571
2855.050530	79.866425
2856.362314	79.165923
2857.672332	79.003072
2858.983685	79.023151
2860.291723	79.033675
2861.601096	78.672512
2862.910253	78.620385
2864.219195	78.004066
2865.526373	78.169623
2866.831789	78.765286
2868.138539	79.380627
2869.443526	79.694594
2870.748300	79.412479
2872.051312	79.978263
2873.357206	80.055557
2874.658244	81.128561
2875.960617	81.727082
2877.261230	82.394258
2878.563177	82.215712
2879.864911	82.058441
2881.163340	81.631131
2882.463104	81.522898
2883.761109	80.865470
2885.058903	80.689201
2886.354941	81.592622
2887.652312	81.557520
2888.947927	81.109918
2890.243331	81.051403
2891.538524	80.116471
2892.830420	80.261783
2894.125192	80.295462
2895.416667	80.320974
2896.709475	80.405803
2898.002073	79.782975
2899.291377	79.505371
2900.582013	79.212688
2901.870898	78.691588
2903.161116	78.415799
2904.448041	78.263842
2905.736300	78.479746
2907.022808	78.224783
2908.309109	78.081339
2909.595201	78.031175
2910.879545	77.516820
2912.166760	76.611165
2913.449149	76.055897
2914.732870	77.217959
2916.014845	77.194629
2917.296612	77.743462
2918.576635	78.068397
2919.859527	77.721096
2921.140674	77.699673
2922.418539	78.127440
2923.699273	78.223081
2924.976726	77.649322
2926.253973	78.155910
2927.529479	77.542650
2928.807852	76.906200
2930.081410	76.882364
2931.357836	76.700585
2932.632521	76.121803
2933.905466	76.377730
2935.179741	75.693525
2936.452277	76.069802
2937.724609	75.581029
2938.993667	74.946490
2940.265591	74.593259
2941.535777	74.131646
2942.805760	73.203840
2944.075539	74.058476
2945.343581	74.142855
2946.609888	74.118967
2947.875992	73.181365
2949.143426	72.936664
2950.409126	73.238771
2951.674623	73.275509
2952.939918	72.420516
2954.201948	73.063777
2955.465309	73.065090
2956.728467	73.585462
2957.989894	72.510694
2959.252650	72.355727
2960.513675	72.342886
2961.772968	72.482338
2963.032062	72.207426
2964.290955	72.206850
2965.549648	74.009791
2966.808141	73.730141
2968.064905	73.946643
2969.321469	74.316227
2970.576306	74.455255
2971.832471	74.668794
2973.085382	73.986304
2974.339622	74.044714
2975.593663	74.017134
2976.845978	74.311606
2978.098095	73.775016
2979.348486	73.785126
2980.601733	73.164510
2981.850203	72.709887
2983.101528	71.364911
2984.349603	71.729552
2985.597482	71.211951
2986.845163	70.731607
2988.092648	70.556674
2989.338410	71.584279
2990.583977	70.638662
2991.830871	70.984589
2993.074521	71.117531
2994.319499	72.935970
2995.561233	72.337654
2996.805819	72.229408
2998.048686	72.478140
2999.288312	72.664279
3000.530788	72.134967
3001.770025	72.238850
3003.010589	73.074619
3004.249436	74.121838
3005.488089	74.350792
3006.725026	74.279628
3007.963290	74.077050
3009.199840	74.143527
3010.436195	74.095637
3011.672357	73.904734
3012.906806	73.946629
3014.141061	74.584855
3015.375123	75.577259
3016.607473	75.341821
3017.838111	76.123531
3019.071595	76.286828
3020.303367	76.734884
3021.533429	77.162372
3022.763299	77.038479
3023.991459	77.725516
3025.220945	77.408622
3026.448723	77.111946
3027.676309	76.782185
3028.905221	76.799681
3030.129391	76.119229
3031.356404	75.821602
3032.580193	75.154352
3033.805309	75.763986
3035.028718	74.875034
3036.251937	74.153772
3037.473451	74.076605
3038.697807	74.540709
3039.917426	73.885427
3041.138372	74.132781
3042.359129	74.358960
3043.578182	73.991117
3044.798561	72.351390
3046.015723	71.716251
3047.234210	71.178197
3048.450995	70.715884
3049.667593	69.931149
3050.884002	70.479604
3052.097199	70.080785
3053.313233	68.397232
3054.526055	67.284458
3055.741714	66.507328
3056.952650	66.429617
3058.164911	65.719794
3059.376986	65.791919
3060.588874	66.232634
3061.799064	65.936607
3063.009068	66.009898
3064.218887	66.053493
3065.427009	66.687183
3066.634945	66.676465
3067.841187	66.737347
3069.048752	67.186169
3070.254624	67.284404
3071.460310	67.140120
3072.665811	67.403174
3073.869619	67.525158
3075.074751	68.028459
3076.278191	67.985375
3077.479938	68.665153
3078.681502	68.549095
3079.882881	68.994339
3081.084078	69.029277
3082.283583	68.827874
3083.482906	68.814084
3084.683552	68.809553
3085.882508	68.794995
3087.078270	70.024951
3088.276861	69.799332
3089.472258	70.416988
3090.668978	69.994686
3091.862506	69.636055
3093.058862	69.740242
3094.253532	70.836954
3095.445011	71.039718
3096.640821	70.820354
3097.831938	70.273127
3099.024377	71.228077
3100.213629	70.363275
3101.405707	70.852995
3102.596100	71.040172
3103.783308	71.470618
3104.971839	71.454064
3106.161692	71.189057
3107.348360	70.321166
3108.534849	70.501658
3109.721158	70.153820
3110.908789	70.687696
3112.093239	70.462922
3113.276008	70.946856
3114.461600	70.653091
3115.645513	71.264758
3116.827747	71.136350
3118.009802	71.685396
3119.191680	71.471761
3120.373379	71.947157
3121.553400	71.598390
3122.731745	71.469663
3123.912911	71.186919
3125.090901	71.921873
3126.268714	71.490030
3127.446350	70.758550
3128.622311	70.518731
3129.798095	70.010096
3130.975201	69.857834
3132.150632	70.122331
3133.324390	69.564732
3134.496476	70.315799
3135.669882	70.706855
3136.843113	70.991714
3138.014671	69.797478
3139.187550	70.149047
3140.357263	69.882233
3141.528295	69.803277
3142.697658	68.831319
3143.865351	67.460701
3145.035859	68.270112
3146.201708	68.049221
3147.371867	67.340927
3148.537368	67.633837
3149.702696	66.216776
3150.867850	65.441516
3152.032830	64.839016
3153.199131	65.062708
3154.360778	64.202199
3155.523746	64.689725
3156.686540	64.090165
3157.849162	63.591950
3159.010119	62.908840
3160.170903	62.975544
3161.331515	62.752149
3162.490464	62.789284
3163.649240	62.836520
3164.807845	62.713626
3165.966278	62.223875
3167.124539	62.853340
3168.281138	62.648109
3169.436076	63.653584
3170.592333	64.200436
3171.746929	64.138352
3172.901355	64.494869
3174.054121	64.742711
3175.206717	65.253737
3176.359142	65.973917
3177.511398	66.169287
3178.663483	67.018077
3179.812423	66.911798
3180.964169	68.239155
3182.114257	68.485654
3183.262689	67.935333
3184.410952	68.185204
3185.559045	69.033230
3186.706970	69.426991
3187.853240	70.059955
3188.999341	70.106824
3190.143787	70.403460
3191.288066	72.230272
3192.432177	72.480418
3193.577606	73.032881
3194.719895	72.799690
3195.862018	72.531057
3197.003973	73.115385
3198.145762	73.396710
3199.287383	73.225403
3200.425868	72.519172
3201.565671	72.556434
3202.706792	71.545211
3203.844778	71.047991
3204.981115	70.674816
3206.117286	70.944775
3207.254775	70.307937
3208.390614	69.731498
3209.527771	68.767403
3210.660315	68.246586
3211.797141	67.720106
3212.929355	68.158532
3214.062886	67.049736
3215.196253	66.455749
3216.326492	65.164305
3217.459529	64.429687
3218.589440	64.085348
3219.720667	62.893787
3220.848770	61.962607
3221.979669	62.924923
3223.108924	61.775666
3224.236536	61.828723
3225.361026	61.352022
3226.489790	61.324382
3227.615434	60.678167
3228.740914	61.334639
3229.864753	61.623762
3230.991386	61.533444
3232.113422	62.105820
3233.236774	62.686204
3234.359964	62.649967
3235.482992	63.235468
3236.604380	63.835879
3237.725607	63.927279
3238.845195	63.843030
3239.964622	63.665142
3241.082411	63.498970
3242.202993	63.925272
3243.320460	63.411222
3244.437767	63.432305
3245.554914	63.098713
3246.670425	63.325712
3247.787251	62.806911
3248.900966	63.056787
3250.017471	63.390946
3251.132342	63.123094
3252.244104	62.548680
3253.355707	62.791300
3254.468624	62.636428
3255.581383	62.724617
3256.691035	61.892356
3257.802001	62.556128
3258.912809	61.441773
3260.021986	61.720651
3261.129531	61.968960
3262.238390	61.786670
3263.347092	62.540918
3264.452691	62.866560
3265.559604	62.962215
3266.664888	63.536930
3267.771487	62.964004
3268.874985	62.734644
3269.979797	62.713517
3271.084452	62.550190
3272.186008	62.482464
3273.287409	63.379480
3274.390123	62.627894
3275.492680	62.611938
3276.592141	63.250617
3277.694386	63.197229
3278.793535	63.142794
3279.891060	63.290619
3280.988429	63.102548
3282.088581	63.145835
3283.185639	63.260164
3284.282542	62.757725
3285.379290	62.292076
3286.471480	63.252843
3287.567918	62.423775
3288.662734	61.889790
3289.757396	61.361931
3290.850436	60.742711
3291.943322	60.165640
3293.034587	60.608547
3294.127165	60.841983
3295.218122	61.068258
3296.307460	61.067800
3297.396645	60.451145
3298.487143	60.432510
3299.574556	60.911052
3300.661817	61.105013
3301.750390	62.261713
3302.838810	62.383128
3303.922683	62.701331
3305.010798	62.945015
3306.095832	62.982709
3307.179249	63.075317
3308.263979	62.084559
3309.347094	62.337742
3310.431520	62.812976
3311.512868	62.011144
3312.595528	61.403176
3313.676574	61.103006
3314.757469	61.276395
3315.836750	61.347040
3316.915882	61.321759
3317.996324	61.194197
3319.073693	61.640931
3320.152372	61.742223
3321.229441	60.820027
3322.306359	60.430390
3323.381666	60.663716
3324.456824	60.976858
3325.533293	61.143710
3326.606692	60.129774
3327.679942	59.954431
3328.754502	59.736638
3329.827454	60.103233
3330.898797	58.492343
3331.971452	59.038937
3333.041039	59.238152
3334.111937	59.171657
3335.181228	59.836581
3336.251830	59.748362
3337.320825	59.285135
3338.388214	59.843654
3339.453998	59.742231
3340.524008	59.834644
3341.590955	60.640617
3342.654840	61.044998
3343.721493	60.333426
3344.786541	61.002164
3345.849986	61.116078
3346.913285	60.837030
3347.976437	61.167468
3349.039443	61.509682
3350.102303	61.106165
3351.163561	61.129988
3352.221762	61.343772
3353.284184	60.437894
3354.343549	59.949937
3355.402769	59.688678
3356.463299	59.740050
3357.519319	60.204206
3358.578104	59.506322
3359.632381	59.692076
3360.689421	59.844941
3361.744864	59.558249
3362.801615	59.236550
3363.856768	59.275178
3364.910325	59.495179
3365.962284	59.995353
3367.017005	59.630473
3368.068677	58.538614
3369.120206	58.257799
3370.173043	58.985754
3371.222833	58.093782
3372.273932	57.590052
3373.321985	57.545718
3374.372798	58.525232
3375.420565	57.644579
3376.468190	57.890218
3377.515672	57.985436
3378.561562	57.382107
3379.608760	56.769165
3380.652916	57.545373
3381.699830	57.290842
3382.745152	56.869213
3383.787433	56.210489
3384.829574	55.925978
3385.873022	55.684306
3386.916330	55.423980
3387.958047	55.392674
3388.999623	54.918243
3390.041059	54.622436
3391.080905	55.393486
3392.119164	54.837393
3393.158730	54.998547
3394.198155	54.674842
3395.235993	54.388887
3396.272244	54.919237
3397.308356	54.439993
3398.345775	54.945098
3399.380161	55.241511
3400.415854	54.345661
3401.451408	54.528688
3402.483931	54.234897
3403.519207	54.792277
3404.551452	55.027894
3405.583559	55.227270
3406.614082	54.639147
3407.645912	55.002526
3408.677604	54.914521
3409.706269	55.196265
3410.734795	55.929194
3411.764629	56.327185
3412.794324	56.735301
3413.820994	57.149309
3414.848971	57.564978
3415.873923	57.978076
3416.901625	58.384371
3417.926304	58.779631
3418.952289	59.159625
3419.976694	59.520120
3421.000963	59.856884
3422.023653	60.165685
3423.046207	60.442293
3424.070067	60.682474
3425.090907	60.881997
3426.111612	61.036630
3427.133622	61.142142
3428.152614	61.194299
3429.171471	61.188871
3430.191633	61.121625
3431.208779	60.988330
