-116.516516	92.721494
-113.846916	96.208446
-111.180251	99.192905
-108.514338	101.712037
-105.851357	103.803006
-103.186947	105.502978
-100.525467	106.849119
-97.862557	107.878593
-95.204755	108.628566
-92.545523	109.136203
-89.887039	109.438670
-87.231479	109.573131
-84.574491	109.576753
-81.922601	109.486701
-79.269280	109.340139
-76.618880	109.174234
-73.967050	108.220032
-71.320311	108.835272
-68.672142	109.735767
-66.024717	111.181090
-63.380205	111.299383
-60.734265	112.064627
-58.093406	111.558600
-55.451118	112.800334
-52.811738	111.248994
-50.170930	108.876843
-47.530862	99.392385
-44.895866	61.198149
-42.259442	-69.043594
-39.625920	-435.798625
-36.990970	-653.474264
-34.361085	-546.381515
-31.727608	-122.940034
-29.099193	296.634533
-26.471512	683.704207
-23.842402	1035.675812
-21.218349	1354.036889
-18.590707	1637.546496
-15.968118	1886.265527
-13.346261	2101.064122
-10.725134	2279.594155
-8.104737	2423.687339
-5.487229	2531.193245
-2.868291	2604.146092
-0.252240	2639.732410
2.363083	2641.098746
4.977679	2607.737810
7.589392	2539.158813
10.202534	2433.003661
12.810642	2295.363818
15.422332	2120.450581
18.028991	1911.020457
20.637078	1665.583952
23.244441	1388.668470
25.846779	1074.097057
28.452695	729.957478
31.053589	353.543826
33.655911	-43.816837
36.253216	-424.021307
38.854096	-669.433876
41.449962	-482.278501
44.047255	-136.670937
46.643829	126.377460
49.235394	150.780109
51.828387	153.891910
54.418519	156.436940
57.010079	158.759763
59.598779	160.201487
62.188906	161.463373
64.774035	163.750986
67.360590	162.643230
69.946432	162.873819
72.529420	162.748842
75.113834	162.020538
77.691120	158.759157
80.271972	154.107220
82.849975	144.722004
85.427268	129.662029
88.005987	105.241379
90.579724	66.402113
93.154889	3.612135
95.727210	-91.209556
98.298823	-221.326363
100.867596	-381.859682
103.437796	-540.575276
106.005158	-648.318091
108.573945	-636.492507
111.139896	-466.315098
113.703012	-95.319345
116.269684	496.801355
118.827135	1295.914855
121.390271	2296.166164
123.948447	3476.324239
126.510178	4796.769613
129.066952	6252.486500
131.625153	7799.575144
134.178401	9436.783648
136.730950	11114.774578
139.287050	12817.301325
141.838202	14521.572060
144.388657	16194.481393
146.938414	17831.527293
149.485353	19387.800263
152.031595	20841.670391
154.579263	22167.823713
157.126235	23350.620892
159.668272	24368.001719
162.209615	25196.127253
164.750265	25829.555526
167.292341	26260.026666
169.831605	26488.920983
172.368061	26533.016200
174.903825	26415.537102
177.441015	26211.647851
179.977514	25966.065042
182.511207	25726.209738
185.042097	25540.697462
187.572298	25391.481929
190.103924	25300.010294
192.632749	25236.239680
195.158775	25184.210234
197.684115	25153.184589
200.210881	25115.710375
202.734849	25074.717990
205.258133	25046.837243
207.780732	25019.326949
210.300538	25001.342815
212.819661	24967.125129
215.338101	24940.790242
217.857965	24925.026140
220.370828	24908.233330
222.887222	24898.254576
225.402934	24879.760704
227.913756	24870.671069
230.426004	24860.441248
232.935468	24852.459986
235.444254	24847.353787
237.952362	24833.070573
240.461893	24830.536798
242.966544	24825.031611
245.470519	24820.015037
247.975919	24806.571706
250.476443	24783.709172
252.980490	24773.914127
255.477566	24749.446688
257.978166	24715.723309
260.475994	24684.252715
262.973149	24641.007736
265.469631	24599.475994
267.961250	24556.300162
270.456389	24515.329952
272.948762	24475.612256
275.440464	24431.336778
277.929402	24382.291394
280.419765	24344.545667
282.907365	24290.449469
285.392206	24231.499646
287.880562	24179.699322
290.361978	24140.900758
292.846908	24106.231125
295.326993	24076.017332
297.810590	24044.275417
300.289344	24022.530488
302.769522	24003.639903
305.246947	23983.551299
307.723709	23960.445778
310.199808	23952.495935
312.673158	23942.297138
315.145846	23939.458924
317.617873	23932.300961
320.089239	23933.599140
322.557861	23923.047750
325.025823	23915.950976
327.495207	23912.112094
329.959769	23902.866164
332.427835	23885.920265
334.891081	23868.799585
337.353669	23843.191243
339.815601	23828.347477
342.276876	23812.284892
344.735417	23779.214400
347.195380	23745.383011
349.652610	23710.844979
352.109186	23660.532309
354.565108	23617.794196
357.018301	23562.021215
359.472915	23523.167985
361.922728	23473.746071
364.376037	23427.048165
366.824548	23381.019051
369.272408	23331.334978
371.721689	23280.117555
374.166177	23228.618293
376.612087	23190.352705
379.057348	23142.226939
381.499889	23083.178380
383.941783	23044.651744
386.383030	23002.191030
388.821561	22957.766650
391.261514	22924.731550
393.698753	22885.284731
396.133280	22850.888421
398.571295	22819.533583
401.004533	22798.856649
403.439192	22779.759986
405.869079	22764.185661
408.302451	22748.597775
410.731053	22735.494044
413.159014	22736.172940
415.588395	22728.394610
418.013011	22719.989352
420.439049	22727.885873
422.864446	22733.149934
425.289203	22731.585014
427.709202	22742.205248
430.130622	22755.550096
432.549345	22754.455708
434.969489	22756.945101
437.386938	22764.025382
439.805807	22767.971109
442.221983	22759.413793
444.633412	22760.769663
447.048317	22746.343877
449.460532	22736.520720
451.872113	22713.766963
454.283060	22696.645091
456.691321	22682.428304
459.098949	22658.302700
461.505945	22632.922742
463.912310	22602.961159
466.315992	22563.839418
468.719044	22540.470816
471.121466	22507.257872
473.523258	22481.765355
475.922373	22445.230499
478.322907	22409.262382
480.722812	22374.684731
483.117994	22329.275073
485.516643	22296.574810
487.910572	22265.959025
490.303875	22231.933451
492.696552	22200.342421
495.088604	22170.562736
497.482074	22135.114956
499.870833	22114.551411
502.256925	22095.749843
504.644436	22067.956993
507.031325	22048.302569
509.415550	22025.876034
511.801194	22016.588705
514.184175	21997.953049
516.564496	21988.257822
518.946236	21970.569967
521.325317	21963.100971
523.705817	21951.232400
526.083659	21940.926484
528.458846	21922.275447
530.833415	21916.739933
533.209403	21912.528152
535.582737	21896.023460
537.957489	21892.918131
540.327556	21886.706755
542.697007	21873.979765
545.067876	21865.406785
547.434065	21850.228304
549.801672	21838.861371
552.166633	21813.926555
554.530981	21789.203367
556.894717	21777.010365
559.259869	21752.845060
561.620350	21718.565527
563.982249	21687.362484
566.341507	21652.277986
568.698128	21616.782233
571.058193	21579.031823
573.411567	21544.019941
575.768386	21500.314592
578.122570	21460.818101
580.476146	21433.416564
582.829113	21398.901790
585.179449	21352.654677
587.531201	21322.045455
589.876277	21276.683062
592.226817	21229.133522
594.570683	21187.552240
596.920011	21159.209779
599.264691	21123.114875
601.606745	21099.172434
603.950217	21062.968066
606.291066	21029.007180
608.631313	21003.861988
610.968939	20982.636394
613.310000	20963.229770
615.646423	20949.680342
617.984263	20933.972960
620.319486	20918.969036
622.652093	20902.957438
624.986116	20904.045404
627.317526	20889.735514
629.648337	20883.010223
631.978550	20879.600627
634.308165	20868.715361
636.633158	20863.412428
638.963592	20855.139782
641.289404	20840.157286
643.612610	20844.614855
645.937231	20840.030842
648.259247	20837.239913
650.580670	20837.608110
652.899489	20833.103276
655.219724	20827.869158
657.539366	20817.935909
659.856407	20800.329518
662.172856	20784.389251
664.486707	20776.250015
666.801974	20760.029154
669.114644	20730.090697
671.428729	20705.254667
673.738214	20674.786753
676.049115	20650.885550
678.357423	20618.881656
680.665143	20591.847568
682.974277	20553.312185
685.278820	20521.814814
687.582775	20492.062109
689.886145	20462.390343
692.190929	20435.352311
694.491127	20404.184043
696.792739	20372.632187
699.093767	20353.278158
701.390212	20323.050369
703.688073	20301.534705
705.985350	20280.977976
708.282044	20255.860006
710.574162	20238.456821
712.869691	20228.415836
715.160646	20213.298412
717.453016	20203.766094
719.742811	20199.978987
722.032025	20196.987966
724.320660	20187.212994
726.606723	20181.672596
728.894199	20180.060643
731.179104	20176.647892
733.463432	20173.748165
735.745191	20168.552149
738.028364	20164.201436
740.310960	20166.521215
742.589000	20166.019426
744.868455	20159.736313
747.147334	20148.279159
749.425637	20146.970846
751.699391	20139.616068
753.974559	20138.059500
756.249153	20129.921236
758.521187	20120.537132
760.794635	20110.733138
763.065525	20101.703307
765.333859	20100.239438
767.603606	20091.732127
769.870799	20084.439701
772.137421	20086.498291
774.403473	20067.918293
776.666974	20058.568480
778.931888	20049.752624
781.196232	20040.885115
783.456047	20017.904530
785.717274	19999.869198
787.977934	19979.609708
790.236048	19953.695288
792.491617	19927.814208
794.750577	19911.414764
797.003038	19887.891243
799.260866	19862.772616
801.514174	19834.182071
803.764943	19809.654323
806.017124	19786.835979
808.266766	19768.406573
810.517821	19735.613914
812.764364	19713.562352
815.012319	19690.554141
817.257740	19665.721954
819.504572	19639.713095
821.750843	19606.839236
823.992610	19584.875174
826.237759	19560.473769
828.476436	19542.805693
830.718495	19530.264708
832.956056	19512.960967
835.195029	19496.163212
837.431475	19488.790019
839.669332	19484.110385
841.904664	19468.048741
844.137473	19459.237961
846.371693	19443.739185
848.603391	19428.282607
850.834533	19417.470331
853.065122	19409.790889
855.295155	19401.556760
857.524635	19395.784336
859.749633	19394.212236
861.978006	19393.989594
864.201900	19383.542876
866.427204	19383.642714
868.648033	19377.256254
870.872234	19365.271605
873.091962	19356.858004
875.313101	19345.725624
877.533689	19321.550703
879.751767	19308.678906
881.971255	19286.083962
884.186277	19260.360229
886.400752	19240.202164
888.614678	19205.474285
890.828058	19190.381474
893.040890	19158.600071
895.253176	19138.406674
897.462959	19118.463737
899.672197	19090.690050
901.880890	19061.620376
904.087084	19040.634776
906.294687	19011.376540
908.499792	18982.173051
910.704354	18951.184943
912.906421	18928.133947
915.109897	18917.134938
917.310879	18901.302194
919.511320	18880.756760
921.713168	18872.618768
923.908626	18866.609081
926.107443	18859.427667
928.301821	18857.580413
930.499557	18858.366468
932.692857	18857.458247
934.887566	18848.430630
937.079789	18845.349793
939.271474	18853.347730
941.462620	18863.188866
943.651284	18875.388755
945.839412	18887.910699
948.025059	18908.989908
950.214058	18927.046142
952.398634	18944.383841
954.582675	18960.139195
956.770066	18988.831227
958.949153	19004.819395
961.131591	19023.660633
963.313495	19033.797705
965.492924	19042.320083
967.669881	19047.968794
969.848246	19057.342138
972.028018	19060.980564
974.201441	19061.306077
976.378210	19064.573091
978.550572	19075.687107
980.724342	19083.273759
982.893708	19082.045141
985.066418	19086.842279
987.236663	19088.323986
989.406379	19075.592557
991.575566	19068.863313
993.740356	19057.633775
995.908487	19041.572505
998.072224	19019.102751
1000.237367	18994.555880
1002.400051	18973.442461
1004.562210	18956.637385
1006.721912	18936.227323
1008.881090	18909.923926
1011.041674	18881.544008
1013.199803	18854.871281
1015.357408	18827.812135
1017.514490	18793.583305
1019.671049	18759.496805
1021.823228	18724.512489
1023.976813	18683.752927
1026.129877	18646.693073
1028.280493	18609.001760
1030.432514	18583.768359
1032.580162	18552.948963
1034.731142	18524.968480
1036.877751	18505.930954
1039.023841	18480.091192
1041.169413	18469.145505
1043.316390	18456.069421
1045.457078	18449.758054
1047.601096	18445.005552
1049.742673	18438.645808
1051.883734	18433.972292
1054.026199	18425.161624
1056.162385	18432.792760
1058.301897	18433.060127
1060.437053	18435.364193
1062.575534	18441.127849
1064.709661	18454.359409
1066.843275	18466.292932
1068.978294	18475.453413
1071.108963	18483.873192
1073.241037	18491.296623
1075.370682	18501.823562
1077.499815	18507.560057
1079.628436	18520.447356
1081.756546	18523.485398
1083.882230	18533.991233
1086.007404	18535.336303
1088.133982	18545.130408
1090.256222	18549.121094
1092.379867	18553.998685
1094.499178	18554.453999
1096.623717	18552.035241
1098.742011	18551.888159
1100.861710	18551.608252
1102.978990	18539.125473
1105.095764	18544.958196
1107.212031	18539.994681
1109.325882	18543.355152
1111.441138	18546.864354
1113.552070	18544.315977
1115.666315	18536.713793
1117.776239	18533.854121
1119.887567	18537.916301
1121.998390	18534.091860
1124.104897	18528.414177
1126.214714	18528.997998
1128.320216	18518.748074
1130.427121	18501.222641
1132.527811	18491.074305
1134.633713	18485.403003
1136.735306	18477.375994
1138.838302	18470.552523
1140.940797	18462.298109
1143.037085	18459.304257
1145.138581	18454.876347
1147.235773	18450.648397
1149.332468	18437.021327
1151.428664	18438.379270
1153.524363	18432.559025
1155.619563	18427.259086
1157.712368	18423.359996
1159.806574	18423.574709
1161.894589	18422.177490
1163.987802	18420.678896
1166.074827	18415.330529
1168.165151	18426.436515
1170.251188	18425.639337
1172.340522	18433.783062
1174.423675	18441.051037
1176.508230	18441.325301
1178.594187	18449.354677
1180.675862	18461.622550
1182.758939	18470.862160
1184.839630	18479.405046
1186.919829	18496.540065
1188.999537	18507.005198
1191.078754	18514.720831
1193.155589	18535.174012
1195.230043	18550.763100
1197.307788	18562.328244
1199.381264	18579.157771
1201.456140	18600.048175
1203.526749	18622.783861
1205.598760	18642.257286
1207.668394	18659.408504
1209.739429	18680.025544
1211.809976	18704.850814
1213.876262	18725.109364
1215.943949	18746.882860
1218.009264	18766.759177
1220.075979	18789.268561
1222.138438	18803.636172
1224.204182	18826.042300
1226.265673	18853.399767
1228.328563	18872.501830
1230.389086	18901.594367
1232.449125	18923.671119
1234.508682	18957.560835
1236.565873	18990.505370
1238.622583	19021.765325
1240.676930	19058.890171
1242.734557	19089.200273
1244.789822	19135.717565
1246.840846	19175.658277
1248.893270	19218.779573
1250.945214	19262.436616
1252.994800	19311.142067
1255.043907	19365.498392
1257.092536	19408.832501
1259.140686	19466.587886
1261.188357	19534.628314
1263.231799	19602.137971
1265.278515	19669.844828
1267.322878	19742.820680
1269.366765	19828.002083
1271.408300	19922.289443
1273.447486	20023.889868
1275.489945	20124.877520
1277.528181	20234.203701
1279.567816	20350.416068
1281.606976	20442.566822
1283.641917	20524.044110
1285.678257	20564.193184
1287.712253	20528.381808
1289.747647	20403.511305
1291.778827	20518.145637
1293.811405	21095.505531
1295.843512	22096.960977
1297.873278	23465.215603
1299.904442	25169.227576
1301.931398	27164.146789
1303.959752	29405.098372
1305.983902	31852.100222
1308.011316	34453.993073
1310.034528	37180.684609
1312.059138	39985.811750
1314.081414	43006.038103
1316.105087	46534.090191
1318.126427	50069.226009
1320.147299	53373.356467
1322.167704	56274.485256
1324.183916	58700.747022
1326.201525	60606.709971
1328.216806	61943.513207
1330.235346	62673.812468
1332.249697	62797.030104
1334.261722	62314.608949
1336.277004	61221.693346
1338.288101	59550.269370
1340.300595	57335.312721
1342.308906	54618.587380
1344.320473	51498.027202
1346.326000	48047.634018
1348.334783	44448.033027
1350.339388	40909.841137
1352.347247	37727.373728
1354.354644	34801.976772
1356.356010	31978.235777
1358.358773	29300.484184
1360.361075	26816.488957
1362.362918	24552.245930
1364.364301	22572.041218
1366.363371	20909.531237
1368.361982	19609.224027
1370.360135	18734.273587
1372.357829	18307.562817
1374.351361	18387.695106
1376.346289	18762.348963
1378.340759	18872.854171
1380.334774	18873.001952
1382.326480	18831.905956
1384.317732	18779.669481
1386.306678	18725.370857
1388.297019	18659.149853
1390.286905	18582.769340
1392.274488	18521.189898
1394.261616	18458.690090
1396.246443	18395.547285
1398.232665	18340.285883
1400.216587	18289.964193
1402.200056	18253.902103
1404.183072	18218.281474
1406.163791	18182.463202
1408.145904	18157.183578
1410.125721	18137.120032
1412.105086	18118.953635
1414.080313	18104.755132
1416.058779	18091.542583
1418.034950	18080.346658
1420.010673	18071.048276
1421.985946	18048.775144
1423.958928	18041.800324
1425.931462	18027.181525
1427.903548	18013.919304
1429.875187	18004.845293
1431.842697	17993.897593
1433.815281	17983.147608
1435.780060	17975.257165
1437.749910	17974.069148
1439.715637	17963.730822
1441.682756	17955.058489
1443.647592	17939.048316
1445.608308	17934.936232
1447.574093	17924.502740
1449.533922	17905.424138
1451.495144	17890.959177
1453.457759	17878.288755
1455.416259	17854.110739
1457.374316	17828.572323
1459.331932	17803.883487
1461.289106	17788.558176
1463.244004	17755.165123
1465.200294	17729.560400
1467.154310	17703.954505
1469.107886	17674.276418
1471.059189	17643.948508
1473.011884	17620.610729
1474.962308	17595.287552
1476.912292	17564.288856
1478.861838	17538.821114
1480.809115	17513.137314
1482.754125	17500.398240
1484.700526	17475.172808
1486.646490	17447.589200
1488.592017	17425.226504
1490.535279	17404.457559
1492.478104	17378.647376
1494.418666	17361.279371
1496.360619	17345.342047
1498.300310	17322.387966
1500.239567	17313.708019
1502.178388	17308.464951
1504.114950	17302.787329
1506.052903	17290.660977
1507.988597	17275.490242
1509.923858	17273.517656
1511.856863	17272.494853
1513.789435	17255.779674
1515.721575	17243.756983
1517.653283	17238.185833
1519.582737	17236.080504
1521.513582	17224.107948
1523.443995	17224.170765
1525.370336	17222.773476
1527.298068	17220.626929
1529.223549	17221.529326
1531.148601	17218.288229
1533.073224	17216.992689
1534.997418	17206.955739
1536.919364	17206.899565
1538.842701	17210.242522
1540.763792	17210.577359
1542.682638	17195.245839
1544.602873	17187.047770
1546.520866	17179.724431
1548.438432	17164.136455
1550.353756	17162.796835
1552.270470	17149.484741
1554.183129	17134.689311
1556.098992	17124.013914
1558.012615	17115.088351
1559.924001	17100.355779
1561.836775	17088.064324
1563.745500	17072.303135
1565.655614	17058.671554
1567.565305	17047.555627
1569.474573	17029.385034
1571.381607	17007.702821
1573.286408	16980.586814
1575.192598	16963.796178
1577.096556	16946.163555
1579.000093	16930.711589
1580.903210	16910.093741
1582.804097	16894.522176
1584.706373	16869.603752
1586.606421	16844.705117
1588.507856	16816.798463
1590.405258	16792.792062
1592.302241	16764.702063
1594.198806	16744.561442
1596.096759	16733.983517
1597.988877	16712.236070
1599.884188	16690.964193
1601.779082	16677.591192
1603.671754	16659.646122
1605.564010	16650.736151
1607.454045	16643.076277
1609.343666	16631.284710
1611.232870	16630.410871
1613.121660	16633.440995
1615.008232	16626.823885
1616.896192	16623.645889
1618.780135	16625.794762
1620.665466	16619.381505
1622.550382	16620.087491
1624.433085	16612.797027
1626.317175	16609.349904
1628.197254	16600.522995
1630.078719	16599.082698
1631.957974	16606.993427
1633.838615	16603.236566
1635.713452	16603.326433
1637.593270	16599.185206
1639.469084	16598.691657
1641.344487	16589.826130
1643.221276	16596.364739
1645.092269	16600.281849
1646.966443	16595.367873
1648.836619	16585.948468
1650.709975	16591.891819
1652.581128	16592.356447
1654.450079	16584.183628
1656.320416	16576.608019
1658.186759	16567.844019
1660.054488	16556.002751
1661.920018	16550.016291
1663.786934	16532.543250
1665.649861	16527.955708
1667.514173	16517.957943
1669.376289	16497.822540
1671.238001	16470.307877
1673.101097	16445.127677
1674.961999	16430.419102
1676.820707	16408.317656
1678.679012	16381.677025
1680.538702	16358.519648
1682.392624	16328.025493
1684.249720	16308.549884
1686.106413	16288.231692
1687.959130	16265.191354
1689.815017	16240.939155
1691.666931	16226.799211
1693.518444	16219.318637
1695.369556	16208.341177
1697.220268	16199.261007
1699.070579	16200.420144
1700.918705	16181.337921
1702.768216	16167.963252
1704.611978	16167.485782
1706.460689	16173.289898
1708.303654	16160.668925
1710.149786	16159.093912
1711.991955	16158.462211
1713.837290	16159.517939
1715.676884	16164.991405
1717.517862	16167.036374
1719.360223	16172.511265
1721.198628	16177.775053
1723.038416	16172.717727
1724.876029	16171.008606
1726.713246	16165.800789
1728.548290	16172.543958
1730.384717	16171.374750
1732.218972	16164.500678
1734.052832	16160.455122
1735.886299	16156.014137
1737.715819	16147.418455
1739.548498	16151.267732
1741.377233	16139.561371
1743.209125	16136.634190
1745.037076	16131.931429
1746.864634	16130.488836
1748.691800	16127.850865
1750.518575	16122.225544
1752.344959	16115.943371
1754.167405	16115.008100
1755.993007	16113.934200
1757.814674	16117.675447
1759.637723	16121.938497
1761.458610	16126.798028
1763.279109	16130.447760
1765.100989	16143.966933
1766.917169	16149.908515
1768.736501	16153.772252
1770.551906	16160.867873
1772.370461	16166.356032
1774.185091	16177.896744
1775.999335	16183.051320
1777.813191	16185.007655
1779.626661	16193.238093
1781.437978	16197.663748
1783.250676	16208.035231
1785.062987	16212.752604
1786.871381	16227.693791
1788.681155	16240.174750
1790.487015	16245.148458
1792.296020	16253.259329
1794.101112	16259.998311
1795.907585	16257.980979
1797.713674	16264.537800
1799.515853	16267.772970
1801.321175	16262.815209
1803.122589	16262.701689
1804.925383	16264.566063
1806.724271	16262.150632
1808.524540	16267.239306
1810.324427	16265.993285
1812.122173	16263.666731
1813.919537	16262.842461
1815.716522	16260.415259
1817.513126	16257.171352
1819.307591	16253.084377
1821.103435	16249.966984
1822.893625	16241.620619
1824.688710	16238.616928
1826.478144	16238.133512
1828.270714	16233.133815
1830.061149	16230.681181
1831.849450	16222.253372
1833.640886	16225.753726
1835.426676	16226.836101
1837.213846	16234.608798
1838.998884	16243.347962
1840.787056	16253.596633
1842.571342	16265.599424
1844.353499	16271.108029
1846.137034	16287.461280
1847.918441	16300.996835
1849.701227	16308.643280
1851.480132	16323.414228
1853.260417	16331.630903
1855.038575	16338.583932
1856.818112	16356.650865
1858.595524	16369.527141
1860.370812	16384.532652
1862.147478	16401.541935
1863.922022	16417.526019
1865.697944	16433.086096
1867.468245	16443.139569
1869.241674	16459.035534
1871.012983	16471.822338
1872.783922	16481.766458
1874.556237	16492.347032
1876.322939	16491.135403
1878.092767	16494.841784
1879.858731	16493.886450
1881.627818	16489.321944
1883.393045	16491.107766
1885.157902	16481.374467
1886.924137	16480.336798
1888.686513	16476.810567
1890.448522	16477.322672
1892.210163	16476.468571
1893.971438	16471.084731
1895.732345	16459.075812
1897.492886	16448.504106
1899.251317	16443.769896
1901.009382	16431.643766
1902.765340	16425.921762
1904.522674	16421.949985
1906.279643	16417.832723
1908.034505	16417.153019
1909.787263	16422.172565
1911.539657	16424.642097
1913.293426	16429.138497
1915.045092	16435.992689
1916.794656	16443.554930
1918.545595	16452.299798
1920.296172	16458.207230
1922.042909	16464.532602
1923.791023	16468.884751
1925.537037	16479.135878
1927.284427	16492.925544
1929.029718	16499.540702
1930.772912	16520.425260
1932.517481	16538.222833
1934.259955	16553.296724
1936.002068	16567.758520
1937.743821	16584.422662
1939.485215	16603.417363
1941.224514	16626.864991
1942.963455	16641.622419
1944.702037	16655.092739
1946.438528	16666.594792
1948.174661	16684.947760
1949.912168	16709.631075
1951.645853	16729.885155
1953.380913	16751.532167
1955.113885	16774.249884
1956.846499	16793.118242
1958.578758	16808.472474
1960.310660	16834.460795
1962.040476	16857.492466
1963.768207	16873.214683
1965.497313	16887.878410
1967.226064	16909.864395
1968.952731	16931.804460
1970.679044	16946.942562
1972.406730	16963.503822
1974.128880	16979.050147
1975.854131	16997.111659
1977.575576	17025.162251
1979.300120	17049.303812
1981.022585	17067.634291
1982.741246	17094.489746
1984.463006	17107.851805
1986.180964	17122.309334
1987.900295	17137.644544
1989.615827	17159.836960
1991.336179	17178.496885
1993.052733	17197.689645
1994.765490	17209.868854
1996.481344	17224.668237
1998.195124	17249.940702
1999.908555	17268.699221
2001.619915	17286.778865
2003.332647	17303.081211
2005.041589	17322.694256
2006.753624	17342.918334
2008.460149	17359.701739
2010.169766	17374.374659
2011.877317	17393.017929
2013.584520	17410.931682
2015.289656	17425.569330
2016.994447	17437.252574
2018.700609	17452.757296
2020.402989	17465.633330
2022.106741	17477.210547
2023.808429	17504.226990
2025.509773	17518.170209
2027.210771	17543.178946
2028.909708	17562.268328
2030.610017	17579.424856
2032.306551	17595.632319
2034.004456	17613.975377
2035.700302	17625.889665
2037.399234	17632.907786
2039.092680	17643.832096
2040.787497	17654.256780
2042.481972	17659.712923
2044.172678	17658.424977
2045.866468	17661.431429
2047.556491	17657.705986
2049.247885	17654.376206
2050.937226	17646.524350
2052.627937	17640.370422
2054.314885	17625.396643
2056.001494	17612.685560
2057.689473	17597.550298
2059.373691	17577.347234
2061.059281	17559.381919
2062.744531	17544.352149
2064.427733	17534.293083
2066.112304	17515.454505
2067.791413	17491.443017
2069.475307	17480.203903
2071.153741	17473.803903
2072.835251	17469.938851
2074.513011	17471.078501
2076.190433	17471.780433
2077.869225	17471.980301
2079.545975	17472.972677
2081.220683	17476.553767
2082.896760	17485.257185
2084.570797	17491.302558
2086.244498	17510.844646
2087.917864	17524.335979
2089.589192	17554.547396
2091.260185	17577.134725
2092.930844	17600.244615
2094.601168	17631.004975
2096.271159	17658.518374
2097.939114	17688.289605
2099.606736	17724.545910
2101.272323	17767.889443
2102.939279	17803.003398
2104.604202	17840.211002
2106.268793	17876.962069
2107.931352	17917.013530
2109.595279	17960.884933
2111.257176	17989.605673
2112.918741	18030.886490
2114.579975	18068.527667
2116.239181	18099.789493
2117.898056	18125.651178
2119.556602	18156.168642
2121.214818	18185.778380
2122.869310	18202.542835
2124.526867	18229.537001
2126.184095	18256.820285
2127.837601	18272.056507
2129.492475	18290.730681
2131.143631	18305.820204
2132.797848	18328.874760
2134.448349	18347.611336
2136.100216	18378.124977
2137.746675	18393.073870
2139.397889	18417.525726
2141.045389	18436.160168
2142.694256	18457.718839
2144.341105	18482.857802
2145.987627	18499.133937
2147.633824	18526.362929
2149.276313	18540.698726
2150.921860	18563.524664
2152.563700	18583.542744
2154.208597	18600.228517
2155.849789	18628.985701
2157.490657	18658.906613
2159.131201	18688.177652
2160.769733	18710.071342
2162.409631	18750.900779
2164.045829	18783.289665
2165.683394	18817.543240
2167.320635	18848.728324
2168.955867	18877.774507
2170.590778	18915.448822
2172.225367	18947.566377
2173.859634	18984.287916
2175.490208	19016.861341
2177.123834	19045.902397
2178.753768	19067.508919
2180.385067	19098.303661
2182.014361	19121.325614
2183.643336	19141.653878
2185.271991	19151.800799
2186.900327	19154.850167
2188.526661	19164.241986
2190.152676	19163.677955
2191.776690	19156.987016
2193.402068	19151.040864
2195.025447	19144.089777
2196.650189	19145.665618
2198.271251	19139.762190
2199.891996	19155.914562
2201.514106	19156.039256
2203.134218	19162.181778
2204.752333	19179.494934
2206.370133	19196.211053
2207.987618	19217.402801
2209.604787	19237.476560
2211.221641	19263.111841
2212.838179	19290.529346
2214.452725	19318.126939
2216.065278	19341.319395
2217.679195	19374.264294
2219.291121	19413.298948
2220.904410	19441.336313
2222.515709	19479.956426
2224.125018	19526.149621
2225.735691	19567.481808
2227.344375	19607.459409
2228.952746	19658.760795
2230.559131	19703.211316
2232.166879	19744.980534
2233.772640	19780.045101
2235.378090	19831.677146
2236.981555	19884.876499
2238.586383	19936.459976
2240.189227	19996.878299
2241.790089	20062.780858
2243.392312	20128.225432
2244.992554	20190.356265
2246.594158	20246.072859
2248.192110	20301.186348
2249.791424	20352.976964
2251.388758	20410.213985
2252.985783	20467.669906
2254.584171	20527.142037
2256.178910	20573.901052
2257.771672	20628.061715
2259.365797	20674.737880
2260.961283	20714.247871
2262.553125	20748.418526
2264.144660	20771.706512
2265.737556	20802.654232
2267.325143	20818.707291
2268.917427	20831.201487
2270.504403	20849.852917
2272.094407	20859.079497
2273.679108	20870.384933
2275.268501	20874.446309
2276.852593	20881.327687
2278.438046	20879.439392
2280.021529	20884.511488
2281.608039	20889.234093
2283.190914	20903.349095
2284.773487	20914.640818
2286.355756	20920.650895
2287.934396	20929.391187
2289.516059	20933.805673
2291.094094	20940.306072
2292.675152	20938.206583
2294.252583	20945.674775
2295.828051	20957.709030
2297.406541	20980.825468
2298.981407	20998.598696
2300.555972	21036.600005
2302.130237	21069.699191
2303.704201	21103.974775
2305.277865	21150.559875
2306.851228	21189.100693
2308.420973	21237.119314
2309.990419	21291.588305
2311.562883	21344.933714
2313.130073	21407.801825
2314.700281	21468.688816
2316.266874	21542.774613
2317.834827	21615.096612
2319.400824	21692.362655
2320.966524	21775.171342
2322.531927	21847.037132
2324.095375	21929.704793
2325.660183	22006.454586
2327.221383	22095.595621
2328.785597	22173.027212
2330.344549	22242.901517
2331.906516	22312.937375
2333.466532	22378.682000
2335.026252	22435.515967
2336.584023	22487.927647
2338.141499	22525.168713
2339.698681	22556.548529
2341.253915	22588.580402
2342.808856	22613.173061
2344.363503	22637.828304
2345.917855	22651.430276
2347.471915	22670.503418
2349.025680	22673.170290
2350.577502	22685.348286
2352.127380	22699.890565
2353.680266	22715.279755
2355.227910	22732.829245
2356.778561	22750.106189
2358.325621	22763.501608
2359.874039	22782.689938
2361.422166	22816.295247
2362.966704	22843.504055
2364.512600	22871.683497
2366.056558	22906.901891
2367.601873	22946.056062
2369.143603	22975.471645
2370.686690	23010.248296
2372.227841	23048.448589
2373.768704	23091.155688
2375.309276	23134.819871
2376.849560	23176.535201
2378.389555	23236.427455
2379.925972	23287.122055
2381.465390	23326.362251
2383.001231	23373.099858
2384.538428	23413.275640
2386.072050	23468.799646
2387.608673	23522.389554
2389.143364	23570.649894
2390.676126	23623.189959
2392.208601	23674.438801
2393.739148	23727.537709
2395.272693	23785.007827
2396.801027	23852.381110
2398.330718	23920.788644
2399.860123	23991.840965
2401.389242	24058.456811
2402.918077	24127.995328
2404.441706	24197.290889
2405.969972	24272.733472
2407.493034	24348.891162
2409.020730	24413.041551
2410.541587	24482.249641
2412.067077	24550.712964
2413.589006	24612.994226
2415.112291	24676.604015
2416.633654	24749.893296
2418.153099	24825.635110
2419.673898	24899.722156
2421.192778	24978.773182
2422.711376	25048.262190
2424.228057	25122.087714
2425.746092	25181.273536
2427.263846	25248.815391
2428.778049	25318.873991
2430.291971	25380.208282
2431.805613	25448.136566
2433.320610	25519.536809
2434.832058	25585.236404
2436.344861	25671.528557
2437.855750	25777.435383
2439.366361	25875.884427
2440.875060	25991.511083
2442.386745	26109.980675
2443.894887	26223.210274
2445.402751	26337.908019
2446.910337	26456.503934
2448.414382	26579.515219
2449.921413	26692.279614
2451.426535	26797.328860
2452.931380	26896.430590
2454.434317	26986.403438
2455.936979	27067.775306
2457.439364	27124.457438
2458.939844	27175.836424
2460.441677	27214.476954
2461.941605	27245.223289
2463.441259	27250.883760
2464.940636	27242.630468
2466.438111	27213.535848
2467.933684	27178.984801
2469.432237	27128.822550
2470.927262	27076.863828
2472.423639	27024.061796
2473.916490	26955.881444
2475.410694	26887.171605
2476.904624	26830.065881
2478.395030	26776.417990
2479.888414	26727.805289
2481.379900	26694.720963
2482.869489	26670.493326
2484.358806	26642.684508
2485.846228	26631.894094
2487.336625	26612.487825
2488.823503	26605.389291
2490.311733	26610.622864
2491.796447	26620.140641
2493.280890	26613.350106
2494.766685	26602.194226
2496.250587	26587.589109
2497.735841	26580.566741
2499.215960	26558.912114
2500.699053	26532.536434
2502.180255	26499.395520
2503.661188	26471.092001
2505.140232	26429.105855
2506.619007	26388.309657
2508.097514	26334.153706
2509.575753	26279.634948
2511.053723	26229.046547
2512.528188	26174.805976
2514.005623	26102.753696
2515.479554	26040.264597
2516.954835	25975.620589
2518.429850	25913.391556
2519.901363	25849.482213
2521.374226	25786.599494
2522.845207	25732.960117
2524.317538	25688.190323
2525.784755	25647.394064
2527.254939	25612.679684
2528.723242	25593.149671
2530.191280	25578.400273
2531.659053	25558.232400
2533.126561	25563.969107
2534.593804	25560.259784
2536.057555	25567.710112
2537.522656	25566.138336
2538.985880	25586.630347
2540.450454	25602.976277
2541.911538	25628.508140
2543.373972	25646.271969
2544.836143	25668.518000
2546.294828	25695.245475
2547.758085	25712.678461
2549.216245	25735.699029
2550.675754	25751.654424
2552.130169	25769.050885
2553.589155	25784.952412
2555.046269	25798.787855
2556.501512	25804.820133
2557.956494	25803.303721
2559.409606	25808.936940
2560.864067	25821.823744
2562.316659	25830.953605
2563.768991	25832.751481
2565.219455	25842.512934
2566.672875	25851.754384
2568.121213	25863.498787
2569.572507	25864.414410
2571.021934	25869.487036
2572.467889	25880.208120
2573.916799	25882.588816
2575.362239	25882.497887
2576.809027	25898.457124
2578.253951	25908.878744
2579.698617	25912.512367
2581.144632	25923.085529
2582.587179	25927.726615
2584.031074	25925.265598
2585.471504	25933.393235
2586.913281	25941.008666
2588.353199	25956.484205
2589.794464	25959.800961
2591.232267	25967.428587
2592.673021	25983.187633
2594.108711	26000.264526
2595.547351	26020.375690
2596.984133	26033.781070
2598.419060	26056.552988
2599.856934	26077.253787
2601.289751	26097.445859
2602.723915	26115.745475
2604.156225	26148.638022
2605.589881	26177.970664
2607.021684	26206.036738
2608.453233	26237.340965
2609.884530	26253.191233
2611.313974	26278.942300
2612.743166	26301.304591
2614.170508	26320.780018
2615.599195	26340.888755
2617.027631	26359.237527
2618.452619	26383.299181
2619.878954	26391.912286
2621.303440	26411.397614
2622.729272	26413.925675
2624.151660	26427.671595
2625.575394	26436.644919
2626.997281	26455.781747
2628.418919	26473.475751
2629.838711	26486.313277
2631.259849	26495.356507
2632.680737	26494.454212
2634.098187	26515.604621
2635.518576	26530.521135
2636.935528	26549.375185
2638.352231	26557.699535
2639.768687	26576.056103
2641.184893	26593.982425
2642.600852	26599.759015
2644.014970	26617.304085
2645.428841	26626.878845
2646.840872	26672.729973
2648.254248	26711.196602
2649.664194	26769.865709
2651.077075	26854.320427
2652.486528	26938.695975
2653.895735	27030.195490
2655.303106	27115.649772
2656.713412	27188.086743
2658.121881	27256.330741
2659.528515	27307.716099
2660.934904	27351.982850
2662.339459	27366.212944
2663.745358	27390.418789
2665.149424	27380.569390
2666.553245	27359.234928
2667.956823	27329.614996
2669.358568	27270.745030
2670.761657	27203.166923
2672.161328	27133.948792
2673.562343	27033.361351
2674.959942	26928.053989
2676.360471	26827.626767
2677.757585	26701.727070
2679.156042	26583.085641
2680.552671	26463.258965
2681.949058	26350.487248
2683.345204	26229.563384
2684.739523	26127.082880
2686.135184	26040.520022
2687.527437	25970.932379
2688.921032	25932.850086
2690.312803	25895.512135
2691.705917	25895.870604
2693.097207	25898.989777
2694.486674	25890.744777
2695.875901	25892.968521
2697.264889	25901.339549
2698.655219	25913.615644
2700.040564	25923.661189
2701.428833	25938.629821
2702.815282	25965.396612
2704.201492	25981.171322
2705.587464	26010.601213
2706.970036	26033.752705
2708.353951	26063.486096
2709.737628	26086.610739
2711.121067	26123.676509
2712.501110	26166.013914
2713.882495	26200.411467
2715.262064	26213.054576
2716.642975	26239.586480
2718.022070	26274.063990
2719.399352	26305.727950
2720.777975	26345.766306
2722.154785	26387.138325
2723.531359	26432.496592
2724.907697	26471.376014
2726.282223	26504.478522
2727.658090	26524.403812
2729.030570	26561.843948
2730.405966	26578.655779
2731.776402	26606.012893
2733.148179	26630.535181
2734.519721	26648.862605
2735.889455	26675.396188
2737.260530	26700.192962
2738.629796	26718.785357
2739.998829	26753.548347
2741.366056	26783.430043
2742.733050	26809.302882
2744.099811	26836.521873
2745.466339	26857.233158
2746.831062	26875.154970
2748.195554	26895.819658
2749.559813	26909.316230
2750.923840	26911.163727
2752.287636	26927.468005
2753.648058	26932.045293
2755.011391	26933.427748
2756.369781	26932.520619
2757.731081	26938.882789
2759.089010	26960.162423
2760.449848	26973.231661
2761.808887	26976.391223
2763.164557	26994.478714
2764.523135	27004.708171
2765.878346	27006.058732
2767.233328	27018.711336
2768.586514	27024.820821
2769.942606	27042.861270
2771.295333	27054.157215
2772.647833	27080.679219
2774.000104	27088.398827
2775.353714	27106.739003
2776.703962	27114.098301
2778.052417	27124.200404
2779.403776	27140.163242
2780.751776	27161.020750
2782.101114	27178.667337
2783.448661	27193.917717
2784.795980	27220.713550
2786.143073	27239.875670
2787.488375	27261.429184
2788.833451	27282.656123
2790.178300	27298.706148
2791.522924	27324.214875
2792.864196	27362.420487
2794.206806	27395.896734
2795.549190	27430.019780
2796.891350	27479.645768
2798.230160	27512.298190
2799.571869	27575.693670
2800.910231	27620.617565
2802.249930	27669.505076
2803.587843	27718.202862
2804.923972	27768.224522
2806.259877	27835.649944
2807.597120	27893.090444
2808.932579	27938.912317
2810.267815	27998.593558
2811.601268	28049.598513
2812.936059	28096.516048
2814.267508	28135.683537
2815.601853	28175.600971
2816.931300	28203.609232
2818.262084	28243.729326
2819.592646	28273.729376
2820.921429	28310.040560
2822.251548	28346.151259
2823.579889	28382.923218
2824.908009	28416.804176
2826.234351	28454.151138
2827.562030	28486.745677
2828.886375	28512.569592
2830.212057	28540.146617
2831.535963	28573.961907
2832.859650	28598.155911
2834.184672	28621.341005
2835.506364	28645.000910
2836.827838	28676.509870
2838.149093	28694.917423
2839.470129	28736.055375
2840.789393	28755.982415
2842.109992	28779.995965
2843.428819	28808.419820
2844.747428	28840.913611
2846.064266	28887.581666
2847.380887	28910.948933
2848.697291	28949.658408
2850.011925	28990.805865
2851.327895	29024.971837
2852.640544	29078.569168
2853.954529	29126.903266
2855.268296	29180.578987
2856.581848	29228.504146
2857.893632	29301.221660
2859.203650	29357.460684
2860.515003	29422.502730
2861.823041	29499.827273
2863.132413	29575.141925
2864.441571	29649.231500
2865.750513	29731.087724
2867.057691	29793.654404
2868.363107	29864.305349
2869.669857	29917.006533
2870.974844	29985.796491
2872.279618	30036.286662
2873.582630	30084.582041
2874.888524	30136.953362
2876.189562	30184.003762
2877.491935	30223.878967
2878.792548	30268.074942
2880.094495	30300.518627
2881.396229	30324.421448
2882.694658	30361.692588
2883.994421	30379.143887
2885.292427	30405.743513
2886.590221	30414.134291
2887.886259	30425.787350
2889.183630	30444.124401
2890.479245	30466.834796
2891.774649	30489.298210
2893.069842	30514.208899
2894.361738	30539.377429
2895.656510	30556.907948
2896.947985	30587.839650
2898.240793	30603.643331
2899.533391	30628.043210
2900.822695	30652.905997
2902.113331	30666.163737
2903.402216	30698.009677
2904.692434	30713.347113
2905.979359	30723.667317
2907.267618	30745.508070
2908.554126	30760.133006
2909.840427	30790.847750
2911.126519	30804.216736
2912.410863	30833.339205
2913.698078	30867.180675
2914.980467	30878.856406
2916.264188	30903.417656
2917.546163	30919.328102
2918.827930	30921.118647
2920.107953	30927.987916
2921.390845	30936.306866
2922.671992	30937.253666
2923.949857	30945.491991
2925.230591	30955.835969
2926.508044	30957.416978
2927.785291	30967.815330
2929.060797	30974.450693
2930.339170	30973.623309
2931.612728	30971.973688
2932.889154	30961.286156
2934.163839	30955.878542
2935.436784	30953.440409
2936.711059	30953.878218
2937.983595	30945.093306
2939.255927	30940.499242
2940.524985	30930.354545
2941.796909	30935.978370
2943.067095	30930.777136
2944.337078	30931.239539
2945.606857	30938.271888
2946.874899	30944.659207
2948.141206	30945.694054
2949.407310	30961.426494
2950.674744	30985.033350
2951.940444	30985.677520
2953.205941	30998.078360
2954.471236	31014.221519
2955.733266	31011.682486
2956.996627	31029.871554
2958.259785	31040.238831
2959.521212	31065.550672
2960.783968	31091.813237
2962.044993	31115.735403
2963.304286	31136.667570
2964.563380	31159.041592
2965.822273	31167.769805
2967.080966	31185.067894
2968.339459	31199.291941
2969.596223	31221.850015
2970.852787	31246.416109
2972.107624	31274.414835
2973.363789	31305.341349
2974.616700	31327.768450
2975.870940	31350.722126
2977.124981	31367.095025
2978.377296	31386.538406
2979.629412	31414.070573
2980.879804	31427.294297
2982.133051	31438.657478
2983.381521	31462.838861
2984.632846	31484.562251
2985.880921	31496.681323
2987.128800	31525.608201
2988.376481	31547.224987
2989.623965	31560.745293
2990.869728	31590.598281
2992.115295	31593.213166
2993.362189	31613.564668
2994.605839	31645.041743
2995.850817	31649.909688
2997.092551	31677.685287
2998.337137	31695.903398
2999.580004	31717.648751
3000.819630	31743.556699
3002.062106	31773.685074
3003.301343	31780.837071
3004.541906	31810.120022
3005.780754	31833.636515
3007.019406	31859.956275
3008.256344	31880.891415
3009.494608	31903.549570
3010.731158	31933.221317
3011.967513	31946.102316
3013.203675	31979.899383
3014.438124	31997.633431
3015.672379	32029.474932
3016.906441	32049.119911
3018.138791	32073.122409
3019.369429	32105.256800
3020.602913	32137.212458
3021.834685	32154.567560
3023.064747	32173.714723
3024.294617	32196.848620
3025.522777	32226.633482
3026.752263	32246.893983
3027.980040	32260.589524
3029.207627	32279.370128
3030.436539	32316.526858
3031.660709	32331.020518
3032.887722	32338.946870
3034.111511	32370.046597
3035.336627	32393.684346
3036.560036	32406.792254
3037.783255	32432.581656
3039.004769	32443.753969
3040.229124	32455.550339
3041.448744	32478.432561
3042.669690	32498.686804
3043.890447	32515.301770
3045.109500	32528.188927
3046.329879	32541.446102
3047.547041	32562.128992
3048.765528	32570.969855
3049.982313	32597.924502
3051.198911	32608.474426
3052.415320	32628.832713
3053.628517	32643.474325
3054.844551	32667.151082
3056.057373	32688.338032
3057.273032	32701.202038
3058.483968	32720.029467
3059.696229	32722.212524
3060.908304	32732.229326
3062.120192	32747.720078
3063.330382	32758.275994
3064.540386	32777.129523
3065.750204	32809.180686
3066.958327	32831.936571
3068.166263	32850.108980
3069.372504	32877.160426
3070.580070	32913.559753
3071.785941	32936.890419
3072.991628	32966.974274
3074.197129	33005.734215
3075.400937	33041.836596
3076.606069	33081.174350
3077.809509	33108.832531
3079.011256	33128.585666
3080.212820	33154.211164
3081.414199	33175.827713
3082.615396	33191.721377
3083.814901	33218.079305
3085.014224	33240.378077
3086.214870	33272.353034
3087.413826	33264.368318
3088.609588	33277.628896
3089.808179	33286.431439
3091.003576	33299.288796
3092.200296	33303.579725
3093.393824	33306.704955
3094.590180	33314.193124
3095.784850	33309.305966
3096.976329	33332.376964
3098.172139	33339.208484
3099.363256	33351.939701
3100.555695	33351.877632
3101.744947	33363.976954
3102.937025	33373.372353
3104.127418	33369.645768
3105.314626	33380.812317
3106.503157	33387.282091
3107.693009	33387.737284
3108.879678	33406.856507
3110.066167	33418.082647
3111.252476	33427.956285
3112.440107	33430.845313
3113.624557	33431.866579
3114.807326	33442.259339
3115.992918	33455.175397
3117.176831	33464.251401
3118.359065	33467.151684
3119.541120	33477.936060
3120.722998	33474.170523
3121.904697	33479.219719
3123.084718	33461.324350
3124.263063	33488.997482
3125.444228	33503.841925
3126.622219	33514.913914
3127.800032	33538.014663
3128.977668	33563.226019
3130.153629	33601.536667
3131.329413	33634.257286
3132.506519	33666.012964
3133.681950	33684.992760
3134.855708	33716.075296
3136.027793	33738.573738
3137.201200	33782.563303
3138.374430	33808.633340
3139.545989	33847.074436
3140.718868	33905.117413
3141.888581	33941.457842
3143.059613	33985.955253
3144.228976	34026.119142
3145.396669	34040.153281
3146.567177	34052.157670
3147.733026	34056.987339
3148.903185	34043.015249
3150.068686	34031.715502
3151.234014	34002.382243
3152.399168	33960.616523
3153.564148	33895.897472
3154.730448	33854.031783
3155.892096	33800.082698
3157.055063	33738.697917
3158.217858	33677.599201
3159.380480	33631.448387
3160.541437	33573.111123
3161.702221	33513.604358
3162.862833	33468.717696
3164.021781	33423.948235
3165.180558	33385.370189
3166.339163	33348.017798
3167.497596	33322.916463
3168.655857	33303.227970
3169.812456	33297.571999
3170.967394	33307.920235
3172.123651	33336.078785
3173.278247	33368.578340
3174.432673	33423.480574
3175.585439	33476.176722
3176.738035	33536.941248
3177.890460	33620.698979
3179.042716	33690.544373
3180.194801	33760.747346
3181.343741	33830.204106
3182.495487	33905.490970
3183.645575	33978.799960
3184.794007	34056.924815
3185.942270	34130.929255
3187.090363	34210.672424
3188.238288	34279.837112
3189.384558	34361.986166
3190.530659	34416.301375
3191.675105	34469.368460
3192.819384	34541.153706
3193.963495	34596.443058
3195.108923	34642.538932
3196.251213	34672.975761
3197.393336	34718.521195
3198.535291	34760.172525
3199.677079	34798.476206
3200.818701	34837.732218
3201.957186	34868.495520
3203.096989	34898.901689
3204.238110	34927.380898
3205.376096	34955.170159
3206.512433	34971.594721
3207.648604	34975.057630
3208.786093	34986.802761
3209.921932	34988.362494
3211.059089	34980.196805
3212.191633	34976.268136
3213.328459	34949.725604
3214.460673	34918.350207
3215.594204	34881.893589
3216.727571	34853.968015
3217.857810	34807.481444
3218.990847	34758.076924
3220.120758	34726.122035
3221.251985	34685.588887
3222.380088	34633.046992
3223.510987	34588.701891
3224.640242	34554.127081
3225.767854	34514.654283
3226.892344	34490.229052
3228.021108	34451.545455
3229.146751	34424.046173
3230.272232	34407.092719
3231.396071	34430.427202
3232.522704	34435.685732
3233.644740	34467.389038
3234.768092	34500.480423
3235.891282	34555.393194
3237.014310	34625.963404
3238.135698	34693.664637
3239.256925	34773.667186
3240.376513	34851.026605
3241.495940	34929.938133
3242.613729	35027.775852
3243.734310	35114.619436
3244.851778	35203.677611
3245.969085	35295.122510
3247.086232	35387.804652
3248.201743	35465.925028
3249.318569	35553.394438
3250.432284	35622.944110
3251.548789	35700.973718
3252.663660	35769.501760
3253.775422	35854.855536
3254.887024	35917.056447
3255.999942	35986.039964
3257.112701	36041.303671
3258.222353	36100.930964
3259.333319	36137.854879
3260.444127	36178.314643
3261.553304	36206.163141
3262.660849	36244.860400
3263.769708	36290.473526
3264.878410	36339.954960
3265.984009	36372.194317
3267.090922	36428.770937
3268.196206	36474.529447
3269.302805	36535.080140
3270.406303	36584.980190
3271.511115	36626.221944
3272.615770	36665.655567
3273.717326	36708.581343
3274.818726	36733.159844
3275.921441	36772.517514
3277.023998	36774.977460
3278.123459	36782.487238
3279.225704	36789.687886
3280.324853	36790.056578
3281.422378	36783.007099
3282.519747	36790.213257
3283.619899	36787.120224
3284.716957	36785.941662
3285.813860	36775.698635
3286.910608	36781.207341
3288.002798	36772.355122
3289.099236	36782.023471
3290.194052	36765.983426
3291.288714	36751.467742
3292.381754	36741.232996
3293.474640	36745.061270
3294.565905	36747.389514
3295.658483	36758.264911
3296.749440	36783.278006
3297.838778	36795.066781
3298.927963	36831.858297
3300.018461	36861.985984
3301.105874	36892.880979
3302.193135	36933.890808
3303.281708	36972.006715
3304.370128	37010.801537
3305.454001	37055.968824
3306.542116	37096.583355
3307.627150	37126.871453
3308.710567	37183.466185
3309.795297	37218.604116
3310.878412	37271.085216
3311.962838	37317.918222
3313.044186	37361.311386
3314.126846	37417.015543
3315.207892	37468.559905
3316.288787	37506.320558
3317.368068	37540.172677
3318.447200	37598.546810
3319.527642	37644.820407
3320.605010	37680.807655
3321.683690	37709.709688
3322.760759	37724.209688
3323.837677	37742.686702
3324.912984	37771.775144
3325.988142	37795.162939
3327.064611	37793.554778
3328.138010	37797.695116
3329.211260	37796.081313
3330.285820	37790.887774
3331.358772	37785.795409
3332.430115	37766.115037
3333.502770	37742.190808
3334.572357	37719.358186
3335.643255	37690.977470
3336.712546	37658.544322
3337.783148	37628.133097
3338.852143	37591.338619
3339.919532	37572.977662
3340.985316	37535.817464
3342.055326	37506.568763
3343.122273	37468.529315
3344.186158	37434.417808
3345.252811	37411.779624
3346.317859	37406.981980
3347.381304	37397.218334
3348.444603	37399.674032
3349.507755	37430.513652
3350.570761	37452.631287
3351.633621	37477.704844
3352.694879	37511.740338
3353.753080	37550.675761
3354.815502	37610.628132
3355.874867	37660.520265
3356.934087	37708.730519
3357.994617	37770.037830
3359.050637	37817.918475
3360.109421	37875.212671
3361.163698	37926.321317
3362.220739	37983.619416
3363.276182	38021.761159
3364.332933	38067.783608
3365.388086	38105.545586
3366.441642	38144.521944
3367.493602	38176.351279
3368.548323	38214.791223
3369.599995	38248.452038
3370.651524	38265.214804
3371.704361	38285.115199
3372.754151	38287.891405
3373.805250	38308.314825
3374.853303	38300.338730
3375.904115	38303.822480
3376.951883	38312.468278
3377.999508	38330.420548
3379.046990	38319.122793
3380.092880	38336.083254
3381.140078	38355.621913
3382.184234	38372.550420
3383.231148	38392.407079
3384.276470	38418.360744
3385.318751	38455.103711
3386.360892	38478.878552
3387.404340	38497.651492
3388.447647	38515.621468
3389.489365	38542.362564
3390.530941	38562.735373
3391.572377	38575.794307
3392.612223	38587.350379
3393.650481	38602.313277
3394.690048	38627.106947
3395.729473	38646.310679
3396.767311	38670.965366
3397.803562	38690.951734
3398.839674	38716.944322
3399.877093	38739.974891
3400.911479	38754.084225
3401.947172	38770.926221
3402.982726	38792.520447
3404.015249	38791.607979
3405.050525	38807.430923
3406.082770	38809.578511
3407.114877	38833.187066
3408.145400	38849.612529
3409.177230	38885.897421
3410.208922	38900.209809
3411.237586	38942.259511
3412.266113	38983.769279
3413.295947	39022.245151
3414.325642	39056.232238
3415.352312	39087.428668
3416.380289	39113.593943
3417.405241	39109.417363
3418.432943	39128.439869
3419.457622	39143.704456
3420.483607	39154.640092
3421.508012	39160.675743
3422.532281	39161.240376
3423.554971	39155.762958
3424.577525	39143.672456
3425.601385	39124.397838
3426.622225	39097.368070
3427.642930	39062.012119
3428.664940	39017.758951
3429.683932	38964.037535
3430.702789	38900.276837
3431.722951	38825.905824
3432.740097	38740.353463
