-116.516516	9.147160
-113.846916	11.284242
-111.180251	13.121081
-108.514338	14.680194
-105.851357	15.984098
-103.186947	17.055309
-100.525467	17.916343
-97.862557	18.589719
-95.204755	19.097951
-92.545523	19.463558
-89.887039	19.709054
-87.231479	19.856958
-84.574491	19.929785
-81.922601	19.950053
-79.269280	19.940277
-76.618880	19.922975
-73.967050	20.867691
-71.320311	20.132460
-68.672142	20.428648
-66.024717	21.549075
-63.380205	22.267519
-60.734265	22.177227
-58.093406	21.767135
-55.451118	22.197078
-52.811738	20.044615
-50.170930	17.118293
-47.530862	6.087724
-44.895866	-38.365810
-42.259442	-175.806290
-39.625920	-460.522884
-36.990970	-676.673860
-34.361085	-516.627475
-31.727608	-141.447153
-29.099193	225.695712
-26.471512	566.321933
-23.842402	874.205329
-21.218349	1152.380837
-18.590707	1398.754535
-15.968118	1615.023784
-13.346261	1799.668692
-10.725134	1953.323602
-8.104737	2076.315654
-5.487229	2165.994590
-2.868291	2225.340479
-0.252240	2252.013743
2.363083	2248.534018
4.977679	2215.060461
7.589392	2148.553332
10.202534	2050.309506
12.810642	1923.844251
15.422332	1764.264526
18.028991	1574.540783
20.637078	1354.175892
23.244441	1102.890282
25.846779	821.578279
28.452695	513.014723
31.053589	177.770230
33.655911	-172.381950
36.253216	-493.138487
38.854096	-667.436819
41.449962	-519.232197
44.047255	-165.610041
46.643829	17.753079
49.235394	36.840065
51.828387	40.085600
54.418519	40.551461
57.010079	41.805370
59.598779	42.966619
62.188906	43.251734
64.774035	43.753069
67.360590	43.380736
69.946432	44.079988
72.529420	43.618293
75.113834	43.601193
77.691120	42.722146
80.271972	40.681707
82.849975	37.116402
85.427268	28.422742
88.005987	17.597219
90.579724	0.697502
93.154889	-28.027384
95.727210	-68.522176
98.298823	-128.683284
100.867596	-203.145040
103.437796	-279.511700
106.005158	-341.335797
108.573945	-352.626949
111.139896	-290.450511
113.703012	-127.952533
116.269684	138.213601
118.827135	510.584053
121.390271	984.851401
123.948447	1551.775154
126.510178	2185.901537
129.066952	2885.773213
131.625153	3632.766650
134.178401	4419.944140
136.730950	5230.779391
139.287050	6055.091394
141.838202	6876.950278
144.388657	7683.202670
146.938414	8465.427526
149.485353	9209.077440
152.031595	9899.746122
154.579263	10527.482162
157.126235	11081.625362
159.668272	11555.563020
162.209615	11932.781535
164.750265	12213.148053
167.292341	12392.220953
169.831605	12469.367823
172.368061	12453.140955
174.903825	12356.805734
177.441015	12208.374901
179.977514	12034.417889
182.511207	11856.663798
185.042097	11706.289827
187.572298	11589.052927
190.103924	11504.348569
192.632749	11436.334958
195.158775	11388.779159
197.684115	11351.158520
200.210881	11309.774305
202.734849	11273.117312
205.258133	11250.144120
207.780732	11231.088553
210.300538	11219.145515
212.819661	11210.452351
215.338101	11208.023076
217.857965	11207.535363
220.370828	11207.194378
222.887222	11213.431510
225.402934	11220.103721
227.913756	11228.410729
230.426004	11238.414420
232.935468	11252.617747
235.444254	11270.605754
237.952362	11283.301072
240.461893	11302.257256
242.966544	11322.799110
245.470519	11339.839559
247.975919	11358.771079
250.476443	11374.108140
252.980490	11384.452654
255.477566	11391.431004
257.978166	11396.906735
260.475994	11404.070695
262.973149	11406.544170
265.469631	11404.913338
267.961250	11403.044029
270.456389	11402.907068
272.948762	11401.824805
275.440464	11398.463363
277.929402	11398.361948
280.419765	11399.166367
282.907365	11391.445748
285.392206	11382.226868
287.880562	11370.362757
290.361978	11368.544514
292.846908	11362.947801
295.326993	11361.026069
297.810590	11366.524745
300.289344	11365.241582
302.769522	11370.244160
305.246947	11371.625028
307.723709	11370.823926
310.199808	11376.860522
312.673158	11379.521954
315.145846	11382.174972
317.617873	11388.516230
320.089239	11388.348266
322.557861	11386.637314
325.025823	11380.759571
327.495207	11374.391445
329.959769	11366.122065
332.427835	11353.668844
334.891081	11329.735787
337.353669	11297.713834
339.815601	11269.554667
342.276876	11235.220083
344.735417	11189.548630
347.195380	11140.915745
349.652610	11077.703469
352.109186	11007.522419
354.565108	10934.481818
357.018301	10853.035332
359.472915	10773.722095
361.922728	10684.085641
364.376037	10598.315350
366.824548	10505.025099
369.272408	10410.542259
371.721689	10307.911740
374.166177	10197.749348
376.612087	10096.425018
379.057348	9987.763424
381.499889	9880.078360
383.941783	9781.977288
386.383030	9679.883881
388.821561	9583.522389
391.261514	9495.692517
393.698753	9400.653615
396.133280	9317.442198
398.571295	9236.519264
401.004533	9164.339266
403.439192	9092.047962
405.869079	9027.787754
408.302451	8962.985661
410.731053	8905.315128
413.159014	8859.268167
415.588395	8810.989817
418.013011	8766.867995
420.439049	8730.851744
422.864446	8696.619517
425.289203	8670.549317
427.709202	8648.238548
430.130622	8627.793296
432.549345	8606.100496
434.969489	8582.175680
437.386938	8567.339802
439.805807	8551.775094
442.221983	8532.901962
444.633412	8518.604915
447.048317	8498.344241
449.460532	8485.299413
451.872113	8466.883102
454.283060	8450.596612
456.691321	8431.067034
459.098949	8407.347335
461.505945	8387.719840
463.912310	8363.543078
466.315992	8332.223167
468.719044	8306.892588
471.121466	8276.912347
473.523258	8247.457427
475.922373	8215.258732
478.322907	8185.476135
480.722812	8148.712691
483.117994	8112.418384
485.516643	8079.823612
487.910572	8041.476267
490.303875	8008.696056
492.696552	7975.195894
495.088604	7943.609799
497.482074	7913.864617
499.870833	7890.302134
502.256925	7862.946112
504.644436	7837.091202
507.031325	7813.616726
509.415550	7789.279735
511.801194	7768.801608
514.184175	7746.539782
516.564496	7722.226828
518.946236	7695.797452
521.325317	7675.154272
523.705817	7646.223117
526.083659	7614.808403
528.458846	7575.656335
530.833415	7535.957063
533.209403	7493.454626
535.582737	7442.584478
537.957489	7384.253929
540.327556	7326.763141
542.697007	7261.042249
545.067876	7191.326484
547.434065	7115.300981
549.801672	7035.635919
552.166633	6946.575336
554.530981	6857.916685
556.894717	6766.412721
559.259869	6670.813338
561.620350	6577.631621
563.982249	6477.983628
566.341507	6381.180362
568.698128	6291.338487
571.058193	6198.209930
573.411567	6104.393387
575.768386	6010.696815
578.122570	5922.745353
580.476146	5836.577349
582.829113	5754.926251
585.179449	5673.632804
587.531201	5598.234837
589.876277	5527.829770
592.226817	5462.894084
594.570683	5401.731399
596.920011	5348.663424
599.264691	5298.685307
601.606745	5256.495611
603.950217	5218.840732
606.291066	5187.443766
608.631313	5159.139134
610.968939	5138.613844
613.310000	5119.604783
615.646423	5099.571746
617.984263	5081.734169
620.319486	5072.082931
622.652093	5059.836869
624.986116	5050.063859
627.317526	5036.962787
629.648337	5028.367610
631.978550	5020.129629
634.308165	5009.525857
636.633158	5005.894560
638.963592	4997.654869
641.289404	4988.321205
643.612610	4985.552402
645.937231	4979.351461
648.259247	4978.480160
650.580670	4978.362514
652.899489	4986.330569
655.219724	4994.866549
657.539366	5006.275892
659.856407	5024.556750
662.172856	5047.957630
664.486707	5075.039640
666.801974	5106.994155
669.114644	5139.953221
671.428729	5180.151249
673.738214	5223.366539
676.049115	5267.201234
678.357423	5315.090484
680.665143	5363.438447
682.974277	5412.184761
685.278820	5463.192891
687.582775	5518.245778
689.886145	5572.834361
692.190929	5624.430043
694.491127	5674.665012
696.792739	5723.745748
699.093767	5778.535625
701.390212	5827.479998
703.688073	5878.219507
705.985350	5927.772019
708.282044	5973.523683
710.574162	6021.747032
712.869691	6066.783396
715.160646	6110.876145
717.453016	6153.913399
719.742811	6202.092820
722.032025	6248.475579
724.320660	6290.267085
726.606723	6338.240459
728.894199	6389.462251
731.179104	6437.908444
733.463432	6488.293073
735.745191	6537.534715
738.028364	6592.392618
740.310960	6645.690970
742.589000	6704.492699
744.868455	6763.791435
747.147334	6825.560502
749.425637	6885.733664
751.699391	6953.187491
753.974559	7016.846506
756.249153	7080.037982
758.521187	7149.261493
760.794635	7216.747376
763.065525	7284.740540
765.333859	7354.631227
767.603606	7425.767408
769.870799	7493.133603
772.137421	7561.069704
774.403473	7620.951856
776.666974	7682.481495
778.931888	7738.637547
781.196232	7793.210830
783.456047	7843.956497
785.717274	7894.600111
787.977934	7944.423430
790.236048	7989.991941
792.491617	8034.517140
794.750577	8074.524704
797.003038	8116.826990
799.260866	8151.072747
801.514174	8182.165649
803.764943	8218.590656
806.017124	8253.580777
808.266766	8284.207412
810.517821	8313.356315
812.764364	8339.672717
815.012319	8363.277116
817.257740	8388.613813
819.504572	8416.585732
821.750843	8437.991485
823.992610	8469.415522
826.237759	8500.269168
828.476436	8535.786581
830.718495	8575.238012
832.956056	8616.231692
835.195029	8657.532622
837.431475	8708.956750
839.669332	8765.263303
841.904664	8824.557488
844.137473	8893.078208
846.371693	8966.815199
848.603391	9054.098058
850.834533	9149.629791
853.065122	9262.609121
855.295155	9380.607604
857.524635	9514.881171
859.749633	9659.967064
861.978006	9817.197967
864.201900	9982.027970
866.427204	10152.381869
868.648033	10331.649257
870.872234	10515.967206
873.091962	10698.478754
875.313101	10887.063748
877.533689	11061.874345
879.751767	11238.633542
881.971255	11404.696117
884.186277	11562.473526
886.400752	11709.756689
888.614678	11837.941015
890.828058	11948.012883
893.040890	12030.218667
895.253176	12095.646820
897.462959	12131.121489
899.672197	12138.392466
901.880890	12117.564688
904.087084	12069.656952
906.294687	11989.167904
908.499792	11877.724745
910.704354	11740.350025
912.906421	11579.154657
915.109897	11402.309789
917.310879	11204.120811
919.511320	10991.743513
921.713168	10769.694994
923.908626	10544.922378
926.107443	10310.418364
928.301821	10078.970857
930.499557	9850.701952
932.692857	9634.169663
934.887566	9425.894823
937.079789	9234.967792
939.271474	9062.727313
941.462620	8914.349055
943.651284	8773.689655
945.839412	8661.020376
948.025059	8568.927030
950.214058	8500.393478
952.398634	8446.966417
954.582675	8402.700920
956.770066	8372.915391
958.949153	8354.476641
961.131591	8346.046142
963.313495	8337.723329
965.492924	8326.808171
967.669881	8311.705258
969.848246	8291.951583
972.028018	8262.851188
974.201441	8222.769107
976.378210	8176.335231
978.550572	8121.848771
980.724342	8058.476074
982.893708	7976.631530
985.066418	7886.026231
987.236663	7788.062585
989.406379	7672.357367
991.575566	7554.530408
993.740356	7433.502579
995.908487	7303.922975
998.072224	7170.302336
1000.237367	7033.236576
1002.400051	6900.127000
1004.562210	6771.024805
1006.721912	6645.260906
1008.881090	6516.728648
1011.041674	6396.857195
1013.199803	6279.832723
1015.357408	6171.241066
1017.514490	6060.252533
1019.671049	5956.366963
1021.823228	5855.985995
1023.976813	5763.050217
1026.129877	5671.700051
1028.280493	5586.271039
1030.432514	5502.964284
1032.580162	5423.880271
1034.731142	5349.140166
1036.877751	5277.120144
1039.023841	5209.581404
1041.169413	5148.554333
1043.316390	5087.058469
1045.457078	5023.389170
1047.601096	4964.179958
1049.742673	4905.728739
1051.883734	4848.905774
1054.026199	4791.453868
1056.162385	4740.409586
1058.301897	4684.956133
1060.437053	4632.114673
1062.575534	4582.428699
1064.709661	4532.309435
1066.843275	4486.503671
1068.978294	4438.551310
1071.108963	4385.445687
1073.241037	4333.023582
1075.370682	4281.941076
1077.499815	4227.184781
1079.628436	4175.234574
1081.756546	4115.611740
1083.882230	4059.048134
1086.007404	3998.034604
1088.133982	3937.268157
1090.256222	3872.696451
1092.379867	3807.599242
1094.499178	3739.481292
1096.623717	3671.533482
1098.742011	3601.156618
1100.861710	3532.574942
1102.978990	3462.209283
1105.095764	3393.803347
1107.212031	3323.951603
1109.325882	3253.064021
1111.441138	3185.662868
1113.552070	3115.637668
1115.666315	3050.721124
1117.776239	2984.682101
1119.887567	2921.861371
1121.998390	2862.235929
1124.104897	2802.051047
1126.214714	2744.848074
1128.320216	2685.626100
1130.427121	2627.735464
1132.527811	2569.980362
1134.633713	2515.403883
1136.735306	2464.436758
1138.838302	2411.878188
1140.940797	2361.098513
1143.037085	2313.652210
1145.138581	2264.621094
1147.235773	2218.773567
1149.332468	2169.821286
1151.428664	2121.944969
1153.524363	2075.751128
1155.619563	2030.234058
1157.712368	1986.407493
1159.806574	1942.727697
1161.894589	1902.687795
1163.987802	1864.452149
1166.074827	1824.484953
1168.165151	1788.865831
1170.251188	1750.856184
1172.340522	1714.936151
1174.423675	1681.299838
1176.508230	1649.663697
1178.594187	1620.027940
1180.675862	1591.165699
1182.758939	1563.169866
1184.839630	1534.836394
1186.919829	1506.415502
1188.999537	1482.114198
1191.078754	1456.743725
1193.155589	1434.052270
1195.230043	1413.512256
1197.307788	1393.031399
1199.381264	1376.431267
1201.456140	1357.555385
1203.526749	1344.177632
1205.598760	1327.200890
1207.668394	1312.981889
1209.739429	1298.901011
1211.809976	1283.599029
1213.876262	1270.389069
1215.943949	1258.618566
1218.009264	1248.352311
1220.075979	1239.202346
1222.138438	1230.250824
1224.204182	1222.400890
1226.265673	1214.119527
1228.328563	1205.862069
1230.389086	1200.934705
1232.449125	1194.343088
1234.508682	1189.519082
1236.565873	1183.766215
1238.622583	1178.148781
1240.676930	1173.862018
1242.734557	1167.295207
1244.789822	1162.655536
1246.840846	1158.078673
1248.893270	1154.598261
1250.945214	1151.024118
1252.994800	1148.173101
1255.043907	1144.998281
1257.092536	1142.769977
1259.140686	1139.300364
1261.188357	1137.055900
1263.231799	1132.336424
1265.278515	1127.689190
1267.322878	1121.723278
1269.366765	1119.650389
1271.408300	1116.118768
1273.447486	1112.486227
1275.489945	1110.797593
1277.528181	1108.183507
1279.567816	1106.268025
1281.606976	1105.355435
1283.641917	1102.412337
1285.678257	1101.151502
1287.712253	1101.529629
1289.747647	1101.392578
1291.778827	1100.097988
1293.811405	1099.702862
1295.843512	1098.303549
1297.873278	1096.484690
1299.904442	1096.000576
1301.931398	1094.610527
1303.959752	1091.870422
1305.983902	1093.904126
1308.011316	1094.134907
1310.034528	1095.185216
1312.059138	1095.604267
1314.081414	1096.655769
1316.105087	1097.597452
1318.126427	1100.654717
1320.147299	1102.097199
1322.167704	1104.453362
1324.183916	1105.727930
1326.201525	1107.767236
1328.216806	1109.727576
1330.235346	1111.707999
1332.249697	1114.687339
1334.261722	1117.303600
1336.277004	1120.074012
1338.288101	1122.870037
1340.300595	1127.477369
1342.308906	1131.808009
1344.320473	1136.101325
1346.326000	1139.766124
1348.334783	1143.018789
1350.339388	1144.321215
1352.347247	1145.296825
1354.354644	1147.165426
1356.356010	1148.868197
1358.358773	1149.230408
1360.361075	1149.855021
1362.362918	1150.143149
1364.364301	1151.864193
1366.363371	1153.360380
1368.361982	1153.260421
1370.360135	1151.863131
1372.357829	1150.167115
1374.351361	1149.219355
1376.346289	1149.075073
1378.340759	1146.676509
1380.334774	1143.494287
1382.326480	1140.501547
1384.317732	1137.719496
1386.306678	1137.049793
1388.297019	1134.123642
1390.286905	1132.071777
1392.274488	1130.163970
1394.261616	1127.979310
1396.246443	1125.228537
1398.232665	1124.703064
1400.216587	1122.116655
1402.200056	1119.014289
1404.183072	1115.517575
1406.163791	1110.682506
1408.145904	1107.040267
1410.125721	1102.087693
1412.105086	1098.270037
1414.080313	1094.233128
1416.058779	1091.135737
1418.034950	1086.845040
1420.010673	1083.292851
1421.985946	1079.338103
1423.958928	1074.707261
1425.931462	1069.695490
1427.903548	1064.823238
1429.875187	1058.307989
1431.842697	1053.081970
1433.815281	1047.556983
1435.780060	1041.030741
1437.749910	1035.138356
1439.715637	1029.151492
1441.682756	1024.368288
1443.647592	1020.866670
1445.608308	1018.634907
1447.574093	1013.516028
1449.533922	1008.222914
1451.495144	1004.219456
1453.457759	1001.949843
1455.416259	998.327374
1457.374316	994.607149
1459.331932	988.939852
1461.289106	985.559500
1463.244004	981.736242
1465.200294	978.100081
1467.154310	973.314592
1469.107886	969.924239
1471.059189	966.838629
1473.011884	963.856538
1474.962308	960.459541
1476.912292	955.819041
1478.861838	952.689433
1480.809115	949.809758
1482.754125	947.169562
1484.700526	943.876985
1486.646490	940.160522
1488.592017	936.804429
1490.535279	932.696946
1492.478104	928.227849
1494.418666	924.266104
1496.360619	921.797846
1498.300310	917.264870
1500.239567	916.474163
1502.178388	916.640762
1504.114950	915.840955
1506.052903	914.162595
1507.988597	911.095217
1509.923858	910.036525
1511.856863	907.972009
1513.789435	906.912286
1515.721575	904.973122
1517.653283	902.079755
1519.582737	901.892203
1521.513582	900.930569
1523.443995	898.760380
1525.370336	898.222692
1527.298068	898.662635
1529.223549	897.093215
1531.148601	896.351451
1533.073224	894.327424
1534.997418	893.310881
1536.919364	893.102215
1538.842701	892.334907
1540.763792	891.349055
1542.682638	889.773627
1544.602873	889.076155
1546.520866	886.133158
1548.438432	883.077662
1550.353756	881.665022
1552.270470	880.089301
1554.183129	877.887087
1556.098992	875.831338
1558.012615	875.398817
1559.924001	874.403216
1561.836775	871.743038
1563.745500	868.431500
1565.655614	866.632784
1567.565305	865.691971
1569.474573	865.058904
1571.381607	866.790161
1573.286408	864.797270
1575.192598	863.038993
1577.096556	864.789018
1579.000093	863.983699
1580.903210	863.673587
1582.804097	865.649469
1584.706373	863.722874
1586.606421	861.562251
1588.507856	860.049257
1590.405258	860.021893
1592.302241	859.613328
1594.198806	857.931014
1596.096759	857.436030
1597.988877	856.614865
1599.884188	854.595055
1601.779082	853.314723
1603.671754	850.849601
1605.564010	849.120346
1607.454045	847.358975
1609.343666	844.189534
1611.232870	841.180291
1613.121660	840.273637
1615.008232	838.683729
1616.896192	836.346021
1618.780135	834.160724
1620.665466	832.391273
1622.550382	832.439276
1624.433085	830.839488
1626.317175	830.854465
1628.197254	830.862200
1630.078719	829.820427
1631.957974	828.979159
1633.838615	829.466680
1635.713452	828.682961
1637.593270	828.146820
1639.469084	827.875549
1641.344487	823.455456
1643.221276	823.603752
1645.092269	823.459622
1646.966443	824.177035
1648.836619	822.513732
1650.709975	822.759116
1652.581128	822.926899
1654.450079	821.616887
1656.320416	820.544767
1658.186759	820.880959
1660.054488	819.704510
1661.920018	817.413166
1663.786934	815.445819
1665.649861	814.204995
1667.514173	812.675336
1669.376289	811.330448
1671.238001	809.150228
1673.101097	806.514936
1674.961999	805.433006
1676.820707	805.537092
1678.679012	803.699353
1680.538702	802.467327
1682.392624	800.455365
1684.249720	799.605693
1686.106413	796.321954
1687.959130	794.320963
1689.815017	793.415259
1691.666931	792.152189
1693.518444	790.799889
1695.369556	790.980220
1697.220268	789.105633
1699.070579	790.514187
1700.918705	789.582364
1702.768216	789.305400
1704.611978	788.351906
1706.460689	786.927738
1708.303654	785.659753
1710.149786	783.057862
1711.991955	782.530074
1713.837290	782.775680
1715.676884	782.287097
1717.517862	780.616159
1719.360223	780.116534
1721.198628	780.199687
1723.038416	779.046870
1724.876029	779.219547
1726.713246	779.501760
1728.548290	779.325412
1730.384717	779.339498
1732.218972	779.479371
1734.052832	778.036667
1735.886299	776.948468
1737.715819	776.595338
1739.548498	778.015128
1741.377233	776.010406
1743.209125	777.673738
1745.037076	777.779098
1746.864634	778.107382
1748.691800	777.485580
1750.518575	778.307888
1752.344959	777.848134
1754.167405	779.170927
1755.993007	778.101911
1757.814674	776.924138
1759.637723	774.939933
1761.458610	773.502569
1763.279109	774.317605
1765.100989	773.038952
1766.917169	773.830731
1768.736501	775.541834
1770.551906	775.490272
1772.370461	775.951694
1774.185091	777.256133
1775.999335	776.618890
1777.813191	777.395621
1779.626661	778.310254
1781.437978	777.056467
1783.250676	776.945212
1785.062987	775.618162
1786.871381	774.580049
1788.681155	775.008130
1790.487015	774.974062
1792.296020	776.717423
1794.101112	776.218960
1795.907585	774.388573
1797.713674	772.978188
1799.515853	771.979088
1801.321175	770.528021
1803.122589	769.116887
1804.925383	769.986965
1806.724271	768.486915
1808.524540	767.188745
1810.324427	764.880332
1812.122173	762.940247
1813.919537	760.918131
1815.716522	760.241865
1817.513126	759.115998
1819.307591	757.078420
1821.103435	757.353575
1822.893625	757.737749
1824.688710	756.716432
1826.478144	755.758459
1828.270714	754.012428
1830.061149	752.758398
1831.849450	752.257276
1833.640886	751.588007
1835.426676	749.457620
1837.213846	750.153686
1838.998884	747.948144
1840.787056	747.468207
1842.571342	749.120690
1844.353499	749.802103
1846.137034	750.050683
1847.918441	749.171858
1849.701227	748.826858
1851.480132	747.267823
1853.260417	747.690060
1855.038575	748.106937
1856.818112	748.479634
1858.595524	748.605724
1860.370812	747.444413
1862.147478	747.576236
1863.922022	747.915725
1865.697944	748.865932
1867.468245	749.687188
1869.241674	750.180049
1871.012983	750.606725
1872.783922	750.385843
1874.556237	752.672899
1876.322939	752.976813
1878.092767	751.355031
1879.858731	750.229831
1881.627818	748.909677
1883.393045	750.043594
1885.157902	749.565679
1886.924137	749.972141
1888.686513	748.193296
1890.448522	746.952351
1892.210163	745.055536
1893.971438	743.703367
1895.732345	742.993923
1897.492886	740.581363
1899.251317	737.894307
1901.009382	735.485691
1902.765340	733.399403
1904.522674	730.384700
1906.279643	729.058479
1908.034505	728.753302
1909.787263	726.972839
1911.539657	724.565103
1913.293426	723.890515
1915.045092	722.867580
1916.794656	722.222793
1918.545595	721.823278
1920.296172	719.245303
1922.042909	717.632147
1923.791023	716.762989
1925.537037	716.136515
1927.284427	717.624775
1929.029718	716.452553
1930.772912	716.533209
1932.517481	717.590535
1934.259955	718.630286
1936.002068	721.388998
1937.743821	722.500637
1939.485215	722.506563
1941.224514	723.033451
1942.963455	723.429103
1944.702037	724.856477
1946.438528	724.185074
1948.174661	724.074618
1949.912168	724.908029
1951.645853	724.910112
1953.380913	725.506077
1955.113885	726.554829
1956.846499	726.224917
1958.578758	725.597158
1960.310660	726.641602
1962.040476	727.552038
1963.768207	727.015846
1965.497313	727.276267
1967.226064	725.868268
1968.952731	726.323127
1970.679044	726.423056
1972.406730	727.012630
1974.128880	727.166599
1975.854131	726.963030
1977.575576	728.506391
1979.300120	728.913965
1981.022585	728.175569
1982.741246	729.667439
1984.463006	729.671271
1986.180964	730.138770
1987.900295	730.150834
1989.615827	729.903539
1991.336179	728.598594
1993.052733	725.640631
1994.765490	724.553554
1996.481344	725.626565
1998.195124	724.301011
1999.908555	725.967833
2001.619915	726.817838
2003.332647	724.857559
2005.041589	723.941086
2006.753624	721.697209
2008.460149	721.064314
2010.169766	720.781292
2011.877317	723.948741
2013.584520	724.505258
2015.289656	723.430195
2016.994447	724.846617
2018.700609	724.535009
2020.402989	725.926110
2022.106741	726.615623
2023.808429	727.127839
2025.509773	725.741207
2027.210771	726.687066
2028.909708	728.150420
2030.610017	728.378511
2032.306551	728.888310
2034.004456	730.211113
2035.700302	730.444352
2037.399234	730.574507
2039.092680	729.459804
2040.787497	726.868601
2042.481972	724.538902
2044.172678	722.950935
2045.866468	726.813641
2047.556491	727.540995
2049.247885	724.651016
2050.937226	723.050945
2052.627937	720.420194
2054.314885	717.498412
2056.001494	715.028324
2057.689473	712.707979
2059.373691	712.434948
2061.059281	711.153120
2062.744531	709.891354
2064.427733	708.384286
2066.112304	707.214218
2067.791413	706.973425
2069.475307	705.770108
2071.153741	707.050834
2072.835251	707.789969
2074.513011	707.350622
2076.190433	708.243200
2077.869225	707.888937
2079.545975	708.069977
2081.220683	706.784296
2082.896760	707.405440
2084.570797	707.209991
2086.244498	707.893923
2087.917864	706.265446
2089.589192	706.434958
2091.260185	706.401416
2092.930844	707.623278
2094.601168	707.792476
2096.271159	708.540409
2097.939114	707.656325
2099.606736	706.358570
2101.272323	708.247538
2102.939279	709.576651
2104.604202	709.884629
2106.268793	709.842441
2107.931352	710.173344
2109.595279	711.253241
2111.257176	710.908403
2112.918741	713.763090
2114.579975	715.202791
2116.239181	716.731439
2117.898056	717.572596
2119.556602	718.117423
2121.214818	719.462180
2122.869310	720.321671
2124.526867	719.823106
2126.184095	720.952836
2127.837601	719.040419
2129.492475	720.182213
2131.143631	718.975892
2132.797848	719.525129
2134.448349	718.590970
2136.100216	719.332167
2137.746675	719.148458
2139.397889	719.993306
2141.045389	718.160390
2142.694256	716.922024
2144.341105	714.717969
2145.987627	713.497310
2147.633824	712.496572
2149.276313	712.006988
2150.921860	711.562018
2152.563700	709.692861
2154.208597	707.231136
2155.849789	706.011781
2157.490657	705.162645
2159.131201	702.558914
2160.769733	700.290970
2162.409631	699.951117
2164.045829	697.193023
2165.683394	696.725200
2167.320635	693.818516
2168.955867	693.227586
2170.590778	693.759339
2172.225367	692.300647
2173.859634	691.970695
2175.490208	691.737041
2177.123834	690.337142
2178.753768	690.081919
2180.385067	688.632390
2182.014361	687.944191
2183.643336	687.502680
2185.271991	687.034463
2186.900327	685.287451
2188.526661	683.170836
2190.152676	681.433239
2191.776690	681.152654
2193.402068	679.413470
2195.025447	679.215320
2196.650189	680.466094
2198.271251	680.482971
2199.891996	679.427141
2201.514106	679.247568
2203.134218	677.400526
2204.752333	678.468591
2206.370133	678.004338
2207.987618	676.325746
2209.604787	675.827920
2211.221641	675.246678
2212.838179	675.858550
2214.452725	674.486359
2216.065278	674.076428
2217.679195	674.789584
2219.291121	675.451997
2220.904410	675.927354
2222.515709	676.734594
2224.125018	675.944008
2225.735691	674.382829
2227.344375	674.562918
2228.952746	674.819911
2230.559131	674.941400
2232.166879	673.822095
2233.772640	673.325877
2235.378090	672.469936
2236.981555	672.834331
2238.586383	673.824937
2240.189227	675.287997
2241.790089	675.828375
2243.392312	676.907190
2244.992554	677.653807
2246.594158	676.964486
2248.192110	676.111498
2249.791424	675.871271
2251.388758	675.282870
2252.985783	676.327364
2254.584171	676.257326
2256.178910	674.962352
2257.771672	675.047295
2259.365797	674.205299
2260.961283	674.463555
2262.553125	673.100698
2264.144660	672.955172
2265.737556	672.185782
2267.325143	673.054313
2268.917427	672.359591
2270.504403	670.823440
2272.094407	669.674719
2273.679108	668.488877
2275.268501	668.599060
2276.852593	667.789281
2278.438046	665.559258
2280.021529	663.069208
2281.608039	661.475245
2283.190914	660.248610
2284.773487	661.711397
2286.355756	660.872970
2287.934396	659.784043
2289.516059	659.161452
2291.094094	658.114562
2292.675152	655.921398
2294.252583	655.555344
2295.828051	655.179401
2297.406541	655.959773
2298.981407	656.010476
2300.555972	656.528324
2302.130237	656.461220
2303.704201	655.628436
2305.277865	656.434028
2306.851228	654.725078
2308.420973	655.467894
2309.990419	654.537506
2311.562883	656.054566
2313.130073	657.459308
2314.700281	660.004915
2316.266874	661.584852
2317.834827	662.552159
2319.400824	663.456335
2320.966524	664.479583
2322.531927	665.099039
2324.095375	665.384093
2325.660183	666.989888
2327.221383	668.616078
2328.785597	670.304975
2330.344549	671.458520
2331.906516	673.534129
2333.466532	672.626302
2335.026252	673.184225
2336.584023	674.078845
2338.141499	674.508353
2339.698681	674.614723
2341.253915	677.028921
2342.808856	677.063009
2344.363503	677.226717
2345.917855	676.555688
2347.471915	676.303994
2349.025680	674.465618
2350.577502	673.760087
2352.127380	672.194651
2353.680266	671.437658
2355.227910	671.911123
2356.778561	671.884215
2358.325621	674.010810
2359.874039	673.291344
2361.422166	673.778572
2362.966704	673.739458
2364.512600	672.901122
2366.056558	672.430043
2367.601873	671.445495
2369.143603	670.960502
2370.686690	672.666478
2372.227841	674.311892
2373.768704	674.411356
2375.309276	673.018404
2376.849560	672.766458
2378.389555	674.285115
2379.925972	674.621468
2381.465390	674.936455
2383.001231	676.085489
2384.538428	677.282051
2386.072050	678.558863
2387.608673	679.405521
2389.143364	679.834655
2390.676126	681.003802
2392.208601	680.188877
2393.739148	680.820518
2395.272693	679.580140
2396.801027	681.089180
2398.330718	682.354111
2399.860123	683.861917
2401.389242	683.404095
2402.918077	684.945788
2404.441706	685.592173
2405.969972	684.903013
2407.493034	684.443847
2409.020730	685.571332
2410.541587	685.993255
2412.067077	686.750642
2413.589006	687.015067
2415.112291	687.988715
2416.633654	687.996461
2418.153099	686.816989
2419.673898	686.873688
2421.192778	685.800273
2422.711376	686.797553
2424.228057	687.367145
2425.746092	686.174001
2427.263846	686.142653
2428.778049	685.712903
2430.291971	683.919203
2431.805613	682.947801
2433.320610	681.881302
2434.832058	681.640924
2436.344861	679.677500
2437.855750	677.390151
2439.366361	675.862989
2440.875060	673.672343
2442.386745	673.476226
2443.894887	670.679027
2445.402751	668.738720
2446.910337	666.586490
2448.414382	665.524906
2449.921413	664.460026
2451.426535	662.750561
2452.931380	660.587744
2454.434317	660.201335
2455.936979	659.935737
2457.439364	657.893306
2458.939844	655.928820
2460.441677	653.728830
2461.941605	653.491829
2463.441259	653.424006
2464.940636	653.462918
2466.438111	654.448235
2467.933684	655.386551
2469.432237	653.668409
2470.927262	654.270836
2472.423639	654.942330
2473.916490	654.748074
2475.410694	654.375983
2476.904624	656.879027
2478.395030	657.935555
2479.888414	658.538629
2481.379900	657.991526
2482.869489	657.998190
2484.358806	657.813611
2485.846228	658.498665
2487.336625	657.180210
2488.823503	655.216554
2490.311733	655.920700
2491.796447	654.457377
2493.280890	654.362059
2494.766685	653.837688
2496.250587	651.840793
2497.735841	650.778876
2499.215960	650.576904
2500.699053	649.966862
2502.180255	647.269653
2503.661188	648.619092
2505.140232	647.845970
2506.619007	647.392426
2508.097514	646.102043
2509.575753	646.133391
2511.053723	647.252290
2512.528188	646.193761
2514.005623	645.771221
2515.479554	648.295227
2516.954835	648.766994
2518.429850	649.616625
2519.901363	649.502306
2521.374226	651.903873
2522.845207	652.560239
2524.317538	653.103691
2525.784755	652.677217
2527.254939	652.231611
2528.723242	652.043493
2530.191280	650.800162
2531.659053	649.423946
2533.126561	650.540034
2534.593804	651.303347
2536.057555	652.308332
2537.522656	653.657336
2538.985880	654.011184
2540.450454	654.678815
2541.911538	656.795025
2543.373972	657.406826
2544.836143	657.189837
2546.294828	657.499626
2547.758085	659.238821
2549.216245	657.854909
2550.675754	658.315128
2552.130169	658.793316
2553.589155	658.988765
2555.046269	659.736101
2556.501512	658.401153
2557.956494	658.178127
2559.409606	658.648104
2560.864067	659.135545
2562.316659	658.809192
2563.768991	659.838538
2565.219455	660.360380
2566.672875	659.870937
2568.121213	659.006350
2569.572507	657.066953
2571.021934	655.329629
2572.467889	652.459238
2573.916799	652.630913
2575.362239	651.781758
2576.809027	650.731196
2578.253951	648.822136
2579.698617	649.756426
2581.144632	648.743553
2582.587179	646.991485
2584.031074	644.790403
2585.471504	643.832116
2586.913281	643.373132
2588.353199	642.240287
2589.794464	641.950824
2591.232267	641.468248
2592.673021	639.822682
2594.108711	640.687784
2595.547351	639.718364
2596.984133	639.211659
2598.419060	638.893043
2599.856934	638.687612
2601.289751	638.713702
2602.723915	639.494297
2604.156225	639.134402
2605.589881	639.971069
2607.021684	641.659662
2608.453233	640.815017
2609.884530	641.044565
2611.313974	639.942198
2612.743166	639.506897
2614.170508	638.241096
2615.599195	638.525988
2617.027631	639.598028
2618.452619	634.987825
2619.878954	633.644777
2621.303440	632.877804
2622.729272	632.333856
2624.151660	631.684882
2625.575394	630.447295
2626.997281	630.191132
2628.418919	630.228021
2629.838711	631.515957
2631.259849	630.396542
2632.680737	630.276792
2634.098187	631.312256
2635.518576	631.943109
2636.935528	633.386652
2638.352231	633.016827
2639.768687	632.501800
2641.184893	633.023875
2642.600852	632.319335
2644.014970	630.329285
2645.428841	631.131945
2646.840872	630.831611
2648.254248	631.224360
2649.664194	630.551107
2651.077075	630.444919
2652.486528	631.568692
2653.895735	630.446051
2655.303106	630.692901
2656.713412	630.858853
2658.121881	632.447720
2659.528515	631.957751
2660.934904	632.576449
2662.339459	634.481950
2663.745358	634.821074
2665.149424	635.693811
2666.553245	637.195621
2667.956823	637.824664
2669.358568	639.218647
2670.761657	639.634078
2672.161328	641.928486
2673.562343	641.723814
2674.959942	643.133633
2676.360471	643.522298
2677.757585	641.915361
2679.156042	642.270209
2680.552671	641.208697
2681.949058	641.273546
2683.345204	639.782910
2684.739523	637.393872
2686.135184	635.630397
2687.527437	634.782840
2688.921032	631.515057
2690.312803	629.660249
2691.705917	628.109091
2693.097207	627.112165
2694.486674	625.247558
2695.875901	623.419385
2697.264889	623.248256
2698.655219	624.023481
2700.040564	622.265264
2701.428833	621.227081
2702.815282	621.083042
2704.201492	620.489645
2705.587464	620.853150
2706.970036	620.328901
2708.353951	620.474962
2709.737628	620.395197
2711.121067	620.646810
2712.501110	620.088907
2713.882495	620.532794
2715.262064	619.927000
2716.642975	620.872201
2718.022070	619.317889
2719.399352	619.200819
2720.777975	619.601143
2722.154785	619.903024
2723.531359	621.292800
2724.907697	619.548832
2726.282223	618.396461
2727.658090	617.464506
2729.030570	616.455981
2730.405966	614.616180
2731.776402	613.202983
2733.148179	612.061857
2734.519721	611.810679
2735.889455	612.151330
2737.260530	612.568430
2738.629796	612.286834
2739.998829	612.810901
2741.366056	612.031257
2742.733050	614.500880
2744.099811	615.811750
2745.466339	617.194994
2746.831062	617.574689
2748.195554	617.775842
2749.559813	618.020073
2750.923840	615.539306
2752.287636	618.018131
2753.648058	619.141966
2755.011391	621.490060
2756.369781	622.084387
2757.731081	623.467924
2759.089010	623.820922
2760.449848	624.470594
2761.808887	624.739114
2763.164557	624.583032
2764.523135	623.382111
2765.878346	622.205916
2767.233328	621.821600
2768.586514	621.135807
2769.942606	619.958580
2771.295333	619.348003
2772.647833	617.026049
2774.000104	615.427839
2775.353714	613.994327
2776.703962	611.685873
2778.052417	610.733421
2779.403776	610.145080
2780.751776	609.602528
2782.101114	608.590201
2783.448661	607.811397
2784.795980	606.886793
2786.143073	606.014370
2787.488375	604.615522
2788.833451	604.089878
2790.178300	602.124128
2791.522924	601.086025
2792.864196	605.358054
2794.206806	605.232390
2795.549190	605.236131
2796.891350	605.697735
2798.230160	606.708181
2799.571869	606.841420
2800.910231	607.334624
2802.249930	607.534928
2803.587843	607.546547
2804.923972	608.018910
2806.259877	608.279250
2807.597120	608.577429
2808.932579	608.357013
2810.267815	607.517798
2811.601268	606.565760
2812.936059	604.989230
2814.267508	604.739994
2815.601853	604.542330
2816.931300	603.753372
2818.262084	604.118435
2819.592646	603.252250
2820.921429	602.293629
2822.251548	601.874982
2823.579889	601.001689
2824.908009	601.876904
2826.234351	600.888603
2827.562030	600.589868
2828.886375	601.093356
2830.212057	599.864991
2831.535963	600.012883
2832.859650	600.472191
2834.184672	600.096451
2835.506364	599.855890
2836.827838	600.900243
2838.149093	601.049226
2839.470129	601.555294
2840.789393	601.612104
2842.109992	601.013095
2843.428819	600.188108
2844.747428	599.420144
2846.064266	599.570867
2847.380887	599.435888
2848.697291	599.655162
2850.011925	598.228547
2851.327895	599.775670
2852.640544	600.308090
2853.954529	598.867681
2855.268296	599.345030
2856.581848	599.719951
2857.893632	601.181454
2859.203650	602.842188
2860.515003	604.209293
2861.823041	605.416645
2863.132413	605.669916
2864.441571	605.834564
2865.750513	605.941501
2867.057691	606.815664
2868.363107	607.278865
2869.669857	608.767894
2870.974844	610.050905
2872.279618	611.083790
2873.582630	611.439013
2874.888524	610.534078
2876.189562	612.271069
2877.491935	611.972191
2878.792548	613.021913
2880.094495	612.467651
2881.396229	612.957195
2882.694658	612.461675
2883.994421	612.554687
2885.292427	611.646152
2886.590221	610.762908
2887.886259	611.475751
2889.183630	612.254323
2890.479245	613.475852
2891.774649	612.481191
2893.069842	612.687795
2894.361738	613.837092
2895.656510	613.287451
2896.947985	614.210497
2898.240793	613.819365
2899.533391	611.517848
2900.822695	608.343533
2902.113331	607.812276
2903.402216	606.989746
2904.692434	606.979179
2905.979359	607.230933
2907.267618	606.032915
2908.554126	607.305117
2909.840427	605.771787
2911.126519	604.576974
2912.410863	602.693457
2913.698078	603.893842
2914.980467	604.638083
2916.264188	604.595905
2917.546163	605.125058
2918.827930	604.717181
2920.107953	604.667115
2921.390845	604.634311
2922.671992	605.712650
2923.949857	605.453736
2925.230591	606.402033
2926.508044	607.241764
2927.785291	606.853221
2929.060797	605.559157
2930.339170	605.067044
2931.612728	604.497290
2932.889154	602.997290
2934.163839	600.648478
2935.436784	600.392739
2936.711059	597.609961
2937.983595	596.074042
2939.255927	595.567064
2940.524985	596.229265
2941.796909	595.120973
2943.067095	593.351097
2944.337078	592.622510
2945.606857	590.494408
2946.874899	590.755314
2948.141206	589.589797
2949.407310	589.372667
2950.674744	590.092841
2951.940444	592.424674
2953.205941	590.307159
2954.471236	590.991172
2955.733266	589.503570
2956.996627	590.426079
2958.259785	591.461108
2959.521212	593.007210
2960.783968	594.759409
2962.044993	594.368379
2963.304286	593.336293
2964.563380	593.813914
2965.822273	593.666852
2967.080966	594.529356
2968.339459	594.934877
2969.596223	594.318091
2970.852787	594.631065
2972.107624	594.546355
2973.363789	596.673799
2974.616700	597.386470
2975.870940	597.965598
2977.124981	597.887572
2978.377296	597.460461
2979.629412	597.363616
2980.879804	595.761867
2982.133051	595.613925
2983.381521	595.133876
2984.632846	595.967226
2985.880921	594.430954
2987.128800	592.351623
2988.376481	593.873617
2989.623965	593.576934
2990.869728	591.755466
2992.115295	592.447275
2993.362189	591.644726
2994.605839	592.830084
2995.850817	593.347002
2997.092551	592.769299
2998.337137	592.257266
2999.580004	590.881161
3000.819630	590.912661
3002.062106	591.739397
3003.301343	591.294549
3004.541906	591.232086
3005.780754	591.155102
3007.019406	589.907261
3008.256344	588.361432
3009.494608	588.874234
3010.731158	589.016827
3011.967513	587.589979
3013.203675	587.103499
3014.438124	587.691394
3015.672379	586.765153
3016.906441	585.800152
3018.138791	585.742188
3019.369429	585.354636
3020.602913	585.457630
3021.834685	586.054909
3023.064747	585.861371
3024.294617	586.997492
3025.522777	589.565204
3026.752263	590.227101
3027.980040	588.950086
3029.207627	589.663313
3030.436539	589.931085
3031.660709	590.255850
3032.887722	589.579917
3034.111511	589.627546
3035.336627	589.131419
3036.560036	589.326929
3037.783255	588.983982
3039.004769	589.268844
3040.229124	588.940914
3041.448744	588.243837
3042.669690	588.241905
3043.890447	586.365527
3045.109500	586.750389
3046.329879	588.558671
3047.547041	587.146799
3048.765528	587.457114
3049.982313	588.895237
3051.198911	587.951967
3052.415320	586.411002
3053.628517	586.047376
3054.844551	585.999975
3056.057373	585.322560
3057.273032	585.504040
3058.483968	586.117798
3059.696229	585.582976
3060.908304	584.360855
3062.120192	583.599075
3063.330382	582.813308
3064.540386	581.705405
3065.750204	581.633249
3066.958327	580.951992
3068.166263	579.767894
3069.372504	577.704353
3070.580070	577.503206
3071.785941	576.191450
3072.991628	574.986359
3074.197129	575.391015
3075.400937	577.175892
3076.606069	575.802007
3077.809509	575.697573
3079.011256	576.483158
3080.212820	577.215532
3081.414199	578.610684
3082.615396	578.287764
3083.814901	578.877758
3085.014224	579.835079
3086.214870	579.479265
3087.413826	578.803458
3088.609588	579.469871
3089.808179	580.767125
3091.003576	581.437840
3092.200296	581.905633
3093.393824	582.615816
3094.590180	583.398524
3095.784850	583.829922
3096.976329	583.706725
3098.172139	583.395298
3099.363256	583.879624
3100.555695	584.232430
3101.744947	583.694752
3102.937025	583.940469
3104.127418	583.002022
3105.314626	582.165325
3106.503157	583.569764
3107.693009	582.347507
3108.879678	581.191728
3110.066167	581.986763
3111.252476	581.271119
3112.440107	579.469805
3113.624557	579.587066
3114.807326	578.409950
3115.992918	577.703276
3117.176831	576.905552
3118.359065	577.749075
3119.541120	577.216291
3120.722998	576.168460
3121.904697	575.939852
3123.084718	576.214511
3124.263063	576.300799
3125.444228	575.131338
3126.622219	574.432602
3127.800032	574.653999
3128.977668	574.228840
3130.153629	573.883972
3131.329413	573.553544
3132.506519	572.540095
3133.681950	571.930590
3134.855708	572.612580
3136.027793	571.996440
3137.201200	572.220316
3138.374430	571.877136
3139.545989	571.309930
3140.718868	572.421094
3141.888581	572.730701
3143.059613	570.818607
3144.228976	571.716604
3145.396669	572.441693
3146.567177	571.242937
3147.733026	570.576145
3148.903185	568.621873
3150.068686	567.718839
3151.234014	568.293771
3152.399168	569.053959
3153.564148	569.372545
3154.730448	568.406644
3155.892096	568.442704
3157.055063	567.858479
3158.217858	567.460825
3159.380480	567.122105
3160.541437	565.940894
3161.702221	565.592729
3162.862833	564.805076
3164.021781	562.944595
3165.180558	563.713176
3166.339163	562.519041
3167.497596	561.557003
3168.655857	560.712246
3169.812456	559.676408
3170.967394	557.959278
3172.123651	556.777278
3173.278247	557.135150
3174.432673	556.327748
3175.585439	556.967004
3176.738035	556.350824
3177.890460	557.278997
3179.042716	558.543473
3180.194801	558.011174
3181.343741	556.613854
3182.495487	556.709222
3183.645575	557.332501
3184.794007	558.905016
3185.942270	559.797037
3187.090363	561.131732
3188.238288	562.287451
3189.384558	561.830670
3190.530659	561.546506
3191.675105	562.224623
3192.819384	563.568976
3193.963495	564.373961
3195.108923	565.267580
3196.251213	566.561998
3197.393336	567.339832
3198.535291	568.432481
3199.677079	569.543564
3200.818701	568.841248
3201.957186	569.692436
3203.096989	569.072363
3204.238110	567.422510
3205.376096	566.675427
3206.512433	568.890717
3207.648604	570.733542
3208.786093	570.915714
3209.921932	571.353787
3211.059089	572.058965
3212.191633	572.069744
3213.328459	571.158580
3214.460673	570.156912
3215.594204	569.836950
3216.727571	570.090080
3217.857810	569.960764
3218.990847	568.692648
3220.120758	566.696825
3221.251985	563.936424
3222.380088	562.311720
3223.510987	560.172353
3224.640242	560.648256
3225.767854	559.765719
3226.892344	558.793730
3228.021108	557.482961
3229.146751	557.302417
3230.272232	554.717049
3231.396071	554.437638
3232.522704	554.698301
3233.644740	554.054657
3234.768092	552.645505
3235.891282	552.059662
3237.014310	551.743321
3238.135698	553.106957
3239.256925	555.238922
3240.376513	558.154636
3241.495940	558.537173
3242.613729	559.174497
3243.734310	558.758125
3244.851778	560.276954
3245.969085	558.450966
3247.086232	559.349590
3248.201743	560.187562
3249.318569	561.536536
3250.432284	561.164557
3251.548789	559.187633
3252.663660	560.545546
3253.775422	562.455971
3254.887024	564.781373
3255.999942	568.166458
3257.112701	569.296087
3258.222353	570.778592
3259.333319	571.649499
3260.444127	573.566124
3261.553304	575.769855
3262.660849	577.090747
3263.769708	577.708181
3264.878410	579.400364
3265.984009	579.633401
3267.090922	579.783982
3268.196206	579.910082
3269.302805	580.716776
3270.406303	580.972363
3271.511115	581.833320
3272.615770	581.951168
3273.717326	582.005147
3274.818726	581.014713
3275.921441	579.571989
3277.023998	577.816847
3278.123459	577.659066
3279.225704	575.455152
3280.324853	575.590929
3281.422378	573.402973
3282.519747	572.277662
3283.619899	570.748094
3284.716957	569.584983
3285.813860	571.486025
3286.910608	572.300698
3288.002798	572.189918
3289.099236	571.887087
3290.194052	571.733664
3291.288714	572.661533
3292.381754	571.685095
3293.474640	570.598706
3294.565905	569.334998
3295.658483	567.315967
3296.749440	565.329922
3297.838778	563.713753
3298.927963	563.565244
3300.018461	562.870745
3301.105874	561.863485
3302.193135	560.077086
3303.281708	559.544555
3304.370128	559.718313
3305.454001	560.160643
3306.542116	559.298766
3307.627150	558.864991
3308.710567	558.826959
3309.795297	558.337830
3310.878412	558.715704
3311.962838	557.922550
3313.044186	557.483386
3314.126846	557.046850
3315.207892	557.326777
3316.288787	556.431388
3317.368068	555.972282
3318.447200	557.217454
3319.527642	559.363252
3320.605010	560.147608
3321.683690	559.596036
3322.760759	560.897826
3323.837677	559.774446
3324.912984	559.059662
3325.988142	559.144373
3327.064611	558.512671
3328.138010	557.744635
3329.211260	558.307331
3330.285820	559.651057
3331.358772	558.637092
3332.430115	559.401203
3333.502770	560.042997
3334.572357	560.353605
3335.643255	560.570513
3336.712546	560.618637
3337.783148	560.438750
3338.852143	558.343584
3339.919532	557.838578
3340.985316	555.477167
3342.055326	554.906462
3343.122273	554.673789
3344.186158	553.980554
3345.252811	553.809212
3346.317859	552.479513
3347.381304	552.153211
3348.444603	551.423390
3349.507755	551.581171
3350.570761	552.952796
3351.633621	552.509232
3352.694879	552.944828
3353.753080	552.477622
3354.815502	552.973304
3355.874867	552.615896
3356.934087	554.068682
3357.994617	554.121863
3359.050637	555.042593
3360.109421	556.917666
3361.163698	558.719496
3362.220739	558.941147
3363.276182	559.523420
3364.332933	560.491981
3365.388086	561.817069
3366.441642	561.218637
3367.493602	560.481515
3368.548323	561.558641
3369.599995	560.684650
3370.651524	561.717980
3371.704361	562.761644
3372.754151	562.735969
3373.805250	564.793872
3374.853303	564.161513
3375.904115	565.176489
3376.951883	565.789190
3377.999508	566.644767
3379.046990	568.171413
3380.092880	568.260400
3381.140078	569.199454
3382.184234	569.966458
3383.231148	567.396511
3384.276470	568.040864
3385.318751	567.224603
3386.360892	568.484174
3387.404340	568.215209
3388.447647	569.288634
3389.489365	568.204540
3390.530941	568.058530
3391.572377	566.566660
3392.612223	564.314804
3393.650481	561.857306
3394.690048	559.351037
3395.729473	557.338983
3396.767311	557.134837
3397.803562	555.159409
3398.839674	554.931500
3399.877093	553.985277
3400.911479	552.633896
3401.947172	553.223976
3402.982726	552.605147
3404.015249	552.354131
3405.050525	551.345080
3406.082770	551.272070
3407.114877	552.355162
3408.145400	553.262281
3409.177230	554.375043
3410.208922	553.656022
3411.237586	554.571453
3412.266113	555.724644
3413.295947	556.275994
3414.325642	555.820619
3415.352312	558.560067
3416.380289	559.501507
3417.405241	560.311538
3418.432943	560.274187
3419.457622	560.102443
3420.483607	559.806637
3421.508012	559.397100
3422.532281	558.884163
3423.554971	558.278156
3424.577525	557.589411
3425.601385	556.828259
3426.622225	556.005030
3427.642930	555.130055
3428.664940	554.213665
3429.683932	553.266192
3430.702789	552.297966
3431.722951	551.319318
3432.740097	550.340579
