-116.516516	18.681119
-113.846916	17.972028
-111.180251	18.789277
-108.514338	20.600932
-105.851357	22.875058
-103.186947	25.079720
-100.525467	22.843357
-97.862557	26.816317
-95.204755	26.291375
-92.545523	25.744056
-89.887039	22.276457
-87.231479	23.090443
-84.574491	19.804662
-81.922601	22.515618
-79.269280	21.819114
-76.618880	24.157110
-73.967050	21.930070
-71.320311	26.792541
-68.672142	28.640559
-66.024717	31.858741
-63.380205	28.322611
-60.734265	32.508159
-58.093406	28.812587
-55.451118	35.211189
-52.811738	34.703030
-50.170930	36.265268
-47.530862	35.329138
-44.895866	37.441958
-42.259442	37.206527
-39.625920	41.632168
-36.990970	40.640093
-34.361085	45.167832
-31.727608	41.905828
-29.099193	47.798135
-26.471512	46.982751
-23.842402	48.896037
-21.218349	35.479254
-18.590707	-23.628438
-15.968118	-210.405594
-13.346261	-449.666667
-10.725134	174.007925
-8.104737	2029.675524
-5.487229	4128.590210
-2.868291	5566.650350
-0.252240	6253.472261
2.363083	6186.579487
4.977679	5377.669930
7.589392	3882.553380
10.202534	1895.152914
12.810642	23.341725
15.422332	-682.150583
18.028991	-335.455944
20.637078	18.421445
23.244441	52.625641
25.846779	52.734266
28.452695	50.225175
31.053589	49.377622
33.655911	47.671329
36.253216	45.089044
38.854096	51.295105
41.449962	54.067133
44.047255	58.333333
46.643829	58.581818
49.235394	59.660140
51.828387	56.487179
54.418519	53.807459
57.010079	47.165501
59.598779	47.368765
62.188906	42.584149
64.774035	49.440559
67.360590	52.794406
69.946432	56.069464
72.529420	61.387413
75.113834	65.675058
77.691120	68.899767
80.271972	67.860140
82.849975	65.036830
85.427268	66.524942
88.005987	62.687646
90.579724	64.996270
93.154889	65.679720
95.727210	70.160373
98.298823	77.615385
100.867596	86.037296
103.437796	98.892308
106.005158	111.268998
108.573945	128.415851
111.139896	153.989744
113.703012	193.607925
116.269684	242.914685
118.827135	314.631235
121.390271	440.321212
123.948447	642.611655
126.510178	965.593939
129.066952	1504.603263
131.625153	2330.362704
134.178401	3517.410256
136.730950	5074.323077
139.287050	6905.352448
141.838202	8852.164569
144.388657	10712.779953
146.938414	12354.079254
149.485353	13630.482517
152.031595	14462.886713
154.579263	14919.316550
157.126235	15073.063869
159.668272	15070.550117
162.209615	15018.239627
164.750265	14932.168765
167.292341	14853.427040
169.831605	14762.152448
172.368061	14725.211655
174.903825	14665.889977
177.441015	14587.602331
179.977514	14508.583683
182.511207	14420.656410
185.042097	14365.175291
187.572298	14309.616317
190.103924	14244.864336
192.632749	14213.462937
195.158775	14188.441492
197.684115	14198.651282
200.210881	14201.886247
202.734849	14198.788811
205.258133	14177.624242
207.780732	14145.659674
210.300538	14105.025641
212.819661	14047.366900
215.338101	14023.883450
217.857965	14006.627972
220.370828	14002.046620
222.887222	14024.011189
225.402934	14058.462005
227.913756	14100.742191
230.426004	14132.885315
232.935468	14161.141725
235.444254	14188.429371
237.952362	14224.290443
240.461893	14263.596270
242.966544	14294.771096
245.470519	14329.886247
247.975919	14376.149184
250.476443	14428.826107
252.980490	14482.712354
255.477566	14502.840093
257.978166	14523.800466
260.475994	14544.820979
262.973149	14549.334732
265.469631	14555.958042
267.961250	14578.245688
270.456389	14594.984615
272.948762	14611.646620
275.440464	14636.213520
277.929402	14643.745921
280.419765	14635.477855
282.907365	14619.837296
285.392206	14596.457343
287.880562	14552.248485
290.361978	14542.760373
292.846908	14547.216317
295.326993	14553.027972
297.810590	14549.402331
300.289344	14558.197203
302.769522	14572.516084
305.246947	14607.240093
307.723709	14609.336597
310.199808	14614.358974
312.673158	14621.945455
315.145846	14696.749184
317.617873	14748.405594
320.089239	14790.203263
322.557861	14797.633100
325.025823	14778.870396
327.495207	14754.213986
329.959769	14713.428904
332.427835	14641.006061
334.891081	14610.681585
337.353669	14565.238228
339.815601	14543.324942
342.276876	14479.824709
344.735417	14437.640093
347.195380	14352.421911
349.652610	14261.903963
352.109186	14190.392541
354.565108	14108.183683
357.018301	14013.685315
359.472915	13936.609790
361.922728	13811.027972
364.376037	13689.025175
366.824548	13562.482051
369.272408	13440.775758
371.721689	13277.219114
374.166177	13160.062937
376.612087	13068.655012
379.057348	12954.583217
381.499889	12818.525874
383.941783	12703.727739
386.383030	12567.245688
388.821561	12450.521678
391.261514	12348.209790
393.698753	12231.526340
396.133280	12095.567832
398.571295	12011.886247
401.004533	11924.185548
403.439192	11840.970629
405.869079	11753.057809
408.302451	11685.681585
410.731053	11633.039627
413.159014	11584.782284
415.588395	11553.371562
418.013011	11486.193007
420.439049	11433.151981
422.864446	11405.690909
425.289203	11387.833566
427.709202	11357.668531
430.130622	11326.006527
432.549345	11303.513287
434.969489	11298.648951
437.386938	11266.737063
439.805807	11253.236364
442.221983	11223.907226
444.633412	11229.632168
447.048317	11244.530536
449.460532	11251.508159
451.872113	11251.144056
454.283060	11258.600000
456.691321	11230.262471
459.098949	11197.648485
461.505945	11155.321678
463.912310	11097.792541
466.315992	11062.553380
468.719044	11023.708159
471.121466	11002.788811
473.523258	10966.701166
475.922373	10952.071329
478.322907	10948.772028
480.722812	10921.908625
483.117994	10885.025641
485.516643	10855.610723
487.910572	10824.989277
490.303875	10795.575291
492.696552	10754.528205
495.088604	10730.247552
497.482074	10689.568765
499.870833	10646.089510
502.256925	10630.172028
504.644436	10590.658741
507.031325	10529.582284
509.415550	10508.315152
511.801194	10492.670862
514.184175	10469.647552
516.564496	10465.468998
518.946236	10468.781818
521.325317	10450.060606
523.705817	10439.542657
526.083659	10427.544056
528.458846	10407.047552
530.833415	10373.819580
533.209403	10329.592541
535.582737	10289.244755
537.957489	10215.613520
540.327556	10140.212121
542.697007	10037.368298
545.067876	9925.820513
547.434065	9823.079254
549.801672	9700.285781
552.166633	9605.732867
554.530981	9506.351981
556.894717	9375.549650
559.259869	9262.054545
561.620350	9121.481119
563.982249	9020.643823
566.341507	8903.414452
568.698128	8794.310490
571.058193	8687.240093
573.411567	8569.938928
575.768386	8462.567832
578.122570	8338.062471
580.476146	8192.593473
582.829113	8055.037296
585.179449	7930.285315
587.531201	7813.365967
589.876277	7689.707226
592.226817	7606.716084
594.570683	7536.060140
596.920011	7464.608392
599.264691	7391.401399
601.606745	7321.073660
603.950217	7278.554779
606.291066	7242.562704
608.631313	7196.830303
610.968939	7132.355711
613.310000	7075.828438
615.646423	7048.165967
617.984263	7025.314219
620.319486	7004.412121
622.652093	6979.217249
624.986116	6977.655944
627.317526	6985.654079
629.648337	6979.559441
631.978550	6980.315152
634.308165	6984.703030
636.633158	6977.729604
638.963592	6961.944988
641.289404	6965.694639
643.612610	6969.327273
645.937231	6968.710956
648.259247	6984.846620
650.580670	6994.268531
652.899489	7006.789277
655.219724	7055.027040
657.539366	7104.916550
659.856407	7156.136131
662.172856	7212.503497
664.486707	7271.269464
666.801974	7343.837762
669.114644	7409.074126
671.428729	7471.173427
673.738214	7521.292774
676.049115	7577.421911
678.357423	7647.204662
680.665143	7705.059674
682.974277	7771.755711
685.278820	7847.796270
687.582775	7923.935198
689.886145	8015.285315
692.190929	8087.546387
694.491127	8154.406527
696.792739	8213.920280
699.093767	8296.187413
701.390212	8358.652214
703.688073	8400.966434
705.985350	8438.727739
708.282044	8489.877389
710.574162	8573.743124
712.869691	8657.081585
715.160646	8726.659674
717.453016	8805.513753
719.742811	8881.527273
722.032025	8969.146387
724.320660	9036.860140
726.606723	9113.877389
728.894199	9176.983217
731.179104	9245.965967
733.463432	9329.421911
735.745191	9385.551515
738.028364	9447.535664
740.310960	9510.208858
742.589000	9570.653613
744.868455	9651.864802
747.147334	9730.577156
749.425637	9823.973893
751.699391	9909.662005
753.974559	10012.864802
756.249153	10088.252214
758.521187	10170.397669
760.794635	10272.552914
763.065525	10371.512354
765.333859	10451.255012
767.603606	10549.101632
769.870799	10603.753846
772.137421	10671.542657
774.403473	10749.722145
776.666974	10808.159441
778.931888	10833.739860
781.196232	10905.818648
783.456047	10957.503497
785.717274	11015.481585
787.977934	11063.703030
790.236048	11127.020513
792.491617	11179.212121
794.750577	11275.261072
797.003038	11322.435431
799.260866	11366.337995
801.514174	11419.376690
803.764943	11469.796737
806.017124	11488.120746
808.266766	11519.945455
810.517821	11548.187879
812.764364	11573.054545
815.012319	11611.555711
817.257740	11668.612587
819.504572	11691.055478
821.750843	11752.626573
823.992610	11794.687646
826.237759	11863.094172
828.476436	11947.298368
830.718495	12057.150583
832.956056	12135.075524
835.195029	12228.771562
837.431475	12322.409324
839.669332	12408.543124
841.904664	12496.537995
844.137473	12586.499301
846.371693	12670.851748
848.603391	12814.454079
850.834533	12953.155245
853.065122	13123.138928
855.295155	13298.879254
857.524635	13508.399534
859.749633	13726.396737
861.978006	13931.738928
864.201900	14159.077855
866.427204	14381.163636
868.648033	14612.890443
870.872234	14848.692774
873.091962	15095.092308
875.313101	15358.911888
877.533689	15618.790210
879.751767	15885.045221
881.971255	16158.236830
884.186277	16386.039627
886.400752	16575.684848
888.614678	16735.496970
890.828058	16885.997669
893.040890	16996.182751
895.253176	17068.976224
897.462959	17095.497902
899.672197	17093.620047
901.880890	17065.163170
904.087084	17004.715152
906.294687	16878.810256
908.499792	16698.133333
910.704354	16503.932401
912.906421	16272.967366
915.109897	16034.786946
917.310879	15758.098834
919.511320	15448.313753
921.713168	15148.870396
923.908626	14791.778555
926.107443	14426.710023
928.301821	14045.008858
930.499557	13667.083450
932.692857	13296.201865
934.887566	12961.676457
937.079789	12706.902564
939.271474	12470.292774
941.462620	12259.987413
943.651284	12103.796270
945.839412	11954.777156
948.025059	11836.213986
950.214058	11747.556177
952.398634	11680.020979
954.582675	11639.268998
956.770066	11609.230303
958.949153	11621.809790
961.131591	11626.731469
963.313495	11645.428904
965.492924	11657.012121
967.669881	11650.038695
969.848246	11622.538462
972.028018	11590.464336
974.201441	11533.044289
976.378210	11464.658275
978.550572	11364.196270
980.724342	11261.248019
982.893708	11136.631235
985.066418	11022.874126
987.236663	10883.262005
989.406379	10725.163636
991.575566	10554.646620
993.740356	10379.797669
995.908487	10205.349184
998.072224	10056.466200
1000.237367	9893.893706
1002.400051	9733.147786
1004.562210	9584.312821
1006.721912	9447.899301
1008.881090	9291.064336
1011.041674	9130.093706
1013.199803	8972.677389
1015.357408	8823.957576
1017.514490	8688.373893
1019.671049	8559.685781
1021.823228	8422.768765
1023.976813	8313.165501
1026.129877	8205.549184
1028.280493	8093.356643
1030.432514	7980.936131
1032.580162	7902.632634
1034.731142	7841.312821
1036.877751	7783.020513
1039.023841	7706.249883
1041.169413	7638.956643
1043.316390	7559.040559
1045.457078	7497.172960
1047.601096	7429.306294
1049.742673	7356.591608
1051.883734	7295.703030
1054.026199	7252.673660
1056.162385	7172.903030
1058.301897	7109.263869
1060.437053	7034.732401
1062.575534	6962.136597
1064.709661	6886.335198
1066.843275	6819.200000
1068.978294	6763.421911
1071.108963	6708.324009
1073.241037	6667.018648
1075.370682	6616.728205
1077.499815	6541.075991
1079.628436	6490.464802
1081.756546	6433.611189
1083.882230	6354.452214
1086.007404	6281.500699
1088.133982	6191.504429
1090.256222	6100.975758
1092.379867	6005.212587
1094.499178	5920.451282
1096.623717	5821.502098
1098.742011	5716.850816
1100.861710	5623.549650
1102.978990	5527.291375
1105.095764	5431.928671
1107.212031	5330.323543
1109.325882	5237.998601
1111.441138	5131.589744
1113.552070	5039.215851
1115.666315	4933.561305
1117.776239	4825.754312
1119.887567	4711.683450
1121.998390	4619.615385
1124.104897	4521.119347
1126.214714	4437.183683
1128.320216	4346.453147
1130.427121	4288.344522
1132.527811	4226.193939
1134.633713	4166.799068
1136.735306	4085.733800
1138.838302	4015.821445
1140.940797	3940.834033
1143.037085	3879.673660
1145.138581	3803.474126
1147.235773	3729.908159
1149.332468	3651.992541
1151.428664	3596.665268
1153.524363	3540.868998
1155.619563	3484.427040
1157.712368	3428.339860
1159.806574	3375.977156
1161.894589	3322.477389
1163.987802	3277.253147
1166.074827	3220.212121
1168.165151	3165.764569
1170.251188	3102.654545
1172.340522	3053.844755
1174.423675	3003.957576
1176.508230	2961.609790
1178.594187	2912.313753
1180.675862	2870.941259
1182.758939	2836.707692
1184.839630	2815.655944
1186.919829	2790.101166
1188.999537	2773.676457
1191.078754	2745.018648
1193.155589	2717.228438
1195.230043	2681.624242
1197.307788	2654.090443
1199.381264	2623.452214
1201.456140	2606.868531
1203.526749	2583.275524
1205.598760	2566.866200
1207.668394	2550.494172
1209.739429	2542.819580
1211.809976	2521.900233
1213.876262	2509.086247
1215.943949	2499.783683
1218.009264	2491.458741
1220.075979	2485.834965
1222.138438	2481.541259
1224.204182	2475.873193
1226.265673	2462.381818
1228.328563	2448.700699
1230.389086	2446.755245
1232.449125	2442.148252
1234.508682	2446.767832
1236.565873	2435.504429
1238.622583	2418.236364
1240.676930	2408.580886
1242.734557	2404.916550
1244.789822	2390.895105
1246.840846	2368.619114
1248.893270	2355.806993
1250.945214	2361.098368
1252.994800	2367.277855
1255.043907	2368.836830
1257.092536	2355.670862
1259.140686	2360.671795
1261.188357	2361.893706
1263.231799	2360.163170
1265.278515	2352.616317
1267.322878	2355.459674
1269.366765	2351.764569
1271.408300	2353.319347
1273.447486	2352.223310
1275.489945	2344.026573
1277.528181	2332.350117
1279.567816	2324.483450
1281.606976	2315.214452
1283.641917	2307.396737
1285.678257	2301.713287
1287.712253	2304.184615
1289.747647	2303.553846
1291.778827	2307.521212
1293.811405	2305.920746
1295.843512	2308.765035
1297.873278	2303.613520
1299.904442	2308.671329
1301.931398	2313.130070
1303.959752	2314.687646
1305.983902	2314.668998
1308.011316	2325.405594
1310.034528	2329.231235
1312.059138	2318.400932
1314.081414	2308.240093
1316.105087	2303.701166
1318.126427	2287.569231
1320.147299	2295.428904
1322.167704	2283.446620
1324.183916	2292.400466
1326.201525	2306.599534
1328.216806	2323.142191
1330.235346	2336.262937
1332.249697	2338.569697
1334.261722	2354.892774
1336.277004	2352.371562
1338.288101	2349.136597
1340.300595	2344.878788
1342.308906	2324.169697
1344.320473	2316.227972
1346.326000	2312.690443
1348.334783	2305.030769
1350.339388	2309.443823
1352.347247	2312.526807
1354.354644	2328.307692
1356.356010	2335.077855
1358.358773	2345.666200
1360.361075	2350.847086
1362.362918	2349.916084
1364.364301	2345.764569
1366.363371	2349.407925
1368.361982	2342.777622
1370.360135	2335.392541
1372.357829	2331.108625
1374.351361	2331.083916
1376.346289	2340.432168
1378.340759	2340.089977
1380.334774	2345.475991
1382.326480	2334.539860
1384.317732	2331.615385
1386.306678	2328.089044
1388.297019	2313.899301
1390.286905	2302.652681
1392.274488	2290.570629
1394.261616	2274.977156
1396.246443	2269.763170
1398.232665	2261.162238
1400.216587	2273.126340
1402.200056	2270.278788
1404.183072	2276.139860
1406.163791	2281.523543
1408.145904	2280.647086
1410.125721	2283.313287
1412.105086	2272.746387
1414.080313	2258.642424
1416.058779	2250.344522
1418.034950	2249.613520
1420.010673	2254.381818
1421.985946	2241.059674
1423.958928	2235.216783
1425.931462	2238.962704
1427.903548	2234.619580
1429.875187	2233.053147
1431.842697	2229.172494
1433.815281	2230.074126
1435.780060	2225.514219
1437.749910	2225.344522
1439.715637	2210.739860
1441.682756	2193.866200
1443.647592	2190.742657
1445.608308	2188.251748
1447.574093	2185.413520
1449.533922	2186.703963
1451.495144	2193.663869
1453.457759	2208.415385
1455.416259	2202.216317
1457.374316	2196.332867
1459.331932	2182.980420
1461.289106	2172.389744
1463.244004	2169.778089
1465.200294	2168.110023
1467.154310	2169.222378
1469.107886	2177.947786
1471.059189	2195.497902
1473.011884	2205.362704
1474.962308	2201.455012
1476.912292	2195.544056
1478.861838	2189.772494
1480.809115	2179.819580
1482.754125	2172.646620
1484.700526	2162.463869
1486.646490	2145.576690
1488.592017	2142.833100
1490.535279	2146.609790
1492.478104	2148.152448
1494.418666	2156.382284
1496.360619	2156.102098
1498.300310	2165.173427
1500.239567	2172.998135
1502.178388	2184.220513
1504.114950	2171.747319
1506.052903	2167.308625
1507.988597	2162.480653
1509.923858	2162.542191
1511.856863	2163.122611
1513.789435	2155.634499
1515.721575	2142.250350
1517.653283	2144.808392
1519.582737	2141.565035
1521.513582	2145.841492
1523.443995	2132.543590
1525.370336	2133.163636
1527.298068	2129.338462
1529.223549	2124.741259
1531.148601	2117.344522
1533.073224	2110.824242
1534.997418	2101.152914
1536.919364	2104.774825
1538.842701	2109.654545
1540.763792	2120.004196
1542.682638	2119.927739
1544.602873	2131.555711
1546.520866	2132.026573
1548.438432	2124.983217
1550.353756	2119.089977
1552.270470	2121.161772
1554.183129	2105.486713
1556.098992	2097.539394
1558.012615	2081.045221
1559.924001	2067.535198
1561.836775	2051.740326
1563.745500	2053.970163
1565.655614	2047.796737
1567.565305	2044.687179
1569.474573	2048.076923
1571.381607	2056.500233
1573.286408	2051.475991
1575.192598	2055.725874
1577.096556	2040.721212
1579.000093	2046.068531
1580.903210	2041.816783
1582.804097	2047.200466
1584.706373	2054.826573
1586.606421	2053.413986
1588.507856	2054.687179
1590.405258	2056.451748
1592.302241	2052.390210
1594.198806	2054.637762
1596.096759	2049.667133
1597.988877	2052.698834
1599.884188	2048.992075
1601.779082	2042.391142
1603.671754	2045.579953
1605.564010	2039.926807
1607.454045	2039.154779
1609.343666	2042.352448
1611.232870	2036.657809
1613.121660	2042.884848
1615.008232	2049.588811
1616.896192	2044.839161
1618.780135	2043.374359
1620.665466	2033.598135
1622.550382	2029.873660
1624.433085	2026.440559
1626.317175	2028.614452
1628.197254	2030.270862
1630.078719	2019.117483
1631.957974	2018.869464
1633.838615	2014.289977
1635.713452	2000.530070
1637.593270	1997.994872
1639.469084	1993.151981
1641.344487	1986.950117
1643.221276	1987.528205
1645.092269	1999.061072
1646.966443	2001.797669
1648.836619	2005.150583
1650.709975	1999.710023
1652.581128	2001.697902
1654.450079	2002.743124
1656.320416	1991.347319
1658.186759	1980.660140
1660.054488	1973.475991
1661.920018	1980.691375
1663.786934	1991.053147
1665.649861	1988.452214
1667.514173	1992.074592
1669.376289	1990.494639
1671.238001	1990.452214
1673.101097	1985.126340
1674.961999	1964.467599
1676.820707	1963.870862
1678.679012	1966.996737
1680.538702	1972.081119
1682.392624	1969.889510
1684.249720	1963.129138
1686.106413	1958.084382
1687.959130	1961.632168
1689.815017	1952.274126
1691.666931	1948.303497
1693.518444	1940.398135
1695.369556	1944.363170
1697.220268	1941.651282
1699.070579	1941.532401
1700.918705	1937.558042
1702.768216	1938.728205
1704.611978	1937.423310
1706.460689	1949.708625
1708.303654	1951.960373
1710.149786	1955.677855
1711.991955	1961.220513
1713.837290	1961.671329
1715.676884	1953.694172
1717.517862	1946.677855
1719.360223	1937.344522
1721.198628	1928.499767
1723.038416	1914.225641
1724.876029	1906.603730
1726.713246	1899.299301
1728.548290	1901.972494
1730.384717	1910.817716
1732.218972	1916.015385
1734.052832	1926.967366
1735.886299	1933.393939
1737.715819	1940.193473
1739.548498	1942.084848
1741.377233	1935.646154
1743.209125	1920.668065
1745.037076	1908.619114
1746.864634	1897.451748
1748.691800	1886.862005
1750.518575	1885.650816
1752.344959	1892.003263
1754.167405	1890.932867
1755.993007	1893.153846
1757.814674	1898.576690
1759.637723	1895.268531
1761.458610	1894.155245
1763.279109	1894.924942
1765.100989	1891.534732
1766.917169	1886.092774
1768.736501	1893.579487
1770.551906	1898.535664
1772.370461	1901.887646
1774.185091	1900.482051
1775.999335	1897.597669
1777.813191	1898.394406
1779.626661	1898.632168
1781.437978	1899.425175
1783.250676	1884.194406
1785.062987	1880.656410
1786.871381	1883.899301
1788.681155	1875.880653
1790.487015	1879.373427
1792.296020	1882.381818
1794.101112	1885.650816
1795.907585	1886.066200
1797.713674	1877.393473
1799.515853	1863.250350
1801.321175	1848.692308
1803.122589	1848.451748
1804.925383	1842.916550
1806.724271	1836.909091
1808.524540	1849.730070
1810.324427	1867.877389
1812.122173	1881.413986
1813.919537	1886.142657
1815.716522	1887.485781
1817.513126	1884.537529
1819.307591	1881.458741
1821.103435	1879.588811
1822.893625	1873.399534
1824.688710	1867.769697
1826.478144	1867.393007
1828.270714	1858.597203
1830.061149	1847.745921
1831.849450	1840.420047
1833.640886	1831.362238
1835.426676	1828.838228
1837.213846	1823.408392
1838.998884	1831.802797
1840.787056	1833.065734
1842.571342	1832.335664
1844.353499	1834.970163
1846.137034	1826.441492
1847.918441	1827.727273
1849.701227	1828.701632
1851.480132	1832.069930
1853.260417	1837.791608
1855.038575	1836.146853
1856.818112	1835.324009
1858.595524	1826.717949
1860.370812	1821.235897
1862.147478	1822.221911
1863.922022	1819.717949
1865.697944	1835.263869
1867.468245	1831.494172
1869.241674	1836.784149
1871.012983	1828.165501
1872.783922	1822.930536
1874.556237	1818.543124
1876.322939	1810.507692
1878.092767	1805.427972
1879.858731	1803.368298
1881.627818	1811.966900
1883.393045	1830.438695
1885.157902	1818.372494
1886.924137	1827.808858
1888.686513	1826.910956
1890.448522	1826.852214
1892.210163	1821.546853
1893.971438	1809.166900
1895.732345	1803.497436
1897.492886	1802.025175
1899.251317	1802.004662
1901.009382	1817.339394
1902.765340	1818.938462
1904.522674	1833.951981
1906.279643	1830.930070
1908.034505	1818.583683
1909.787263	1807.076923
1911.539657	1790.808392
1913.293426	1785.508159
1915.045092	1778.773427
1916.794656	1765.808392
1918.545595	1776.104895
1920.296172	1773.747319
1922.042909	1774.395804
1923.791023	1767.873193
1925.537037	1771.506760
1927.284427	1775.167832
1929.029718	1776.836364
1930.772912	1781.389277
1932.517481	1781.101166
1934.259955	1762.055012
1936.002068	1762.849883
1937.743821	1754.621445
1939.485215	1750.939860
1941.224514	1747.153380
1942.963455	1755.738928
1944.702037	1757.047552
1946.438528	1760.111888
1948.174661	1766.287179
1949.912168	1767.759441
1951.645853	1759.793939
1953.380913	1773.861072
1955.113885	1779.819114
1956.846499	1788.125408
1958.578758	1787.857809
1960.310660	1789.058741
1962.040476	1788.745455
1963.768207	1789.266667
1965.497313	1796.382284
1967.226064	1789.188345
1968.952731	1788.005594
1970.679044	1788.592075
1972.406730	1784.959441
1974.128880	1783.571096
1975.854131	1775.783217
1977.575576	1781.931469
1979.300120	1784.890443
1981.022585	1786.393473
1982.741246	1787.053613
1984.463006	1785.523543
1986.180964	1784.517949
1987.900295	1779.496970
1989.615827	1773.642424
1991.336179	1767.283916
1993.052733	1761.732867
1994.765490	1770.301632
1996.481344	1767.803730
1998.195124	1764.953380
1999.908555	1764.583683
2001.619915	1773.700233
2003.332647	1777.901632
2005.041589	1783.551981
2006.753624	1779.672261
2008.460149	1772.734266
2010.169766	1765.317949
2011.877317	1775.026107
2013.584520	1776.783683
2015.289656	1783.696970
2016.994447	1789.043357
2018.700609	1792.317949
2020.402989	1787.811189
2022.106741	1783.214452
2023.808429	1767.651748
2025.509773	1763.199068
2027.210771	1759.331935
2028.909708	1769.668998
2030.610017	1778.895105
2032.306551	1794.819114
2034.004456	1794.813520
2035.700302	1792.596270
2037.399234	1782.199068
2039.092680	1786.517949
2040.787497	1776.764569
2042.481972	1791.944988
2044.172678	1800.447552
2045.866468	1807.166900
2047.556491	1803.938462
2049.247885	1809.369231
2050.937226	1802.576224
2052.627937	1800.656410
2054.314885	1784.118881
2056.001494	1779.006061
2057.689473	1761.262005
2059.373691	1771.646620
2061.059281	1768.677389
2062.744531	1764.114685
2064.427733	1753.727739
2066.112304	1753.476923
2067.791413	1756.147319
2069.475307	1757.441958
2071.153741	1746.167366
2072.835251	1743.069464
2074.513011	1743.003263
2076.190433	1744.586946
2077.869225	1739.393473
2079.545975	1735.712821
2081.220683	1736.210256
2082.896760	1730.971562
2084.570797	1731.983217
2086.244498	1731.337995
2087.917864	1725.076457
2089.589192	1733.275991
2091.260185	1732.863403
2092.930844	1720.874126
2094.601168	1705.880186
2096.271159	1703.446154
2097.939114	1710.214918
2099.606736	1710.529604
2101.272323	1710.307692
2102.939279	1716.342191
2104.604202	1716.677855
2106.268793	1729.648485
2107.931352	1730.004196
2109.595279	1726.265268
2111.257176	1711.183683
2112.918741	1715.282517
2114.579975	1718.534732
2116.239181	1721.457809
2117.898056	1724.237762
2119.556602	1731.558042
2121.214818	1729.012587
2122.869310	1733.230769
2124.526867	1732.034033
2126.184095	1729.034033
2127.837601	1715.217716
2129.492475	1724.310023
2131.143631	1724.401865
2132.797848	1732.988811
2134.448349	1741.393007
2136.100216	1739.764103
2137.746675	1730.728205
2139.397889	1728.368298
2141.045389	1722.068998
2142.694256	1711.835431
2144.341105	1703.392541
2145.987627	1706.662937
2147.633824	1701.355245
2149.276313	1704.246620
2150.921860	1699.866667
2152.563700	1698.579487
2154.208597	1698.484382
2155.849789	1704.503497
2157.490657	1698.988811
2159.131201	1696.625175
2160.769733	1696.100233
2162.409631	1696.455478
2164.045829	1689.620513
2165.683394	1678.969231
2167.320635	1670.189277
2168.955867	1676.108159
2170.590778	1672.329604
2172.225367	1678.476923
2173.859634	1678.682051
2175.490208	1684.050816
2177.123834	1682.430769
2178.753768	1687.283916
2180.385067	1679.874592
2182.014361	1675.724476
2183.643336	1672.043823
2185.271991	1668.488112
2186.900327	1655.998135
2188.526661	1648.584149
2190.152676	1643.155245
2191.776690	1645.882051
2193.402068	1644.712354
2195.025447	1646.820047
2196.650189	1656.373427
2198.271251	1663.892308
2199.891996	1664.420047
2201.514106	1659.506294
2203.134218	1651.273193
2204.752333	1644.098368
2206.370133	1639.368765
2207.987618	1638.940793
2209.604787	1626.331469
2211.221641	1622.015385
2212.838179	1626.271795
2214.452725	1631.227972
2216.065278	1633.844289
2217.679195	1637.624242
2219.291121	1638.798135
2220.904410	1645.038228
2222.515709	1635.941725
2224.125018	1628.931469
2225.735691	1615.220047
2227.344375	1612.903497
2228.952746	1620.437762
2230.559131	1627.586014
2232.166879	1622.441958
2233.772640	1622.911888
2235.378090	1622.303030
2236.981555	1622.442424
2238.586383	1615.937529
2240.189227	1621.510023
2241.790089	1625.154779
2243.392312	1633.221445
2244.992554	1646.268531
2246.594158	1641.387413
2248.192110	1629.208858
2249.791424	1620.580886
2251.388758	1609.238695
2252.985783	1601.743590
2254.584171	1601.751981
2256.178910	1608.575291
2257.771672	1605.085781
2259.365797	1603.152914
2260.961283	1599.798601
2262.553125	1595.768765
2264.144660	1595.447552
2265.737556	1593.133800
2267.325143	1595.418182
2268.917427	1614.257343
2270.504403	1620.524009
2272.094407	1629.920746
2273.679108	1623.635431
2275.268501	1618.250816
2276.852593	1606.882984
2278.438046	1597.826107
2280.021529	1581.611655
2281.608039	1569.365967
2283.190914	1559.671329
2284.773487	1563.593939
2286.355756	1558.141259
2287.934396	1561.592075
2289.516059	1553.914219
2291.094094	1548.821911
2292.675152	1550.379953
2294.252583	1543.491375
2295.828051	1542.393473
2297.406541	1542.949650
2298.981407	1544.462471
2300.555972	1547.653147
2302.130237	1549.971096
2303.704201	1550.085781
2305.277865	1544.056876
2306.851228	1547.580886
2308.420973	1546.891375
2309.990419	1547.410256
2311.562883	1549.013520
2313.130073	1542.410256
2314.700281	1541.739394
2316.266874	1537.376690
2317.834827	1539.862937
2319.400824	1542.878788
2320.966524	1550.181352
2322.531927	1566.335664
2324.095375	1576.048019
2325.660183	1594.979953
2327.221383	1595.336597
2328.785597	1592.731469
2330.344549	1587.065734
2331.906516	1582.213520
2333.466532	1575.094639
2335.026252	1564.354312
2336.584023	1559.867599
2338.141499	1550.481585
2339.698681	1544.142191
2341.253915	1553.398601
2342.808856	1551.181352
2344.363503	1551.276457
2345.917855	1549.569697
2347.471915	1556.398601
2349.025680	1565.006993
2350.577502	1565.372494
2352.127380	1565.172028
2353.680266	1563.794406
2355.227910	1560.795338
2356.778561	1563.111888
2358.325621	1559.751049
2359.874039	1555.044289
2361.422166	1548.255012
2362.966704	1556.838695
2364.512600	1568.188345
2366.056558	1576.712354
2367.601873	1582.164569
2369.143603	1597.797203
2370.686690	1595.089044
2372.227841	1595.961772
2373.768704	1590.729604
2375.309276	1579.150117
2376.849560	1565.888578
2378.389555	1561.341725
2379.925972	1559.998601
2381.465390	1559.915152
2383.001231	1559.402331
2384.538428	1565.956177
2386.072050	1563.917483
2387.608673	1565.858275
2389.143364	1558.510023
2390.676126	1554.114685
2392.208601	1551.317949
2393.739148	1551.442890
2395.272693	1551.487179
2396.801027	1551.420979
2398.330718	1551.271795
2399.860123	1553.908625
2401.389242	1553.977622
2402.918077	1553.716550
2404.441706	1547.248485
2405.969972	1544.533333
2407.493034	1540.663869
2409.020730	1545.353846
2410.541587	1542.628904
2412.067077	1548.174359
2413.589006	1548.032634
2415.112291	1548.181818
2416.633654	1544.912821
2418.153099	1543.188811
2419.673898	1540.066667
2421.192778	1543.928671
2422.711376	1538.952914
2424.228057	1552.106294
2425.746092	1549.866200
2427.263846	1560.157576
2428.778049	1550.348718
2430.291971	1540.456876
2431.805613	1528.872261
2433.320610	1523.290909
2434.832058	1522.066200
2436.344861	1517.515618
2437.855750	1510.790676
2439.366361	1520.523543
2440.875060	1515.328671
2442.386745	1517.794406
2443.894887	1505.119347
2445.402751	1502.848951
2446.910337	1492.004662
2448.414382	1490.638695
2449.921413	1489.225175
2451.426535	1486.185082
2452.931380	1487.937063
2454.434317	1492.602331
2455.936979	1488.079254
2457.439364	1485.339860
2458.939844	1473.274592
2460.441677	1476.651282
2461.941605	1466.937995
2463.441259	1463.155245
2464.940636	1460.363170
2466.438111	1456.045688
2467.933684	1454.689044
2469.432237	1455.216317
2470.927262	1454.833100
2472.423639	1451.591608
2473.916490	1457.142657
2475.410694	1462.632168
2476.904624	1460.255478
2478.395030	1459.694172
2479.888414	1460.009790
2481.379900	1455.248485
2482.869489	1450.772494
2484.358806	1448.541725
2485.846228	1444.724009
2487.336625	1443.472727
2488.823503	1452.715618
2490.311733	1454.223776
2491.796447	1460.094172
2493.280890	1456.525874
2494.766685	1457.680186
2496.250587	1446.845221
2497.735841	1440.969697
2499.215960	1441.413986
2500.699053	1439.259674
2502.180255	1437.285315
2503.661188	1441.144522
2505.140232	1449.997669
2506.619007	1459.439627
2508.097514	1455.301632
2509.575753	1456.792541
2511.053723	1453.366900
2512.528188	1453.109091
2514.005623	1451.618182
2515.479554	1444.621445
2516.954835	1437.800466
2518.429850	1439.705828
2519.901363	1441.710490
2521.374226	1444.123543
2522.845207	1441.847086
2524.317538	1437.645221
2525.784755	1440.219114
2527.254939	1438.193939
2528.723242	1431.144056
2530.191280	1427.613054
2531.659053	1434.986480
2533.126561	1440.010723
2534.593804	1445.737063
2536.057555	1445.288578
2537.522656	1448.641492
2538.985880	1448.797669
2540.450454	1456.095105
2541.911538	1458.979487
2543.373972	1456.113287
2544.836143	1453.484848
2546.294828	1461.929138
2547.758085	1459.096970
2549.216245	1457.366900
2550.675754	1454.521212
2552.130169	1456.078788
2553.589155	1462.220513
2555.046269	1469.618648
2556.501512	1460.030769
2557.956494	1458.211655
2559.409606	1447.398601
2560.864067	1444.968765
2562.316659	1431.612121
2563.768991	1427.011189
2565.219455	1430.409790
2566.672875	1431.320746
2568.121213	1428.965035
2569.572507	1434.959441
2571.021934	1428.861072
2572.467889	1431.951981
2573.916799	1434.191608
2575.362239	1437.305828
2576.809027	1438.778089
2578.253951	1444.266667
2579.698617	1450.361772
2581.144632	1443.306294
2582.587179	1426.537063
2584.031074	1422.848951
2585.471504	1413.983683
2586.913281	1401.895105
2588.353199	1402.378089
2589.794464	1402.774825
2591.232267	1407.119814
2592.673021	1405.675991
2594.108711	1409.186946
2595.547351	1398.778555
2596.984133	1392.659674
2598.419060	1391.350117
2599.856934	1389.265734
2601.289751	1391.762238
2602.723915	1398.207925
2604.156225	1397.483450
2605.589881	1397.494172
2607.021684	1391.088578
2608.453233	1380.621911
2609.884530	1373.253147
2611.313974	1373.642424
2612.743166	1369.639161
2614.170508	1372.486713
2615.599195	1381.673660
2617.027631	1382.992541
2618.452619	1381.128205
2619.878954	1385.315618
2621.303440	1388.468065
2622.729272	1387.438228
2624.151660	1388.659674
2625.575394	1387.284848
2626.997281	1381.206993
2628.418919	1374.956643
2629.838711	1371.694639
2631.259849	1361.593007
2632.680737	1354.956643
2634.098187	1362.761772
2635.518576	1374.244289
2636.935528	1374.684848
2638.352231	1379.451748
2639.768687	1385.254079
2641.184893	1383.216783
2642.600852	1375.726807
2644.014970	1376.737995
2645.428841	1371.604662
2646.840872	1366.466200
2648.254248	1369.113753
2649.664194	1370.046154
2651.077075	1360.699301
2652.486528	1364.147319
2653.895735	1357.351515
2655.303106	1343.998135
2656.713412	1338.625641
2658.121881	1339.022378
2659.528515	1337.338462
2660.934904	1336.272261
2662.339459	1331.016317
2663.745358	1334.351049
2665.149424	1339.224709
2666.553245	1344.391608
2667.956823	1344.302564
2669.358568	1341.956643
2670.761657	1344.305828
2672.161328	1346.932401
2673.562343	1346.693706
2674.959942	1349.272727
2676.360471	1332.908159
2677.757585	1329.548252
2679.156042	1325.916084
2680.552671	1314.373893
2681.949058	1316.673193
2683.345204	1314.431702
2684.739523	1312.011189
2686.135184	1314.581352
2687.527437	1320.842890
2688.921032	1323.405594
2690.312803	1314.551515
2691.705917	1312.331469
2693.097207	1306.509557
2694.486674	1310.308159
2695.875901	1313.475524
2697.264889	1305.374825
2698.655219	1299.792075
2700.040564	1300.731469
2701.428833	1302.344988
2702.815282	1290.000000
2704.201492	1283.369231
2705.587464	1284.745455
2706.970036	1294.775758
2708.353951	1307.021911
2709.737628	1311.308159
2711.121067	1307.851282
2712.501110	1309.579953
2713.882495	1309.939860
2715.262064	1302.552914
2716.642975	1288.200466
2718.022070	1274.577156
2719.399352	1276.779487
2720.777975	1276.143590
2722.154785	1281.365967
2723.531359	1292.762704
2724.907697	1300.646620
2726.282223	1306.561305
2727.658090	1313.524942
2729.030570	1316.226107
2730.405966	1312.881585
2731.776402	1300.370629
2733.148179	1299.056876
2734.519721	1291.841492
2735.889455	1293.265268
2737.260530	1292.308625
2738.629796	1300.577156
2739.998829	1297.409324
2741.366056	1296.600466
2742.733050	1293.524942
2744.099811	1295.295105
2745.466339	1291.839161
2746.831062	1287.036830
2748.195554	1290.263403
2749.559813	1298.558042
2750.923840	1299.696970
2752.287636	1306.693240
2753.648058	1314.249883
2755.011391	1309.731469
2756.369781	1305.998135
2757.731081	1310.614452
2759.089010	1299.089977
2760.449848	1284.015851
2761.808887	1279.558042
2763.164557	1274.670862
2764.523135	1262.387413
2765.878346	1275.693240
2767.233328	1283.579021
2768.586514	1281.721678
2769.942606	1283.798135
2771.295333	1285.068065
2772.647833	1277.951981
2774.000104	1265.671795
2775.353714	1255.748718
2776.703962	1252.221911
2778.052417	1247.576224
2779.403776	1260.642890
2780.751776	1258.664802
2782.101114	1263.858741
2783.448661	1265.026107
2784.795980	1264.501166
2786.143073	1263.641492
2787.488375	1257.444755
2788.833451	1251.351981
2790.178300	1254.774359
2791.522924	1254.000000
2792.864196	1253.562704
2794.206806	1252.387413
2795.549190	1254.470396
2796.891350	1251.561772
2798.230160	1250.972028
2799.571869	1252.378089
2800.910231	1253.456876
2802.249930	1248.358974
2803.587843	1251.397669
2804.923972	1244.983683
2806.259877	1240.222844
2807.597120	1233.689977
2808.932579	1233.616317
2810.267815	1228.221911
2811.601268	1227.561305
2812.936059	1233.731469
2814.267508	1231.851748
2815.601853	1235.200000
2816.931300	1234.534732
2818.262084	1227.204196
2819.592646	1230.845221
2820.921429	1226.831235
2822.251548	1227.055012
2823.579889	1225.142191
2824.908009	1226.193939
2826.234351	1224.192075
2827.562030	1214.028438
2828.886375	1216.432634
2830.212057	1209.420979
2831.535963	1208.733333
2832.859650	1210.251748
2834.184672	1208.377156
2835.506364	1209.307692
2836.827838	1210.957110
2838.149093	1214.090443
2839.470129	1206.601399
2840.789393	1198.917016
2842.109992	1195.667599
2843.428819	1191.584615
2844.747428	1189.703030
2846.064266	1195.743590
2847.380887	1198.160839
2848.697291	1199.410723
2850.011925	1207.458275
2851.327895	1214.384615
2852.640544	1212.014452
2853.954529	1208.226573
2855.268296	1203.553846
2856.581848	1197.996270
2857.893632	1191.089044
2859.203650	1200.187879
2860.515003	1197.353846
2861.823041	1197.206993
2863.132413	1199.645221
2864.441571	1199.634033
2865.750513	1203.428904
2867.057691	1206.565967
2868.363107	1214.353846
2869.669857	1219.140793
2870.974844	1223.655478
2872.279618	1227.837762
2873.582630	1225.951515
2874.888524	1222.915618
2876.189562	1210.801865
2877.491935	1207.282051
2878.792548	1212.015851
2880.094495	1215.857809
2881.396229	1219.682517
2882.694658	1224.965501
2883.994421	1219.693240
2885.292427	1210.916550
2886.590221	1203.775291
2887.886259	1200.761305
2889.183630	1197.695105
2890.479245	1192.793473
2891.774649	1188.021445
2893.069842	1188.895105
2894.361738	1187.781818
2895.656510	1190.503497
2896.947985	1184.041026
2898.240793	1182.637296
2899.533391	1181.608858
2900.822695	1184.119347
2902.113331	1189.987413
2903.402216	1187.814452
2904.692434	1182.275991
2905.979359	1188.092774
2907.267618	1182.763636
2908.554126	1175.462005
2909.840427	1171.404662
2911.126519	1164.037296
2912.410863	1162.198135
2913.698078	1165.936597
2914.980467	1177.686247
2916.264188	1190.162238
2917.546163	1189.088112
2918.827930	1192.221445
2920.107953	1186.516084
2921.390845	1186.489977
2922.671992	1184.605128
2923.949857	1175.335664
2925.230591	1174.650816
2926.508044	1172.843823
2927.785291	1173.234033
2929.060797	1175.493240
2930.339170	1169.628904
2931.612728	1169.312821
2932.889154	1170.938928
2934.163839	1174.743590
2935.436784	1174.461538
2936.711059	1169.055944
2937.983595	1163.776224
2939.255927	1162.532867
2940.524985	1159.475524
2941.796909	1160.187413
2943.067095	1156.951515
2944.337078	1156.002797
2945.606857	1156.796270
2946.874899	1150.847086
2948.141206	1151.375758
2949.407310	1156.895105
2950.674744	1160.754779
2951.940444	1168.282984
2953.205941	1166.421911
2954.471236	1166.002331
2955.733266	1163.258741
2956.996627	1156.168765
2958.259785	1152.704895
2959.521212	1142.779487
2960.783968	1141.443823
2962.044993	1149.417249
2963.304286	1150.637762
2964.563380	1151.871329
2965.822273	1153.860606
2967.080966	1157.066667
2968.339459	1157.242890
2969.596223	1158.366900
2970.852787	1154.636830
2972.107624	1151.468531
2973.363789	1142.646154
2974.616700	1147.833566
2975.870940	1139.763636
2977.124981	1139.254545
2978.377296	1143.724009
2979.629412	1149.395338
2980.879804	1143.709557
2982.133051	1145.546387
2983.381521	1144.275524
2984.632846	1143.973893
2985.880921	1135.762704
2987.128800	1142.949650
2988.376481	1132.765035
2989.623965	1132.620513
2990.869728	1126.413986
2992.115295	1122.444755
2993.362189	1102.675524
2994.605839	1101.420513
2995.850817	1103.759441
2997.092551	1101.595804
2998.337137	1103.175758
2999.580004	1110.331469
3000.819630	1117.105361
3002.062106	1121.517016
3003.301343	1116.393007
3004.541906	1110.527739
3005.780754	1104.809790
3007.019406	1109.000000
3008.256344	1106.717949
3009.494608	1102.280653
3010.731158	1098.565035
3011.967513	1102.499767
3013.203675	1121.218648
3014.438124	1122.778089
3015.672379	1123.039161
3016.906441	1123.581818
3018.138791	1122.815385
3019.369429	1116.107226
3020.602913	1105.101166
3021.834685	1102.334732
3023.064747	1094.707692
3024.294617	1093.175291
3025.522777	1096.542191
3026.752263	1091.868531
3027.980040	1094.664802
3029.207627	1091.527739
3030.436539	1093.318415
3031.660709	1096.937995
3032.887722	1106.340793
3034.111511	1113.232168
3035.336627	1109.659674
3036.560036	1106.849417
3037.783255	1104.128205
3039.004769	1102.050816
3040.229124	1087.608392
3041.448744	1080.245221
3042.669690	1082.699767
3043.890447	1087.880653
3045.109500	1091.760373
3046.329879	1095.509557
3047.547041	1104.683916
3048.765528	1107.754779
3049.982313	1112.725408
3051.198911	1113.916084
3052.415320	1096.803263
3053.628517	1095.405594
3054.844551	1088.868531
3056.057373	1088.459207
3057.273032	1090.339394
3058.483968	1096.778089
3059.696229	1099.760373
3060.908304	1103.410723
3062.120192	1103.645688
3063.330382	1097.570163
3064.540386	1087.059207
3065.750204	1083.032168
3066.958327	1076.179953
3068.166263	1079.234499
3069.372504	1080.200466
3070.580070	1085.325408
3071.785941	1087.141259
3072.991628	1092.563170
3074.197129	1087.939860
3075.400937	1083.712354
3076.606069	1081.492774
3077.809509	1079.828438
3079.011256	1080.432168
3080.212820	1082.683450
3081.414199	1084.351981
3082.615396	1093.843823
3083.814901	1086.849883
3085.014224	1087.292774
3086.214870	1090.503963
3087.413826	1085.512821
3088.609588	1075.520280
3089.808179	1074.361305
3091.003576	1066.826107
3092.200296	1067.228438
3093.393824	1064.522145
3094.590180	1060.588811
3095.784850	1046.945455
3096.976329	1049.299767
3098.172139	1057.627972
3099.363256	1056.437762
3100.555695	1059.089977
3101.744947	1070.603263
3102.937025	1070.042890
3104.127418	1079.680186
3105.314626	1075.820047
3106.503157	1073.050350
3107.693009	1063.089510
3108.879678	1059.070862
3110.066167	1050.367832
3111.252476	1053.926807
3112.440107	1054.792541
3113.624557	1057.986480
3114.807326	1045.437762
3115.992918	1049.403730
3117.176831	1046.951515
3118.359065	1047.189277
3119.541120	1042.587879
3120.722998	1042.074592
3121.904697	1040.227972
3123.084718	1051.505361
3124.263063	1048.449883
3125.444228	1049.334266
3126.622219	1039.191608
3127.800032	1047.739394
3128.977668	1042.026573
3130.153629	1042.089044
3131.329413	1040.014918
3132.506519	1043.414452
3133.681950	1046.303497
3134.855708	1041.491841
3136.027793	1039.141259
3137.201200	1040.937529
3138.374430	1040.014452
3139.545989	1049.668531
3140.718868	1047.146387
3141.888581	1050.518415
3143.059613	1052.631235
3144.228976	1052.867133
3145.396669	1048.589277
3146.567177	1039.492774
3147.733026	1038.213520
3148.903185	1031.598601
3150.068686	1026.248485
3151.234014	1029.407925
3152.399168	1029.424242
3153.564148	1034.018182
3154.730448	1030.822844
3155.892096	1035.689510
3157.055063	1031.026107
3158.217858	1030.634965
3159.380480	1029.592541
3160.541437	1020.570163
3161.702221	1020.718881
3162.862833	1023.557576
3164.021781	1019.813054
3165.180558	1019.698834
3166.339163	1019.269930
3167.497596	1028.683450
3168.655857	1020.102098
3169.812456	1024.703963
3170.967394	1021.632634
3172.123651	1016.918881
3173.278247	1014.464336
3174.432673	1013.090909
3175.585439	1005.763636
3176.738035	1008.537529
3177.890460	1013.969231
3179.042716	1010.622378
3180.194801	1003.685315
3181.343741	1009.676457
3182.495487	1005.736131
3183.645575	1003.506760
3184.794007	1000.341259
3185.942270	999.300233
3187.090363	999.741725
3188.238288	1003.572960
3189.384558	1011.351049
3190.530659	1011.331002
3191.675105	1011.204196
3192.819384	1013.588811
3193.963495	1018.641026
3195.108923	1013.915618
3196.251213	1007.104895
3197.393336	1002.492774
3198.535291	1001.282984
3199.677079	1003.432634
3200.818701	1002.662937
3201.957186	998.689044
3203.096989	996.785082
3204.238110	999.691841
3205.376096	1004.434499
3206.512433	993.620047
3207.648604	988.710023
3208.786093	997.028438
3209.921932	996.202331
3211.059089	998.579021
3212.191633	990.081119
3213.328459	986.752914
3214.460673	980.836830
3215.594204	983.479720
3216.727571	985.361772
3217.857810	980.904895
3218.990847	983.811655
3220.120758	991.998601
3221.251985	984.290909
3222.380088	984.351049
3223.510987	979.783217
3224.640242	972.445688
3225.767854	966.556177
3226.892344	971.997669
3228.021108	977.640559
3229.146751	975.133800
3230.272232	975.925408
3231.396071	979.863869
3232.522704	970.761772
3233.644740	973.674126
3234.768092	965.075524
3235.891282	962.827040
3237.014310	961.820979
3238.135698	962.279720
3239.256925	962.557110
3240.376513	961.945455
3241.495940	958.810256
3242.613729	970.018182
3243.734310	968.220047
3244.851778	973.872727
3245.969085	970.459207
3247.086232	976.168765
3248.201743	976.967832
3249.318569	978.084382
3250.432284	982.484848
3251.548789	985.341259
3252.663660	979.534266
3253.775422	979.976690
3254.887024	973.447552
3255.999942	972.134266
3257.112701	967.317483
3258.222353	974.284382
3259.333319	980.297902
3260.444127	982.406061
3261.553304	989.292774
3262.660849	983.440559
3263.769708	988.217716
3264.878410	996.344056
3265.984009	994.185548
3267.090922	994.147786
3268.196206	991.905361
3269.302805	998.768298
3270.406303	995.379953
3271.511115	985.124942
3272.615770	976.171096
3273.717326	969.399068
3274.818726	978.597669
3275.921441	981.499301
3277.023998	979.077855
3278.123459	983.400000
3279.225704	981.798601
3280.324853	985.860140
3281.422378	985.798601
3282.519747	985.603730
3283.619899	980.382751
3284.716957	977.875058
3285.813860	973.549184
3286.910608	970.822378
3288.002798	970.946387
3289.099236	970.050350
3290.194052	972.874592
3291.288714	973.647086
3292.381754	973.075524
3293.474640	979.234965
3294.565905	975.884848
3295.658483	969.019580
3296.749440	973.855012
3297.838778	973.158974
3298.927963	971.266667
3300.018461	977.191608
3301.105874	976.906760
3302.193135	974.375758
3303.281708	962.914685
3304.370128	964.944988
3305.454001	955.990210
3306.542116	946.775291
3307.627150	945.267599
3308.710567	942.993473
3309.795297	945.966900
3310.878412	948.791608
3311.962838	941.079720
3313.044186	942.744988
3314.126846	938.918415
3315.207892	945.594406
3316.288787	947.606993
3317.368068	951.475991
3318.447200	954.023310
3319.527642	964.664336
3320.605010	961.908625
3321.683690	959.080653
3322.760759	957.765035
3323.837677	960.056876
3324.912984	967.917483
3325.988142	971.205594
3327.064611	974.647086
3328.138010	973.916550
3329.211260	970.994406
3330.285820	968.236830
3331.358772	953.200000
3332.430115	946.901166
3333.502770	944.664802
3334.572357	936.188345
3335.643255	941.248019
3336.712546	939.034965
3337.783148	940.456876
3338.852143	944.609324
3339.919532	944.790210
3340.985316	942.710023
3342.055326	941.611189
3343.122273	947.563170
3344.186158	946.948252
3345.252811	948.322145
3346.317859	951.533333
3347.381304	952.345455
3348.444603	953.487646
3349.507755	955.013986
3350.570761	945.596270
3351.633621	937.610723
3352.694879	931.927739
3353.753080	927.546387
3354.815502	920.371562
3355.874867	923.093240
3356.934087	926.091375
3357.994617	931.695571
3359.050637	931.572960
3360.109421	938.707226
3361.163698	940.698368
3362.220739	940.097436
3363.276182	932.684848
3364.332933	927.103963
3365.388086	927.898834
3366.441642	927.441026
3367.493602	925.230303
3368.548323	928.645221
3369.599995	930.951049
3370.651524	936.914685
3371.704361	934.704895
3372.754151	929.526807
3373.805250	930.087179
3374.853303	929.116550
3375.904115	935.860140
3376.951883	937.932867
3377.999508	933.059207
3379.046990	939.352448
3380.092880	939.806527
3381.140078	945.252681
3382.184234	939.041958
3383.231148	940.034499
3384.276470	943.847552
3385.318751	942.041026
3386.360892	946.825175
3387.404340	942.583217
3388.447647	932.904429
3389.489365	929.400932
3390.530941	925.391608
3391.572377	927.901166
3392.612223	921.438228
3393.650481	923.195338
3394.690048	922.737529
3395.729473	928.883916
3396.767311	929.625641
3397.803562	931.475991
3398.839674	930.882517
3399.877093	930.025175
3400.911479	925.853147
3401.947172	929.494639
3402.982726	927.801865
3404.015249	929.453613
3405.050525	929.288578
3406.082770	928.203263
3407.114877	928.972494
3408.145400	932.832634
3409.177230	926.447552
3410.208922	927.351515
3411.237586	923.945921
3412.266113	927.399534
3413.295947	923.240093
3414.325642	926.434033
3415.352312	922.511888
3416.380289	921.681119
3417.405241	929.464802
3418.432943	929.625175
3419.457622	930.190676
3420.483607	935.348718
3421.508012	933.890443
3422.532281	937.682984
3423.554971	930.926340
3424.577525	928.484848
3425.601385	917.737529
3426.622225	914.180886
3427.642930	914.027040
3428.664940	912.709557
3429.683932	912.773893
3430.702789	914.400000
3431.722951	917.767832
3432.740097	923.057343
