17/8/2023
5:01 pm
Raman shift	Intensity
cm-1	Counts
-115.378234	11343.682985
-112.711569	11142.039485
-110.045656	10941.351289
-107.382675	10741.623649
-104.718265	10542.861818
-102.056785	10345.071050
-99.393875	10148.256598
-96.736073	9952.423715
-94.076840	9757.577655
-91.418357	9563.723670
-88.762797	9371.188162
-86.105809	9179.970529
-83.453918	8988.033407
-80.800598	8799.594843
-78.150198	8609.657553
-75.498368	8422.429317
-72.851629	8233.987386
-70.203460	8048.655657
-67.556035	7861.415532
-64.911523	7678.239453
-62.265583	7492.397642
-59.624724	7309.028446
-56.982436	7125.575868
-54.343056	6941.908919
-51.702248	6760.067124
-49.062180	6580.153131
-46.427184	6401.018431
-43.790760	6223.604410
-41.157238	6045.042192
-38.522288	5867.075192
-35.892403	5680.630445
-33.258926	5457.458852
-30.630511	5139.684476
-28.002829	4693.622421
-25.373720	4445.556212
-22.749667	4654.899777
-20.122025	5092.434975
-17.499436	5481.755204
-14.877579	5793.092044
-12.256452	6025.118332
-9.636055	6173.509126
-7.018546	6243.057595
-4.399609	6229.835693
-1.783558	6133.812692
0.831765	5958.436192
3.446361	5704.746991
6.058074	5366.075461
8.671216	4949.526311
11.279324	4450.598038
13.891014	3876.361027
16.497673	3226.458430
19.105760	2520.916435
21.713123	1823.252009
24.315461	1300.427690
26.921377	1209.376237
29.522271	1381.057768
32.124593	1419.001281
34.721898	1285.670460
37.322778	1135.280833
39.918644	986.225145
42.515937	835.887020
45.112511	686.593036
47.704076	537.158070
50.297069	389.334461
52.887201	243.056959
55.478761	98.789869
58.067461	0.000000
60.657588	0.000000
63.242717	0.000000
65.829272	0.000000
68.415114	0.000000
70.998102	0.000000
73.582516	0.000000
76.159802	0.000000
78.740654	0.000000
81.318657	0.000000
83.895950	0.000000
86.474669	0.000000
89.048407	0.000000
91.623571	0.000000
94.195892	0.000000
96.767505	0.000000
99.336278	0.000000
101.906478	0.000000
104.473840	0.000000
107.042627	0.000000
109.608578	0.000000
112.171694	0.000000
114.738366	0.000000
117.295817	0.000000
119.858953	0.000000
122.417130	0.000000
124.978860	0.000000
127.535634	0.000000
130.093835	65.948182
132.647083	1421.964290
135.199632	2917.168435
137.755732	4490.928189
140.306885	6095.470588
142.857339	7670.035976
145.407096	9169.498397
147.954035	10523.315518
150.500277	11697.843733
153.047945	12653.793503
155.594917	13344.752768
158.136954	13788.421595
160.678297	13982.877003
163.218947	13963.854432
165.761023	13784.900073
168.300287	13551.004123
170.836743	13317.900286
173.372507	13093.404026
175.909697	12906.446793
178.446196	12734.484457
180.979889	12589.261020
183.510779	12477.195969
186.040980	12340.538633
188.572606	12202.754201
191.101431	12082.467386
193.627457	11947.222487
196.152797	11814.370535
198.679563	11682.981161
201.203531	11555.935833
203.726815	11426.399181
206.249414	11299.992814
208.769220	11190.459559
211.288343	11061.885066
213.806783	10934.835798
216.326647	10792.193676
218.839510	10680.041378
221.355904	10569.076976
223.871616	10454.643884
226.382438	10350.134782
228.894686	10246.482983
231.404150	10146.186886
233.912936	10056.260289
236.421044	9954.588482
238.930575	9861.317594
241.435226	9768.433274
243.939202	9656.305123
246.444601	9547.220392
248.945125	9443.834788
251.449172	9321.256617
253.946249	9216.918209
256.446848	9118.567099
258.944676	9006.364159
261.441831	8885.637339
263.938313	8772.563236
266.429932	8653.501151
268.925071	8538.011138
271.417444	8417.346484
273.909146	8289.141778
276.398084	8170.722258
278.888447	8044.131403
281.376047	7921.808903
283.860888	7804.927330
286.349244	7689.130296
288.830660	7563.463014
291.315590	7444.723523
293.795675	7316.184888
296.279272	7196.100527
298.758026	7077.799830
301.238204	6984.096137
303.715629	6902.513411
306.192391	6826.198695
308.668490	6747.110835
311.141840	6674.475133
313.614528	6615.376619
316.086555	6547.040206
318.557921	6477.148405
321.026543	6411.396576
323.494505	6345.580307
325.963889	6273.552329
328.428451	6203.157823
330.896517	6126.726833
333.359763	6044.580085
335.822351	5953.433469
338.284283	5859.242234
340.745558	5766.832370
343.204099	5660.763539
345.664062	5550.404489
348.121292	5445.782684
350.577868	5353.473083
353.033790	5246.862907
355.486983	5141.388246
357.941597	5030.215269
360.391410	4917.968266
362.844719	4815.983623
365.293230	4710.472292
367.741090	4614.120382
370.190371	4511.258984
372.634859	4411.703888
375.080769	4314.629565
377.526030	4230.933368
379.968571	4143.560053
382.410465	4065.856400
384.851712	3986.760758
387.290243	3926.407191
389.730196	3856.775107
392.167435	3777.809978
394.601962	3702.455090
397.039977	3646.298134
399.473215	3585.938243
401.907875	3528.520909
404.337761	3458.359527
406.771133	3401.780122
409.199735	3347.538280
411.627696	3292.495156
414.057077	3244.002003
416.481693	3192.084068
418.907731	3140.799290
421.333128	3093.500125
423.757885	3059.037143
426.177884	3015.024668
428.599304	2975.817316
431.018027	2947.426694
433.438171	2915.294044
435.855620	2887.369589
438.274489	2846.028810
440.690665	2808.811480
443.102094	2781.445750
445.516999	2753.264901
447.929214	2715.116783
450.340795	2669.989977
452.751742	2618.025205
455.160003	2576.993717
457.567631	2527.632849
459.974628	2473.620327
462.380992	2422.963933
464.784674	2370.657575
467.187726	2311.789945
469.590148	2252.700621
471.991941	2195.361821
474.391055	2131.336596
476.791589	2069.280071
479.191494	2011.484688
481.586676	1942.711523
483.985325	1879.075087
486.379254	1812.464801
488.772557	1753.616590
491.165234	1686.929000
493.557286	1607.428346
495.950756	1536.393073
498.339515	1469.108899
500.725607	1406.911969
503.113118	1344.112816
505.500007	1289.621372
507.884232	1239.720191
510.269876	1191.167066
512.652857	1148.315823
515.033178	1108.016775
517.414918	1070.286680
519.793999	1044.777364
522.174499	1028.238446
524.552341	1000.715024
526.927528	979.534428
529.302097	959.602993
531.678085	944.780715
534.051419	922.195378
536.426171	900.140528
538.796238	863.483248
541.165689	838.491353
543.536558	815.572290
545.902747	791.044797
548.270354	763.506437
550.635315	737.516223
552.999663	713.494337
555.363399	691.973071
557.728552	665.216817
560.089032	638.271394
562.450931	611.666001
564.810190	584.330936
567.166810	571.391618
569.526875	546.333631
571.880250	507.209135
574.237069	481.305483
576.591252	460.041556
578.944828	424.473531
581.297795	389.366783
583.648131	356.302981
585.999883	313.480178
588.344959	283.699964
590.695499	241.867102
593.039365	219.249181
595.388693	195.538338
597.733373	164.671221
600.075427	127.131913
602.418899	102.921125
604.759748	76.854418
607.099995	60.171769
609.437621	34.168819
611.778682	11.061347
614.115105	0.000000
616.452945	0.000000
618.788168	0.000000
621.120775	0.000000
623.454798	0.000000
625.786208	0.000000
628.117019	0.000000
630.447232	0.000000
632.776847	0.000000
635.101840	0.000000
637.432274	0.000000
639.758086	0.000000
642.081292	0.000000
644.405913	0.000000
646.727929	0.000000
649.049352	0.000000
651.368171	0.000000
653.688406	0.000000
656.008048	0.000000
658.325089	0.000000
660.641538	0.000000
662.955389	0.000000
665.270656	0.000000
667.583326	0.000000
669.897411	0.000000
672.206896	0.000000
674.517797	0.000000
676.826105	0.000000
679.133825	0.000000
681.442960	0.000000
683.747502	0.000000
686.051457	0.000000
688.354827	0.000000
690.659611	0.000000
692.959809	0.000000
695.261421	0.000000
697.562449	0.000000
699.858894	0.000000
702.156755	0.000000
704.454032	0.000000
706.750726	0.000000
709.042844	0.000000
711.338373	0.000000
713.629329	0.000000
715.921699	0.000000
718.211493	0.000000
720.500707	0.000000
722.789342	0.000000
725.075405	0.000000
727.362881	0.000000
729.647786	0.000000
731.932114	0.000000
734.213873	0.000000
736.497046	0.000000
738.779642	0.000000
741.057683	0.000000
743.337137	0.000000
745.616016	0.000000
747.894319	0.000000
750.168073	0.000000
752.443241	0.000000
754.717835	0.000000
756.989869	0.000000
759.263317	0.000000
761.534207	0.000000
763.802541	0.000000
766.072288	0.000000
768.339481	0.000000
770.606103	0.000000
772.872155	0.000000
775.135656	0.000000
777.400570	0.000000
779.664914	0.000000
781.924729	0.000000
784.185957	0.000000
786.446616	0.000000
788.704730	0.000000
790.960299	0.000000
793.219259	0.000000
795.471720	0.000000
797.729548	0.000000
799.982856	0.000000
802.233625	0.000000
804.485806	0.000000
806.735449	0.000000
808.986503	0.000000
811.233046	0.000000
813.481001	0.000000
815.726422	0.000000
817.973254	0.000000
820.219525	0.000000
822.461292	0.000000
824.706441	0.000000
826.945118	0.000000
829.187177	0.000000
831.424738	0.000000
833.663711	0.000000
835.900157	0.000000
838.138014	0.000000
840.373346	0.000000
842.606155	0.000000
844.840375	0.000000
847.072073	0.000000
849.303215	0.000000
851.533804	0.000000
853.763837	0.000000
855.993317	0.000000
858.218315	0.000000
860.446688	0.000000
862.670582	0.000000
864.895886	0.000000
867.116715	0.000000
869.340916	0.000000
871.560644	0.000000
873.781783	0.000000
876.002371	0.000000
878.220449	0.000000
880.439938	0.000000
882.654959	0.000000
884.869434	0.000000
887.083360	0.000000
889.296740	0.000000
891.509572	0.000000
893.721858	0.000000
895.931641	0.000000
898.140879	0.000000
900.349572	0.000000
902.555766	0.000000
904.763369	0.000000
906.968474	0.000000
909.173036	0.000000
911.375103	0.000000
913.578579	0.000000
915.779561	0.000000
917.980002	0.000000
920.181850	0.000000
922.377308	6.169463
924.576125	26.332198
926.770503	43.933434
928.968239	51.009631
931.161539	64.893881
933.356248	79.904618
935.548471	94.594955
937.740156	116.267477
939.931303	134.073470
942.119967	144.498822
944.308094	159.409828
946.493741	181.014907
948.682740	202.823891
950.867316	228.176056
953.051357	253.429555
955.238748	278.593034
957.417835	312.671632
959.600273	348.090554
961.782177	380.501011
963.961607	419.492459
966.138563	453.914505
968.316928	496.562154
970.496700	527.853629
972.670123	560.222819
974.846892	602.158766
977.019254	630.196230
979.193024	653.018767
981.362390	683.559987
983.535101	683.024217
985.705345	699.807830
987.875061	714.272215
990.044248	734.372785
992.209038	742.090965
994.377169	756.959541
996.540906	777.366410
998.706049	784.279803
1000.868734	803.572049
1003.030892	810.509499
1005.190594	810.201030
1007.349772	817.763920
1009.510356	817.454175
1011.668485	824.890488
1013.826090	825.054344
1015.983172	833.316183
1018.139731	846.639589
1020.291910	854.545608
1022.445495	861.799030
1024.598559	869.626281
1026.749175	861.921984
1028.901196	878.874408
1031.048844	880.543479
1033.199824	884.796442
1035.346433	880.379732
1037.492524	876.827286
1039.638095	858.834082
1041.785072	837.995590
1043.925760	811.825539
1046.069778	782.508354
1048.211355	749.212826
1050.352416	711.763456
1052.494881	661.118420
1054.631067	621.340266
1056.770579	580.557237
1058.905735	540.893249
1061.044216	506.966493
1063.178343	467.418839
1065.311957	422.684054
1067.446976	381.918340
1069.577645	337.808744
1071.709719	304.468700
1073.839364	276.294267
1075.968497	252.019470
1078.097118	218.670180
1080.225228	187.146167
1082.350912	164.092279
1084.476086	147.577966
1086.602664	125.634411
1088.724905	121.991772
1090.848549	106.263843
1092.967860	95.855243
1095.092399	78.443518
1097.210693	77.441818
1099.330392	67.190764
1101.447672	53.320726
1103.564446	28.633317
1105.680713	9.048539
1107.794565	0.000000
1109.909820	0.000000
1112.020753	0.000000
1114.134997	0.000000
1116.244921	0.000000
1118.356249	0.000000
1120.467072	0.000000
1122.573579	0.000000
1124.683396	0.000000
1126.788898	0.000000
1128.895803	0.000000
1130.996493	0.000000
1133.102395	0.000000
1135.203988	0.000000
1137.306984	0.000000
1139.409479	0.000000
1141.505767	0.000000
1143.607263	0.000000
1145.704456	0.000000
1147.801150	0.000000
1149.897346	0.000000
1151.993045	0.000000
1154.088245	0.000000
1156.181050	0.000000
1158.275256	0.000000
1160.363271	0.000000
1162.456484	0.000000
1164.543509	0.000000
1166.633833	0.000000
1168.719870	0.000000
1170.809204	0.000000
1172.892357	0.000000
1174.976912	0.000000
1177.062869	0.000000
1179.144544	0.000000
1181.227621	0.000000
1183.308312	0.000000
1185.388511	0.000000
1187.468219	0.000000
1189.547436	0.000000
1191.624271	0.000000
1193.698725	0.000000
1195.776470	0.000000
1197.849946	0.000000
1199.924822	0.000000
1201.995431	0.000000
1204.067442	0.000000
1206.137076	0.000000
1208.208111	0.000000
1210.278658	0.000000
1212.344944	0.000000
1214.412631	18.458522
1216.477946	43.437871
1218.544661	67.868002
1220.607120	87.125134
1222.672864	114.263680
1224.734355	138.233182
1226.797245	159.445440
1228.857768	180.003897
1230.917807	202.411857
1232.977364	227.617446
1235.034555	247.189476
1237.091265	269.097776
1239.145612	302.281089
1241.203239	330.663565
1243.258504	362.862626
1245.309528	375.980984
1247.361952	401.276178
1249.413896	432.963305
1251.463482	463.078733
1253.512589	485.882612
1255.561218	516.199136
1257.609368	550.340039
1259.657039	594.124907
1261.700481	634.696784
1263.747197	682.296784
1265.791560	723.170136
1267.835447	772.438536
1269.876982	825.750341
1271.916168	901.608790
1273.958627	970.042947
1275.996863	1063.951699
1278.036498	1171.954368
1280.075658	1309.534641
1282.110599	1456.807928
1284.146939	1626.249082
1286.180935	1806.135604
1288.216329	2026.145336
1290.247509	2256.031932
1292.280088	2512.231015
1294.312194	2773.169791
1296.341960	3020.386463
1298.373124	3182.577546
1300.400080	3215.695327
1302.428434	3537.185082
1304.452584	4854.565548
1306.479998	7008.456317
1308.503210	9868.042159
1310.527820	13282.215057
1312.550096	17119.494391
1314.573769	21226.833934
1316.595109	25489.727280
1318.615981	29757.911267
1320.636386	33916.683711
1322.652598	39030.600853
1324.670207	43636.298807
1326.685488	47186.875073
1328.704028	49421.876257
1330.718379	50215.490634
1332.730404	49550.568268
1334.745686	47477.634786
1336.756783	44106.956685
1338.769277	39680.678532
1340.777588	34668.498145
1342.789155	29758.588639
1344.794682	25226.472385
1346.803465	20700.772320
1348.808070	16315.217337
1350.815929	12212.733675
1352.823326	8532.333652
1354.824692	5416.530017
1356.827455	3034.202382
1358.829757	1518.546541
1360.831600	1033.508911
1362.832983	1715.678428
1364.832053	1791.762071
1366.830664	1721.897066
1368.828817	1602.221400
1370.826511	1462.105802
1372.820043	1332.741433
1374.814971	1229.366100
1376.809441	1123.422365
1378.803456	1032.688710
1380.795162	942.275886
1382.786414	854.288218
1384.775360	782.335299
1386.765701	728.750489
1388.755587	680.605472
1390.743170	633.512560
1392.730298	585.616429
1394.715125	557.496691
1396.701347	539.899251
1398.685269	527.466803
1400.668738	526.348670
1402.651755	512.008071
1404.632473	498.909565
1406.614587	502.429517
1408.594403	494.729712
1410.573769	485.436287
1412.548995	483.998281
1414.527461	491.756351
1416.503632	491.786449
1418.479355	491.209219
1420.454628	486.054163
1422.427610	495.843421
1424.400144	506.284112
1426.372231	513.151540
1428.343869	521.303663
1430.311379	532.509219
1432.283964	542.789111
1434.248742	562.775303
1436.218592	572.785275
1438.184319	584.730916
1440.151438	595.485394
1442.116274	588.664717
1444.076990	598.648492
1446.042775	617.471199
1448.002604	615.235263
1449.963826	606.668845
1451.926441	594.655339
1453.884941	589.811449
1455.842998	575.228854
1457.800614	561.365031
1459.757788	547.300022
1461.712686	537.372395
1463.668976	514.580180
1465.622992	493.179652
1467.576568	467.887857
1469.527871	450.449482
1471.480566	427.234293
1473.430990	414.032946
1475.380974	394.534368
1477.330520	376.759174
1479.277797	363.395481
1481.222807	346.934840
1483.169208	352.891441
1485.115172	350.297005
1487.060699	369.875954
1489.003961	389.244712
1490.946786	427.004294
1492.887348	460.026869
1494.829301	477.082219
1496.768992	497.943778
1498.708249	513.192994
1500.647070	529.228926
1502.583632	533.313614
1504.521585	529.349228
1506.457279	518.645532
1508.392540	518.618191
1510.325545	511.000517
1512.258117	500.027260
1514.190257	483.226858
1516.121965	472.452294
1518.051419	462.761418
1519.982264	453.234082
1521.912677	458.504853
1523.839018	461.723116
1525.766750	493.685343
1527.692231	513.036819
1529.617283	535.504002
1531.541906	552.210968
1533.466100	577.966347
1535.388047	606.680577
1537.311383	629.193299
1539.232474	649.659827
1541.151320	672.389811
1543.071556	684.005554
1544.989548	698.361397
1546.907114	713.948991
1548.822438	712.930517
1550.739152	713.815502
1552.651811	714.213363
1554.567674	708.989734
1556.481297	686.845178
1558.392683	660.293982
1560.305457	646.380395
1562.214182	607.258389
1564.124297	596.239919
1566.033987	579.652349
1567.943255	558.736495
1569.850289	548.001997
1571.755090	536.495416
1573.661280	523.684203
1575.565238	504.722070
1577.468776	489.758454
1579.371892	485.131319
1581.272780	467.111428
1583.175055	457.669440
1585.075103	451.351665
1586.976538	441.483739
1588.873940	436.835847
1590.770923	429.094701
1592.667488	409.736046
1594.565441	391.598948
1596.457559	378.981661
1598.352870	374.241512
1600.247764	349.818891
1602.140436	359.480155
1604.032692	367.356309
1605.922727	370.720691
1607.812348	378.216146
1609.701552	379.745637
1611.590342	386.304142
1613.476914	395.401393
1615.364874	403.951853
1617.248817	407.852389
1619.134148	408.736431
1621.019064	421.523952
1622.901767	425.839416
1624.785857	421.273647
1626.665936	413.573151
1628.547401	405.872957
1630.426656	390.248882
1632.307297	380.899693
1634.182134	373.236866
1636.061953	362.521260
1637.937766	358.968312
1639.813169	366.049612
1641.689958	374.375837
1643.560951	371.146567
1645.435125	374.431023
1647.305301	373.746044
1649.178657	373.960199
1651.049810	385.668703
1652.918761	374.785937
1654.789098	356.586130
1656.655441	344.909416
1658.523170	339.738920
1660.388701	317.885888
1662.255616	302.268203
1664.118543	276.122586
1665.982855	254.530435
1667.844971	244.483855
1669.706683	229.933301
1671.569779	224.629766
1673.430681	217.345559
1675.289389	225.442118
1677.147694	226.701978
1679.007384	235.011531
1680.861307	239.381195
1682.718402	246.574819
1684.575095	257.417315
1686.427812	254.888469
1688.283699	249.736754
1690.135613	227.726796
1691.987126	212.210538
1693.838238	197.939434
1695.688950	188.295049
1697.539261	171.912723
1699.387388	146.358987
1701.236898	119.466768
1703.080660	110.980887
1704.929371	95.868891
1706.772337	78.232988
1708.618468	61.141263
1710.460638	34.812147
1712.305972	16.989394
1714.145566	8.012299
1715.986544	0.000000
1717.828905	0.000000
1719.667310	0.000000
1721.507098	0.000000
1723.344711	0.000000
1725.181928	0.000000
1727.016972	0.000000
1728.853399	0.000000
1730.687654	0.000000
1732.521514	0.000000
1734.354981	0.000000
1736.184501	0.000000
1738.017180	0.000000
1739.845915	0.000000
1741.677808	0.000000
1743.505758	0.000000
1745.333316	0.000000
1747.160482	0.000000
1748.987257	0.000000
1750.813641	0.000000
1752.636087	0.000000
1754.461689	0.000000
1756.283356	0.000000
1758.106405	0.000000
1759.927292	0.000000
1761.747791	0.000000
1763.569671	0.000000
1765.385851	0.000000
1767.205183	0.000000
1769.020588	0.000000
1770.839143	0.000000
1772.653773	0.000000
1774.468017	0.000000
1776.281873	0.000000
1778.095343	0.000000
1779.906660	0.000000
1781.719358	0.000000
1783.531669	0.000000
