-116.516516	51.907366
-113.846916	53.511722
-111.180251	54.899104
-108.514338	56.083580
-105.851357	57.079218
-103.186947	57.900087
-100.525467	58.560252
-97.862557	59.073783
-95.204755	59.454747
-92.545523	59.717212
-89.887039	59.875245
-87.231479	59.942915
-84.574491	59.934289
-81.922601	59.863435
-79.269280	59.744421
-76.618880	59.591314
-73.967050	59.536475
-71.320311	59.066397
-68.672142	58.410881
-66.024717	59.381222
-63.380205	57.271251
-60.734265	58.127728
-58.093406	57.198109
-55.451118	58.097078
-52.811738	57.959015
-50.170930	56.494327
-47.530862	48.890727
-44.895866	20.171686
-42.259442	-74.777035
-39.625920	-262.476954
-36.990970	-384.478643
-34.361085	-278.903003
-31.727608	-36.533431
-29.099193	199.737567
-26.471512	418.904065
-23.842402	617.978714
-21.218349	795.748529
-18.590707	954.469977
-15.968118	1093.128941
-13.346261	1211.622520
-10.725134	1308.992901
-8.104737	1388.493518
-5.487229	1446.723157
-2.868291	1483.906320
-0.252240	1499.873061
2.363083	1496.050875
4.977679	1472.444605
7.589392	1428.419375
10.202534	1365.044787
12.810642	1283.647346
15.422332	1180.068217
18.028991	1058.984741
20.637078	916.138336
23.244441	755.283042
25.846779	573.428173
28.452695	373.895278
31.053589	157.113277
33.655911	-67.374851
36.253216	-273.444726
38.854096	-375.496936
41.449962	-266.679169
44.047255	-48.648316
46.643829	69.307908
49.235394	79.962585
51.828387	82.922732
54.418519	84.593801
57.010079	83.976438
59.598779	84.291223
62.188906	83.959187
64.774035	84.927697
67.360590	84.126251
69.946432	84.218809
72.529420	83.746355
75.113834	82.681798
77.691120	81.040641
80.271972	77.990242
82.849975	73.094691
85.427268	64.913854
88.005987	53.426706
90.579724	34.740965
93.154889	3.101871
95.727210	-42.329103
98.298823	-104.361584
100.867596	-178.466235
103.437796	-254.170230
106.005158	-304.626919
108.573945	-296.563677
111.139896	-207.154889
113.703012	-18.589898
116.269684	273.007776
118.827135	656.895480
121.390271	1137.244767
123.948447	1698.376307
126.510178	2325.176145
129.066952	3013.566650
131.625153	3745.464951
134.178401	4514.887572
136.730950	5303.217545
139.287050	6102.918657
141.838202	6902.804642
144.388657	7685.858782
146.938414	8446.588098
149.485353	9169.787420
152.031595	9844.108090
154.579263	10457.668561
157.126235	11003.129123
159.668272	11468.838710
162.209615	11844.242391
164.750265	12130.778613
167.292341	12318.389180
169.831605	12412.516493
172.368061	12420.185600
174.903825	12359.780180
177.441015	12258.141157
179.977514	12140.703903
182.511207	12029.624795
185.042097	11949.075741
187.572298	11886.599727
190.103924	11853.385297
192.632749	11832.104601
195.158775	11812.329154
197.684115	11805.921974
200.210881	11792.636515
202.734849	11779.448357
205.258133	11772.800647
207.780732	11769.128173
210.300538	11765.932733
212.819661	11756.222914
215.338101	11747.378481
217.857965	11741.999727
220.370828	11736.507766
222.887222	11732.918505
225.402934	11731.722672
227.913756	11731.296228
230.426004	11728.625756
232.935468	11732.448802
235.444254	11733.000991
237.952362	11738.456497
240.461893	11742.063748
242.966544	11739.161988
245.470519	11741.146294
247.975919	11738.610911
250.476443	11740.419233
252.980490	11740.728658
255.477566	11735.244575
257.978166	11719.485560
260.475994	11708.830145
262.973149	11690.794691
265.469631	11683.969876
267.961250	11666.159581
270.456389	11647.991809
272.948762	11631.291657
275.440464	11612.887592
277.929402	11595.336657
280.419765	11577.404945
282.907365	11555.635191
285.392206	11530.563970
287.880562	11505.196400
290.361978	11489.141379
292.846908	11480.402619
295.326993	11469.780028
297.810590	11460.979917
300.289344	11453.629801
302.769522	11451.207746
305.246947	11447.427566
307.723709	11446.282708
310.199808	11442.259298
312.673158	11442.553544
315.145846	11436.816655
317.617873	11434.819759
320.089239	11432.935716
322.557861	11428.507604
325.025823	11426.450238
327.495207	11420.618627
329.959769	11411.442391
332.427835	11399.939721
334.891081	11390.274062
337.353669	11377.338871
339.815601	11365.989827
342.276876	11352.846395
344.735417	11339.786955
347.195380	11323.703539
349.652610	11307.646213
352.109186	11283.183719
354.565108	11259.944534
357.018301	11232.659986
359.472915	11212.679290
361.922728	11191.757195
364.376037	11175.337314
366.824548	11152.013156
369.272408	11126.658014
371.721689	11102.876378
374.166177	11076.018890
376.612087	11062.707908
379.057348	11044.718687
381.499889	11020.565436
383.941783	11003.712772
386.383030	10986.482395
388.821561	10964.976428
391.261514	10949.127637
393.698753	10926.960724
396.133280	10913.433037
398.571295	10901.212054
401.004533	10893.617069
403.439192	10886.413803
405.869079	10880.690757
408.302451	10873.286166
410.731053	10870.940510
413.159014	10871.676914
415.588395	10871.281434
418.013011	10872.102012
420.439049	10874.611801
422.864446	10878.058965
425.289203	10876.487906
427.709202	10881.008798
430.130622	10885.701092
432.549345	10895.206826
434.969489	10900.468834
437.386938	10908.588391
439.805807	10910.859359
442.221983	10912.797027
444.633412	10918.768278
447.048317	10923.031763
449.460532	10929.688897
451.872113	10925.249540
454.283060	10921.179078
456.691321	10913.010790
459.098949	10901.850784
461.505945	10892.324623
463.912310	10881.932096
466.315992	10865.257579
468.719044	10853.621792
471.121466	10840.250885
473.523258	10823.251390
475.922373	10800.305461
478.322907	10785.553504
480.722812	10768.316716
483.117994	10745.213601
485.516643	10727.634695
487.910572	10709.323390
490.303875	10695.628395
492.696552	10676.544180
495.088604	10659.084174
497.482074	10643.774881
499.870833	10631.533603
502.256925	10620.329295
504.644436	10610.190525
507.031325	10595.376550
509.415550	10583.044403
511.801194	10573.043462
514.184175	10557.459480
516.564496	10552.161604
518.946236	10543.222520
521.325317	10536.442411
523.705817	10531.208434
526.083659	10524.409071
528.458846	10510.872919
530.833415	10509.623612
533.209403	10510.344757
535.582737	10501.413823
537.957489	10501.459581
540.327556	10498.963242
542.697007	10494.657417
545.067876	10488.646597
547.434065	10488.492335
549.801672	10487.967408
552.166633	10477.767509
554.530981	10470.612205
556.894717	10471.146668
559.259869	10463.049611
561.620350	10452.857680
563.982249	10441.982910
566.341507	10430.628072
568.698128	10421.165103
571.058193	10406.369987
573.411567	10391.645738
575.768386	10374.848822
578.122570	10360.502083
580.476146	10346.633755
582.829113	10335.460471
585.179449	10318.876155
587.531201	10312.894378
589.876277	10295.614076
592.226817	10279.672960
594.570683	10265.347032
596.920011	10251.373536
599.264691	10239.392790
601.606745	10228.311457
603.950217	10214.435393
606.291066	10196.360431
608.631313	10188.950430
610.968939	10179.184528
613.310000	10168.541106
615.646423	10159.892942
617.984263	10150.629558
620.319486	10141.005521
622.652093	10137.761563
624.986116	10139.658226
627.317526	10133.986268
629.648337	10129.399575
631.978550	10125.708140
634.308165	10123.087865
636.633158	10124.382698
638.963592	10121.078855
641.289404	10117.386278
643.612610	10117.469198
645.937231	10118.165881
648.259247	10119.892810
650.580670	10117.528901
652.899489	10119.297998
655.219724	10117.145697
657.539366	10110.119537
659.856407	10104.383345
662.172856	10092.747164
664.486707	10085.173486
666.801974	10074.254808
669.114644	10055.125109
671.428729	10042.126049
673.738214	10025.883497
676.049115	10012.763191
678.357423	10001.453281
680.665143	9984.379937
682.974277	9964.222480
685.278820	9947.387623
687.582775	9930.455395
689.886145	9921.322166
692.190929	9907.141905
694.491127	9894.955759
696.792739	9879.575498
699.093767	9865.146567
701.390212	9848.758287
703.688073	9844.259682
705.985350	9835.601830
708.282044	9821.881838
710.574162	9815.935413
712.869691	9808.075923
715.160646	9799.086298
717.453016	9795.499707
719.742811	9791.054970
722.032025	9791.088846
724.320660	9789.432096
726.606723	9788.099818
728.894199	9784.183992
731.179104	9777.878511
733.463432	9783.985762
735.745191	9787.061725
738.028364	9786.236050
740.310960	9789.225675
742.589000	9790.968490
744.868455	9794.564607
747.147334	9795.873688
749.425637	9796.940398
751.699391	9800.968804
753.974559	9799.772171
756.249153	9801.587279
758.521187	9803.478683
760.794635	9799.068116
763.065525	9799.535342
765.333859	9794.613449
767.603606	9788.341349
769.870799	9782.442542
772.137421	9781.714319
774.403473	9768.188078
776.666974	9758.285084
778.931888	9748.387946
781.196232	9735.505157
783.456047	9722.976014
785.717274	9713.216341
787.977934	9699.646132
790.236048	9692.977632
792.491617	9683.009374
794.750577	9668.470078
797.003038	9652.203064
799.260866	9643.177318
801.514174	9629.792193
803.764943	9620.440732
806.017124	9609.593821
808.266766	9600.545687
810.517821	9592.124269
812.764364	9579.699899
815.012319	9568.567317
817.257740	9561.319901
819.504572	9551.392800
821.750843	9540.800425
823.992610	9537.367297
826.237759	9524.474729
828.476436	9514.019213
830.718495	9510.307301
832.956056	9499.394185
835.195029	9491.445960
837.431475	9484.805582
839.669332	9481.676459
841.904664	9475.394135
844.137473	9473.422560
846.371693	9467.062332
848.603391	9461.594610
850.834533	9457.365871
853.065122	9457.364061
855.295155	9452.896461
857.524635	9454.809404
859.749633	9452.541491
861.978006	9444.991091
864.201900	9438.497705
866.427204	9435.470594
868.648033	9431.436141
870.872234	9428.949469
873.091962	9421.688361
875.313101	9416.409253
877.533689	9407.257974
879.751767	9401.521610
881.971255	9396.801820
884.186277	9389.177996
886.400752	9382.851694
888.614678	9370.839407
890.828058	9361.027445
893.040890	9348.838123
895.253176	9338.336212
897.462959	9333.792719
899.672197	9322.228304
901.880890	9311.958044
904.087084	9303.069239
906.294687	9293.384286
908.499792	9286.552766
910.704354	9281.465234
912.906421	9270.312276
915.109897	9265.489554
917.310879	9261.113014
919.511320	9257.234584
921.713168	9251.788472
923.908626	9251.083082
926.107443	9244.846911
928.301821	9237.849176
930.499557	9234.983254
932.692857	9234.415209
934.887566	9232.854556
937.079789	9230.042087
939.271474	9232.772950
941.462620	9238.720508
943.651284	9239.987360
945.839412	9244.475306
948.025059	9253.750308
950.214058	9259.021519
952.398634	9266.548084
954.582675	9267.307210
956.770066	9279.288250
958.949153	9284.890151
961.131591	9291.159814
963.313495	9300.703711
965.492924	9305.365821
967.669881	9311.256972
969.848246	9314.567449
972.028018	9322.167914
974.201441	9325.776661
976.378210	9328.963050
978.550572	9327.799666
980.724342	9332.017069
982.893708	9334.328779
985.066418	9334.899292
987.236663	9332.813975
989.406379	9329.536950
991.575566	9324.461897
993.740356	9320.124411
995.908487	9312.502558
998.072224	9304.414491
1000.237367	9296.203519
1002.400051	9287.208161
1004.562210	9279.883082
1006.721912	9269.503610
1008.881090	9256.480342
1011.041674	9249.982506
1013.199803	9240.105855
1015.357408	9230.304267
1017.514490	9220.603701
1019.671049	9212.017353
1021.823228	9204.744919
1023.976813	9197.861482
1026.129877	9192.284569
1028.280493	9183.893609
1030.432514	9179.187602
1032.580162	9174.785408
1034.731142	9168.080038
1036.877751	9169.623855
1039.023841	9165.848266
1041.169413	9169.625200
1043.316390	9171.364466
1045.457078	9175.838639
1047.601096	9180.146405
1049.742673	9186.970108
1051.883734	9192.446132
1054.026199	9198.338912
1056.162385	9206.394529
1058.301897	9211.323946
1060.437053	9216.934887
1062.575534	9225.813500
1064.709661	9235.964395
1066.843275	9242.371999
1068.978294	9246.432632
1071.108963	9249.813945
1073.241037	9258.272565
1075.370682	9263.967489
1077.499815	9268.873182
1079.628436	9278.155597
1081.756546	9281.171453
1083.882230	9288.778218
1086.007404	9292.443837
1088.133982	9295.490282
1090.256222	9293.547659
1092.379867	9298.556386
1094.499178	9300.630933
1096.623717	9303.772040
1098.742011	9300.930873
1100.861710	9304.229993
1102.978990	9300.551178
1105.095764	9300.221499
1107.212031	9296.648832
1109.325882	9299.388907
1111.441138	9298.388199
1113.552070	9296.725685
1115.666315	9291.005895
1117.776239	9289.056538
1119.887567	9285.203297
1121.998390	9282.034877
1124.104897	9281.275528
1126.214714	9279.555547
1128.320216	9273.781363
1130.427121	9265.578683
1132.527811	9257.879229
1134.633713	9257.145414
1136.735306	9258.728051
1138.838302	9255.606947
1140.940797	9259.050035
1143.037085	9261.575306
1145.138581	9263.110021
1147.235773	9267.429730
1149.332468	9264.755183
1151.428664	9268.345728
1153.524363	9273.493660
1155.619563	9281.562018
1157.712368	9280.280372
1159.806574	9283.554262
1161.894589	9287.296279
1163.987802	9293.348397
1166.074827	9293.778036
1168.165151	9297.835706
1170.251188	9299.386015
1172.340522	9308.810102
1174.423675	9309.116928
1176.508230	9310.532834
1178.594187	9316.416887
1180.675862	9318.245667
1182.758939	9322.191870
1184.839630	9329.851158
1186.919829	9338.623612
1188.999537	9347.138012
1191.078754	9351.541733
1193.155589	9362.689827
1195.230043	9376.920568
1197.307788	9392.652927
1199.381264	9406.906876
1201.456140	9421.512944
1203.526749	9438.106765
1205.598760	9453.726100
1207.668394	9466.250238
1209.739429	9483.410294
1211.809976	9498.729315
1213.876262	9516.141278
1215.943949	9527.895551
1218.009264	9541.606533
1220.075979	9555.614653
1222.138438	9568.964911
1224.204182	9585.105390
1226.265673	9600.907008
1228.328563	9620.639691
1230.389086	9638.360279
1232.449125	9654.829548
1234.508682	9677.888715
1236.565873	9696.137628
1238.622583	9712.671564
1240.676930	9733.010861
1242.734557	9755.514481
1244.789822	9787.047760
1246.840846	9813.684245
1248.893270	9846.200779
1250.945214	9876.370209
1252.994800	9909.473799
1255.043907	9949.703924
1257.092536	9988.284872
1259.140686	10032.374052
1261.188357	10077.265891
1263.231799	10128.324027
1265.278515	10178.920467
1267.322878	10236.836222
1269.366765	10297.401183
1271.408300	10369.408676
1273.447486	10446.317423
1275.489945	10520.505420
1277.528181	10596.555880
1279.567816	10674.338629
1281.606976	10743.407170
1283.641917	10785.507574
1285.678257	10793.634463
1287.712253	10739.925493
1289.747647	10517.849196
1291.778827	10055.191142
1293.811405	9805.625230
1295.843512	10168.867863
1297.873278	11084.393114
1299.904442	12501.226514
1301.931398	14370.967934
1303.959752	16638.168976
1305.983902	19243.945252
1308.011316	22138.563778
1310.034528	25274.349681
1312.059138	28602.979836
1314.081414	33074.424765
1316.105087	37691.838578
1318.126427	42079.792750
1320.147299	46052.924826
1322.167704	49500.532187
1324.183916	52365.698524
1326.201525	54610.088351
1328.216806	56204.417929
1330.235346	57117.921590
1332.249697	57356.903661
1334.261722	56911.682617
1336.277004	55782.277541
1338.288101	53995.557104
1340.300595	51577.185732
1342.308906	48558.230084
1344.320473	44986.829406
1346.326000	40956.739822
1348.334783	36582.953534
1350.339388	32036.857478
1352.347247	27661.530802
1354.354644	23907.880311
1356.356010	20678.757529
1358.358773	17698.530772
1360.361075	15024.125159
1362.362918	12706.983679
1364.364301	10799.954283
1366.363371	9358.160815
1368.361982	8437.894064
1370.360135	8099.109950
1372.357829	8389.279796
1374.351361	9347.846951
1376.346289	9646.606553
1378.340759	9735.259915
1380.334774	9740.329538
1382.326480	9712.918667
1384.317732	9676.472272
1386.306678	9639.163626
1388.297019	9591.323956
1390.286905	9539.601537
1392.274488	9494.291576
1394.261616	9452.770331
1396.246443	9407.256993
1398.232665	9373.563282
1400.216587	9341.223026
1402.200056	9312.924178
1404.183072	9281.283810
1406.163791	9259.603418
1408.145904	9236.624482
1410.125721	9219.444079
1412.105086	9198.803863
1414.080313	9184.597057
1416.058779	9172.390545
1418.034950	9158.632966
1420.010673	9145.303408
1421.985946	9126.966882
1423.958928	9109.975872
1425.931462	9095.791688
1427.903548	9082.117494
1429.875187	9067.096653
1431.842697	9048.062716
1433.815281	9031.853615
1435.780060	9016.809465
1437.749910	9007.861048
1439.715637	8992.947710
1441.682756	8980.458065
1443.647592	8966.793508
1445.608308	8956.436414
1447.574093	8944.487855
1449.533922	8929.442310
1451.495144	8917.632481
1453.457759	8908.200526
1455.416259	8889.738002
1457.374316	8876.650308
1459.331932	8858.713227
1461.289106	8850.236050
1463.244004	8837.266458
1465.200294	8828.260481
1467.154310	8816.602660
1469.107886	8805.621731
1471.059189	8793.940631
1473.011884	8787.946860
1474.962308	8778.522409
1476.912292	8762.288866
1478.861838	8749.149125
1480.809115	8737.195975
1482.754125	8730.869653
1484.700526	8721.357296
1486.646490	8710.918981
1488.592017	8702.765062
1490.535279	8694.878886
1492.478104	8683.628587
1494.418666	8674.281950
1496.360619	8666.823268
1498.300310	8646.144646
1500.239567	8639.216422
1502.178388	8632.697138
1504.114950	8631.201001
1506.052903	8624.398625
1507.988597	8615.251441
1509.923858	8611.104692
1511.856863	8605.696228
1513.789435	8596.535777
1515.721575	8588.174689
1517.653283	8584.439428
1519.582737	8587.272262
1521.513582	8583.336849
1523.443995	8580.528183
1525.370336	8577.700101
1527.298068	8578.252634
1529.223549	8580.566559
1531.148601	8581.556477
1533.073224	8581.071119
1534.997418	8575.574861
1536.919364	8576.097502
1538.842701	8577.727344
1540.763792	8580.465103
1542.682638	8577.323784
1544.602873	8575.432824
1546.520866	8571.045121
1548.438432	8568.055324
1550.353756	8568.943210
1552.270470	8571.727222
1554.183129	8566.781747
1556.098992	8563.814491
1558.012615	8568.066205
1559.924001	8568.534210
1561.836775	8565.434179
1563.745500	8558.387329
1565.655614	8554.119122
1567.565305	8551.918111
1569.474573	8544.281616
1571.381607	8536.044838
1573.286408	8520.395591
1575.192598	8512.244403
1577.096556	8504.626009
1579.000093	8491.111690
1580.903210	8474.807675
1582.804097	8463.333836
1584.706373	8445.852826
1586.606421	8431.329194
1588.507856	8411.384134
1590.405258	8391.787977
1592.302241	8371.195480
1594.198806	8356.759733
1596.096759	8344.086551
1597.988877	8326.637698
1599.884188	8314.531146
1601.779082	8302.758540
1603.671754	8296.456891
1605.564010	8298.038336
1607.454045	8293.372646
1609.343666	8289.389999
1611.232870	8285.985853
1613.121660	8284.744292
1615.008232	8284.352503
1616.896192	8287.579523
1618.780135	8285.103661
1620.665466	8288.664860
1622.550382	8294.682870
1624.433085	8296.587764
1626.317175	8293.837294
1628.197254	8290.971483
1630.078719	8286.549267
1631.957974	8290.104298
1633.838615	8288.578319
1635.713452	8288.641319
1637.593270	8283.187491
1639.469084	8286.959126
1641.344487	8278.650258
1643.221276	8279.930873
1645.092269	8275.728537
1646.966443	8272.523299
1648.836619	8265.682314
1650.709975	8264.362868
1652.581128	8256.302447
1654.450079	8250.623390
1656.320416	8246.985813
1658.186759	8235.541197
1660.054488	8232.909607
1661.920018	8227.354556
1663.786934	8216.204540
1665.649861	8211.006998
1667.514173	8204.203529
1669.376289	8199.693376
1671.238001	8193.584670
1673.101097	8184.333593
1674.961999	8174.240277
1676.820707	8169.110547
1678.679012	8158.321428
1680.538702	8147.385630
1682.392624	8133.728739
1684.249720	8126.636687
1686.106413	8117.471837
1687.959130	8110.804591
1689.815017	8101.947548
1691.666931	8098.111437
1693.518444	8088.309950
1695.369556	8083.433128
1697.220268	8075.575205
1699.070579	8073.473890
1700.918705	8064.453544
1702.768216	8059.337061
1704.611978	8053.861978
1706.460689	8053.069532
1708.303654	8044.835818
1710.149786	8041.054384
1711.991955	8036.782213
1713.837290	8034.900708
1715.676884	8035.220589
1717.517862	8031.795723
1719.360223	8032.266721
1721.198628	8033.532400
1723.038416	8035.059885
1724.876029	8036.716463
1726.713246	8029.956962
1728.548290	8028.975447
1730.384717	8025.080008
1732.218972	8025.945990
1734.052832	8026.278835
1735.886299	8024.185115
1737.715819	8025.648347
1739.548498	8026.402720
1741.377233	8022.283932
1743.209125	8029.723157
1745.037076	8031.903984
1746.864634	8032.748165
1748.691800	8031.233623
1750.518575	8034.833391
1752.344959	8034.341693
1754.167405	8035.105451
1755.993007	8033.167752
1757.814674	8036.056457
1759.637723	8034.449146
1761.458610	8035.818849
1763.279109	8034.623339
1765.100989	8035.773991
1766.917169	8040.830094
1768.736501	8041.689766
1770.551906	8043.301183
1772.370461	8045.743958
1774.185091	8047.824826
1775.999335	8047.331004
1777.813191	8044.851057
1779.626661	8040.868298
1781.437978	8037.685256
1783.250676	8040.777763
1785.062987	8040.564961
1786.871381	8042.741015
1788.681155	8045.862099
1790.487015	8044.619577
1792.296020	8047.354869
1794.101112	8050.070179
1795.907585	8052.666903
1797.713674	8055.281909
1799.515853	8052.926393
1801.321175	8049.922156
1803.122589	8051.000081
1804.925383	8051.833825
1806.724271	8046.095672
1808.524540	8044.048559
1810.324427	8037.842542
1812.122173	8034.701294
1813.919537	8032.629052
1815.716522	8031.325958
1817.513126	8028.536091
1819.307591	8025.385175
1821.103435	8024.366943
1822.893625	8017.928881
1824.688710	8012.368571
1826.478144	8005.694600
1828.270714	7998.932663
1830.061149	7994.081424
1831.849450	7987.121276
1833.640886	7983.588432
1835.426676	7981.107786
1837.213846	7980.006350
1838.998884	7976.868419
1840.787056	7975.134907
1842.571342	7979.821246
1844.353499	7977.996491
1846.137034	7980.149520
1847.918441	7984.392729
1849.701227	7983.071504
1851.480132	7988.001689
1853.260417	7993.023642
1855.038575	7998.302478
1856.818112	8004.481970
1858.595524	8003.663930
1860.370812	8004.614622
1862.147478	8014.883204
1863.922022	8021.795237
1865.697944	8027.336141
1867.468245	8036.052574
1869.241674	8041.226888
1871.012983	8044.433199
1872.783922	8045.909131
1874.556237	8051.414420
1876.322939	8052.385641
1878.092767	8055.144635
1879.858731	8057.135272
1881.627818	8053.956477
1883.393045	8053.586268
1885.157902	8048.030681
1886.924137	8042.760977
1888.686513	8036.780311
1890.448522	8032.379593
1892.210163	8031.260714
1893.971438	8025.992092
1895.732345	8023.224795
1897.492886	8015.468207
1899.251317	8009.567186
1901.009382	8005.723824
1902.765340	8004.084579
1904.522674	8005.306745
1906.279643	8002.892426
1908.034505	7999.975882
1909.787263	7999.402174
1911.539657	7996.128992
1913.293426	8000.881727
1915.045092	8005.649692
1916.794656	8007.174740
1918.545595	8009.561917
1920.296172	8010.382840
1922.042909	8011.344120
1923.791023	8016.467186
1925.537037	8019.181940
1927.284427	8030.210658
1929.029718	8034.870654
1930.772912	8041.189301
1932.517481	8044.764809
1934.259955	8047.417909
1936.002068	8051.910709
1937.743821	8056.996542
1939.485215	8065.101426
1941.224514	8075.208191
1942.963455	8085.752290
1944.702037	8095.925635
1946.438528	8101.383962
1948.174661	8110.987218
1949.912168	8122.515249
1951.645853	8130.222975
1953.380913	8139.467752
1955.113885	8149.805410
1956.846499	8157.797887
1958.578758	8161.084599
1960.310660	8169.114885
1962.040476	8181.272616
1963.768207	8186.276347
1965.497313	8191.811720
1967.226064	8202.176701
1968.952731	8211.137921
1970.679044	8214.173556
1972.406730	8218.676782
1974.128880	8225.651926
1975.854131	8230.622318
1977.575576	8232.874831
1979.300120	8243.079169
1981.022585	8244.600233
1982.741246	8245.137112
1984.463006	8250.563060
1986.180964	8253.417484
1987.900295	8257.378967
1989.615827	8263.385752
1991.336179	8272.732925
1993.052733	8278.175599
1994.765490	8281.895116
1996.481344	8286.046041
1998.195124	8295.289261
1999.908555	8300.451259
2001.619915	8306.764152
2003.332647	8306.696238
2005.041589	8313.264051
2006.753624	8318.381960
2008.460149	8325.278238
2010.169766	8330.122217
2011.877317	8339.483254
2013.584520	8346.681697
2015.289656	8353.130529
2016.994447	8361.264364
2018.700609	8372.615664
2020.402989	8376.819092
2022.106741	8383.330519
2023.808429	8392.542431
2025.509773	8396.068682
2027.210771	8402.688229
2028.909708	8410.288310
2030.610017	8419.889857
2032.306551	8424.002184
2034.004456	8427.971473
2035.700302	8437.647861
2037.399234	8437.639175
2039.092680	8440.942209
2040.787497	8439.975801
2042.481972	8444.279098
2044.172678	8442.759349
2045.866468	8443.471564
2047.556491	8443.256254
2049.247885	8437.569825
2050.937226	8425.221367
2052.627937	8418.117535
2054.314885	8408.044221
2056.001494	8396.519780
2057.689473	8382.811659
2059.373691	8374.752503
2061.059281	8364.147892
2062.744531	8356.936343
2064.427733	8355.789574
2066.112304	8347.086146
2067.791413	8342.099919
2069.475307	8337.795551
2071.153741	8332.599666
2072.835251	8329.910790
2074.513011	8326.383648
2076.190433	8323.378754
2077.869225	8321.614309
2079.545975	8323.625169
2081.220683	8321.864941
2082.896760	8323.728820
2084.570797	8324.354980
2086.244498	8331.387612
2087.917864	8332.615361
2089.589192	8338.556649
2091.260185	8344.118212
2092.930844	8353.886510
2094.601168	8364.005734
2096.271159	8372.524350
2097.939114	8378.305845
2099.606736	8384.389837
2101.272323	8394.947042
2102.939279	8410.117636
2104.604202	8420.717737
2106.268793	8431.257781
2107.931352	8445.897512
2109.595279	8465.507372
2111.257176	8477.667044
2112.918741	8496.630448
2114.579975	8513.223723
2116.239181	8523.825210
2117.898056	8537.057640
2119.556602	8546.347528
2121.214818	8557.620224
2122.869310	8564.901911
2124.526867	8579.851684
2126.184095	8593.119284
2127.837601	8606.050015
2129.492475	8619.967307
2131.143631	8629.034655
2132.797848	8642.649348
2134.448349	8651.272474
2136.100216	8666.889665
2137.746675	8672.975660
2139.397889	8686.141582
2141.045389	8698.835322
2142.694256	8711.830539
2144.341105	8724.948114
2145.987627	8733.793609
2147.633824	8745.026363
2149.276313	8753.057913
2150.921860	8760.223794
2152.563700	8772.789180
2154.208597	8777.871473
2155.849789	8794.352715
2157.490657	8808.998382
2159.131201	8826.211740
2160.769733	8842.160997
2162.409631	8863.099110
2164.045829	8882.210102
2165.683394	8903.213419
2167.320635	8920.909940
2168.955867	8944.503337
2170.590778	8965.272697
2172.225367	8984.729224
2173.859634	9008.212762
2175.490208	9025.536667
2177.123834	9043.186439
2178.753768	9056.129194
2180.385067	9068.573132
2182.014361	9077.412964
2183.643336	9081.922055
2185.271991	9087.970948
2186.900327	9087.378562
2188.526661	9092.947295
2190.152676	9086.160421
2191.776690	9078.517707
2193.402068	9066.223450
2195.025447	9057.040368
2196.650189	9050.339286
2198.271251	9035.666984
2199.891996	9033.200030
2201.514106	9029.533876
2203.134218	9025.488138
2204.752333	9030.817302
2206.370133	9028.320851
2207.987618	9034.648316
2209.604787	9038.815917
2211.221641	9045.553251
2212.838179	9057.665942
2214.452725	9073.412266
2216.065278	9086.106775
2217.679195	9102.146526
2219.291121	9120.955617
2220.904410	9140.023289
2222.515709	9161.696643
2224.125018	9186.355112
2225.735691	9207.690909
2227.344375	9228.482243
2228.952746	9252.926706
2230.559131	9276.292659
2232.166879	9301.921013
2233.772640	9330.097037
2235.378090	9361.329760
2236.981555	9390.985984
2238.586383	9421.029497
2240.189227	9455.039630
2241.790089	9490.650248
2243.392312	9526.428203
2244.992554	9560.773567
2246.594158	9589.644423
2248.192110	9620.897118
2249.791424	9650.141470
2251.388758	9678.234533
2252.985783	9702.997654
2254.584171	9727.687946
2256.178910	9751.330134
2257.771672	9773.237678
2259.365797	9792.633947
2260.961283	9810.962564
2262.553125	9825.026140
2264.144660	9829.905815
2265.737556	9839.773546
2267.325143	9844.830064
2268.917427	9845.793457
2270.504403	9849.308949
2272.094407	9850.949014
2273.679108	9853.131965
2275.268501	9853.871150
2276.852593	9857.228577
2278.438046	9857.947467
2280.021529	9862.299828
2281.608039	9867.146132
2283.190914	9870.822308
2284.773487	9879.061796
2286.355756	9887.349995
2287.934396	9894.336687
2289.516059	9901.815391
2291.094094	9906.458661
2292.675152	9918.702346
2294.252583	9928.046708
2295.828051	9942.704925
2297.406541	9960.730003
2298.981407	9970.982304
2300.555972	9993.990323
2302.130237	10012.459329
2303.704201	10029.396805
2305.277865	10055.343442
2306.851228	10076.180605
2308.420973	10099.186086
2309.990419	10123.941137
2311.562883	10155.632005
2313.130073	10187.309698
2314.700281	10223.002336
2316.266874	10265.039943
2317.834827	10307.505835
2319.400824	10348.028961
2320.966524	10386.595480
2322.531927	10419.408777
2324.095375	10459.205056
2325.660183	10498.459126
2327.221383	10536.648812
2328.785597	10567.624431
2330.344549	10598.691556
2331.906516	10627.272161
2333.466532	10651.554839
2335.026252	10673.143756
2336.584023	10692.719466
2338.141499	10706.953312
2339.698681	10723.915229
2341.253915	10732.792375
2342.808856	10739.486793
2344.363503	10746.806644
2345.917855	10749.499039
2347.471915	10755.052149
2349.025680	10753.284872
2350.577502	10759.882637
2352.127380	10761.686369
2353.680266	10763.300496
2355.227910	10767.157994
2356.778561	10776.190545
2358.325621	10783.763262
2359.874039	10791.685034
2361.422166	10807.631752
2362.966704	10816.142734
2364.512600	10829.033593
2366.056558	10835.052402
2367.601873	10849.882688
2369.143603	10863.721802
2370.686690	10883.834918
2372.227841	10899.144302
2373.768704	10914.412661
2375.309276	10930.312741
2376.849560	10949.942249
2378.389555	10969.625392
2379.925972	10992.689220
2381.465390	11012.892982
2383.001231	11036.024987
2384.538428	11054.247801
2386.072050	11079.559420
2387.608673	11105.608474
2389.143364	11129.283436
2390.676126	11158.469603
2392.208601	11183.302275
2393.739148	11210.255415
2395.272693	11238.884680
2396.801027	11266.510638
2398.330718	11294.213045
2399.860123	11330.876681
2401.389242	11367.996693
2402.918077	11400.160036
2404.441706	11433.433694
2405.969972	11464.740297
2407.493034	11494.670765
2409.020730	11517.685904
2410.541587	11547.971605
2412.067077	11574.152250
2413.589006	11605.971999
2415.112291	11631.675083
2416.633654	11664.230893
2418.153099	11698.169795
2419.673898	11728.990848
2421.192778	11759.228860
2422.711376	11791.828203
2424.228057	11822.791293
2425.746092	11850.040560
2427.263846	11882.194216
2428.778049	11913.083851
2430.291971	11939.513763
2431.805613	11970.483942
2433.320610	12004.205724
2434.832058	12035.887036
2436.344861	12079.436677
2437.855750	12127.813975
2439.366361	12186.108949
2440.875060	12247.217100
2442.386745	12315.921104
2443.894887	12387.095611
2445.402751	12461.374244
2446.910337	12534.437264
2448.414382	12597.298574
2449.921413	12662.124401
2451.426535	12719.042097
2452.931380	12774.585246
2454.434317	12828.394681
2455.936979	12877.563727
2457.439364	12911.612792
2458.939844	12943.787259
2460.441677	12961.706846
2461.941605	12974.823723
2463.441259	12975.747558
2464.940636	12965.517059
2466.438111	12945.283113
2467.933684	12918.965942
2469.432237	12880.352280
2470.927262	12842.932561
2472.423639	12801.376479
2473.916490	12747.470048
2475.410694	12693.156325
2476.904624	12646.695055
2478.395030	12602.149024
2479.888414	12563.292385
2481.379900	12525.318050
2482.869489	12496.257579
2484.358806	12472.058580
2485.846228	12445.554475
2487.336625	12426.033320
2488.823503	12406.266448
2490.311733	12389.906897
2491.796447	12370.981080
2493.280890	12349.461482
2494.766685	12329.811710
2496.250587	12312.882182
2497.735841	12293.296724
2499.215960	12269.839519
2500.699053	12244.437223
2502.180255	12216.426373
2503.661188	12186.149550
2505.140232	12152.080544
2506.619007	12118.109667
2508.097514	12076.709445
2509.575753	12031.753858
2511.053723	11985.532925
2512.528188	11938.917626
2514.005623	11892.702427
2515.479554	11847.662109
2516.954835	11798.196238
2518.429850	11747.383911
2519.901363	11704.949479
2521.374226	11664.397199
2522.845207	11621.532551
2524.317538	11580.075326
2525.784755	11540.074669
2527.254939	11507.869714
2528.723242	11479.689241
2530.191280	11455.915907
2531.659053	11435.366539
2533.126561	11419.825655
2534.593804	11404.014804
2536.057555	11391.247730
2537.522656	11381.423369
2538.985880	11382.609849
2540.450454	11387.258115
2541.911538	11389.195985
2543.373972	11389.249762
2544.836143	11395.767742
2546.294828	11397.770543
2547.758085	11398.375953
2549.216245	11399.112843
2550.675754	11393.482122
2552.130169	11387.535292
2553.589155	11385.984083
2555.046269	11383.025908
2556.501512	11375.460613
2557.956494	11369.941167
2559.409606	11362.178208
2560.864067	11359.539579
2562.316659	11355.827900
2563.768991	11354.077116
2565.219455	11351.345950
2566.672875	11342.115694
2568.121213	11333.277864
2569.572507	11325.128476
2571.021934	11315.993033
2572.467889	11310.876469
2573.916799	11303.187350
2575.362239	11297.628820
2576.809027	11292.335909
2578.253951	11290.018293
2579.698617	11286.872019
2581.144632	11290.090444
2582.587179	11287.454495
2584.031074	11284.057053
2585.471504	11278.840186
2586.913281	11276.447993
2588.353199	11280.098837
2589.794464	11279.098766
2591.232267	11278.014825
2592.673021	11276.027910
2594.108711	11283.157609
2595.547351	11283.196360
2596.984133	11286.257953
2598.419060	11288.534483
2599.856934	11294.827697
2601.289751	11300.494701
2602.723915	11305.325220
2604.156225	11311.520224
2605.589881	11320.215239
2607.021684	11326.627687
2608.453233	11330.857569
2609.884530	11333.138629
2611.313974	11334.805835
2612.743166	11334.066731
2614.170508	11333.040560
2615.599195	11331.970826
2617.027631	11337.112114
2618.452619	11345.717626
2619.878954	11342.978876
2621.303440	11351.369724
2622.729272	11350.493366
2624.151660	11354.321418
2625.575394	11357.179270
2626.997281	11362.948397
2628.418919	11365.243341
2629.838711	11371.024269
2631.259849	11374.136131
2632.680737	11374.633866
2634.098187	11378.969512
2635.518576	11380.125139
2636.935528	11389.540368
2638.352231	11389.719729
2639.768687	11397.052877
2641.184893	11400.895975
2642.600852	11401.240975
2644.014970	11404.150217
2645.428841	11405.363444
2646.840872	11418.377844
2648.254248	11438.084366
2649.664194	11467.763212
2651.077075	11506.380251
2652.486528	11549.129720
2653.895735	11587.436303
2655.303106	11624.036131
2656.713412	11655.806077
2658.121881	11682.897836
2659.528515	11708.572515
2660.934904	11718.776307
2662.339459	11713.839458
2663.745358	11713.891637
2665.149424	11694.160886
2666.553245	11668.145434
2667.956823	11636.145485
2669.358568	11585.732106
2670.761657	11532.946476
2672.161328	11478.312377
2673.562343	11410.623572
2674.959942	11342.574669
2676.360471	11269.797624
2677.757585	11192.976135
2679.156042	11119.606745
2680.552671	11047.315725
2681.949058	10971.576974
2683.345204	10897.754657
2684.739523	10835.828122
2686.135184	10785.283234
2687.527437	10746.618586
2688.921032	10723.395632
2690.312803	10708.558924
2691.705917	10709.881070
2693.097207	10708.561129
2694.486674	10706.114258
2695.875901	10711.612782
2697.264889	10713.766134
2698.655219	10715.522662
2700.040564	10719.419062
2701.428833	10729.142461
2702.815282	10734.946638
2704.201492	10739.848680
2705.587464	10751.635039
2706.970036	10756.460158
2708.353951	10766.261361
2709.737628	10777.297856
2711.121067	10784.734129
2712.501110	10795.793589
2713.882495	10808.368086
2715.262064	10816.405966
2716.642975	10828.134786
2718.022070	10834.407453
2719.399352	10844.861361
2720.777975	10860.124724
2722.154785	10873.366690
2723.531359	10881.861978
2724.907697	10897.485691
2726.282223	10909.776337
2727.658090	10918.660168
2729.030570	10931.341127
2730.405966	10932.108585
2731.776402	10939.095197
2733.148179	10944.078228
2734.519721	10947.525291
2735.889455	10957.155830
2737.260530	10971.206340
2738.629796	10976.955071
2739.998829	10992.901315
2741.366056	11003.918354
2742.733050	11015.578431
2744.099811	11023.367418
2745.466339	11030.328618
2746.831062	11040.825402
2748.195554	11047.798787
2749.559813	11054.478886
2750.923840	11054.800000
2752.287636	11058.844413
2753.648058	11061.126929
2755.011391	11062.941764
2756.369781	11067.647335
2757.731081	11068.356052
2759.089010	11074.430549
2760.449848	11080.232551
2761.808887	11084.669825
2763.164557	11084.047902
2764.523135	11087.961341
2765.878346	11091.439610
2767.233328	11094.543776
2768.586514	11095.958196
2769.942606	11102.687835
2771.295333	11101.894873
2772.647833	11108.251926
2774.000104	11115.690929
2775.353714	11123.916230
2776.703962	11130.662817
2778.052417	11137.955759
2779.403776	11149.729406
2780.751776	11160.605754
2782.101114	11171.147851
2783.448661	11179.397189
2784.795980	11189.724947
2786.143073	11195.051714
2787.488375	11207.079877
2788.833451	11210.832046
2790.178300	11215.475407
2791.522924	11224.802609
2792.864196	11239.068794
2794.206806	11251.881980
2795.549190	11268.583284
2796.891350	11292.822550
2798.230160	11305.162787
2799.571869	11325.060148
2800.910231	11341.994489
2802.249930	11357.901547
2803.587843	11368.619062
2804.923972	11387.608808
2806.259877	11409.626878
2807.597120	11427.920760
2808.932579	11440.148731
2810.267815	11459.478491
2811.601268	11473.027354
2812.936059	11488.484882
2814.267508	11504.782445
2815.601853	11511.490383
2816.931300	11519.920720
2818.262084	11525.628274
2819.592646	11535.606755
2820.921429	11540.505612
2822.251548	11542.340914
2823.579889	11541.640257
2824.908009	11544.669673
2826.234351	11545.933947
2827.562030	11551.201416
2828.886375	11547.694812
2830.212057	11552.798422
2831.535963	11552.262342
2832.859650	11556.044049
2834.184672	11558.423653
2835.506364	11559.446304
2836.827838	11565.605946
2838.149093	11564.740520
2839.470129	11570.595116
2840.789393	11573.349823
2842.109992	11570.293043
2843.428819	11575.035464
2844.747428	11583.407786
2846.064266	11592.656699
2847.380887	11598.377945
2848.697291	11605.690393
2850.011925	11620.697998
2851.327895	11635.981838
2852.640544	11647.633613
2853.954529	11658.836839
2855.268296	11675.356194
2856.581848	11691.281808
2857.893632	11707.691202
2859.203650	11725.134786
2860.515003	11743.014400
2861.823041	11767.310436
2863.132413	11796.566063
2864.441571	11822.063798
2865.750513	11845.944191
2867.057691	11865.006270
2868.363107	11888.984599
2869.669857	11911.979442
2870.974844	11932.985256
2872.279618	11958.356770
2873.582630	11970.759703
2874.888524	11990.144555
2876.189562	12008.986197
2877.491935	12021.176196
2878.792548	12032.342593
2880.094495	12041.993589
2881.396229	12048.627020
2882.694658	12062.059187
2883.994421	12067.556568
2885.292427	12072.274962
2886.590221	12075.153918
2887.886259	12076.027748
2889.183630	12076.306148
2890.479245	12078.750804
2891.774649	12074.696370
2893.069842	12078.489069
2894.361738	12079.645455
2895.656510	12076.176206
2896.947985	12072.607372
2898.240793	12069.478360
2899.533391	12071.207675
2900.822695	12076.135595
2902.113331	12073.219608
2903.402216	12075.034685
2904.692434	12073.535332
2905.979359	12075.472909
2907.267618	12082.969148
2908.554126	12088.375670
2909.840427	12094.702508
2911.126519	12095.474497
2912.410863	12097.186915
2913.698078	12107.436647
2914.980467	12111.883780
2916.264188	12116.183820
2917.546163	12119.568500
2918.827930	12124.909506
2920.107953	12131.240783
2921.390845	12130.859258
2922.671992	12129.670553
2923.949857	12129.120194
2925.230591	12128.092932
2926.508044	12126.704733
2927.785291	12122.289200
2929.060797	12123.197826
2930.339170	12117.271241
2931.612728	12112.899282
2932.889154	12101.200071
2934.163839	12095.879381
2935.436784	12087.413105
2936.711059	12085.362281
2937.983595	12083.605238
2939.255927	12080.593397
2940.524985	12069.686955
2941.796909	12066.115987
2943.067095	12061.936910
2944.337078	12055.785226
2945.606857	12055.536434
2946.874899	12052.067317
2948.141206	12048.151461
2949.407310	12049.260815
2950.674744	12051.632046
2951.940444	12051.702417
2953.205941	12051.955597
2954.471236	12053.801244
2955.733266	12054.761129
2956.996627	12060.352351
2958.259785	12062.057872
2959.521212	12070.493397
2960.783968	12078.968521
2962.044993	12083.267570
2963.304286	12090.690333
2964.563380	12099.324522
2965.822273	12100.040237
2967.080966	12107.834483
2968.339459	12110.616827
2969.596223	12120.234554
2970.852787	12125.347629
2972.107624	12134.147871
2973.363789	12141.986884
2974.616700	12148.856558
2975.870940	12158.533664
2977.124981	12163.196997
2978.377296	12163.553736
2979.629412	12171.590100
2980.879804	12172.857134
2982.133051	12174.076519
2983.381521	12182.028244
2984.632846	12188.316817
2985.880921	12196.619223
2987.128800	12205.138224
2988.376481	12209.891172
2989.623965	12216.136131
2990.869728	12227.200829
2992.115295	12228.945717
2993.362189	12236.553059
2994.605839	12249.198220
2995.850817	12254.060380
2997.092551	12263.207048
2998.337137	12262.439195
2999.580004	12267.482799
3000.819630	12278.045576
3002.062106	12285.553433
3003.301343	12285.348407
3004.541906	12293.383911
3005.780754	12298.801567
3007.019406	12308.376722
3008.256344	12304.560036
3009.494608	12309.923420
3010.731158	12312.204156
3011.967513	12317.823147
3013.203675	12326.289220
3014.438124	12321.790707
3015.672379	12324.350885
3016.906441	12323.446294
3018.138791	12323.417818
3019.369429	12326.186884
3020.602913	12329.416412
3021.834685	12331.216190
3023.064747	12330.414764
3024.294617	12331.192254
3025.522777	12338.803327
3026.752263	12345.462534
3027.980040	12347.910699
3029.207627	12352.522217
3030.436539	12364.587916
3031.660709	12367.308009
3032.887722	12365.276782
3034.111511	12372.157943
3035.336627	12374.215816
3036.560036	12379.107463
3037.783255	12387.135100
3039.004769	12383.546668
3040.229124	12380.695874
3041.448744	12386.811498
3042.669690	12394.320973
3043.890447	12396.443887
3045.109500	12392.237840
3046.329879	12400.311285
3047.547041	12401.781009
3048.765528	12406.265022
3049.982313	12413.511680
3051.198911	12413.625544
3052.415320	12418.216291
3053.628517	12413.933118
3054.844551	12417.753347
3056.057373	12423.384033
3057.273032	12426.694514
3058.483968	12429.659844
3059.696229	12432.606376
3060.908304	12440.814804
3062.120192	12453.546066
3063.330382	12460.403661
3064.540386	12465.864076
3065.750204	12476.566609
3066.958327	12485.988507
3068.166263	12491.869845
3069.372504	12504.645085
3070.580070	12514.912418
3071.785941	12519.580509
3072.991628	12528.478592
3074.197129	12533.946643
3075.400937	12539.774274
3076.606069	12553.100197
3077.809509	12569.030357
3079.011256	12578.022414
3080.212820	12579.726514
3081.414199	12583.013222
3082.615396	12583.014612
3083.814901	12583.462438
3085.014224	12584.748337
3086.214870	12589.760031
3087.413826	12583.630124
3088.609588	12581.640393
3089.808179	12582.917150
3091.003576	12585.276550
3092.200296	12586.358236
3093.393824	12577.563566
3094.590180	12580.034857
3095.784850	12580.937587
3096.976329	12587.402710
3098.172139	12585.790039
3099.363256	12584.120700
3100.555695	12582.618647
3101.744947	12586.123956
3102.937025	12587.188472
3104.127418	12584.037951
3105.314626	12587.145192
3106.503157	12581.239812
3107.693009	12578.662827
3108.879678	12578.018799
3110.066167	12578.885054
3111.252476	12586.546082
3112.440107	12587.959227
3113.624557	12587.714380
3114.807326	12581.165022
3115.992918	12577.908545
3117.176831	12577.133330
3118.359065	12578.060704
3119.541120	12583.565093
3120.722998	12586.003600
3121.904697	12593.720144
3123.084718	12592.209061
3124.263063	12597.499474
3125.444228	12605.401608
3126.622219	12606.413055
3127.800032	12611.669491
3128.977668	12621.307706
3130.153629	12642.153544
3131.329413	12654.505016
3132.506519	12668.199434
3133.681950	12675.783426
3134.855708	12685.921853
3136.027793	12693.137739
3137.201200	12704.836647
3138.374430	12712.355547
3139.545989	12726.223794
3140.718868	12740.485064
3141.888581	12751.057953
3143.059613	12765.568116
3144.228976	12777.276964
3145.396669	12786.288330
3146.567177	12791.000587
3147.733026	12786.964840
3148.903185	12782.453848
3150.068686	12772.785175
3151.234014	12762.718809
3152.399168	12749.485914
3153.564148	12730.801517
3154.730448	12713.042765
3155.892096	12690.919365
3157.055063	12668.798605
3158.217858	12645.929538
3159.380480	12630.005056
3160.541437	12610.341531
3161.702221	12592.009809
3162.862833	12584.782627
3164.021781	12576.783082
3165.180558	12570.163727
3166.339163	12560.422156
3167.497596	12554.062029
3168.655857	12550.855304
3169.812456	12547.269633
3170.967394	12549.058782
3172.123651	12560.575953
3173.278247	12570.123359
3174.432673	12587.567004
3175.585439	12605.205248
3176.738035	12630.163424
3177.890460	12657.149075
3179.042716	12682.241309
3180.194801	12708.127465
3181.343741	12729.010203
3182.495487	12754.596673
3183.645575	12783.824290
3184.794007	12805.318687
3185.942270	12832.395723
3187.090363	12861.200839
3188.238288	12883.670230
3189.384558	12911.116129
3190.530659	12929.734877
3191.675105	12954.101406
3192.819384	12981.508484
3193.963495	12998.870654
3195.108923	13017.415755
3196.251213	13038.349135
3197.393336	13059.031894
3198.535291	13074.701062
3199.677079	13089.620882
3200.818701	13102.665568
3201.957186	13113.466690
3203.096989	13128.133037
3204.238110	13134.693751
3205.376096	13142.925341
3206.512433	13153.517686
3207.648604	13154.725968
3208.786093	13158.593993
3209.921932	13158.793478
3211.059089	13156.866710
3212.191633	13148.314329
3213.328459	13140.823774
3214.460673	13123.068945
3215.594204	13102.007665
3216.727571	13090.084741
3217.857810	13076.929427
3218.990847	13057.118111
3220.120758	13047.689746
3221.251985	13027.918869
3222.380088	13008.236364
3223.510987	12991.544797
3224.640242	12980.373344
3225.767854	12967.614552
3226.892344	12960.615735
3228.021108	12947.727435
3229.146751	12941.867024
3230.272232	12936.532723
3231.396071	12942.793741
3232.522704	12945.461978
3233.644740	12958.625281
3234.768092	12969.817737
3235.891282	12989.880767
3237.014310	13018.606462
3238.135698	13046.159642
3239.256925	13077.145293
3240.376513	13108.815239
3241.495940	13134.905815
3242.613729	13165.277379
3243.734310	13191.332481
3244.851778	13223.302194
3245.969085	13250.241288
3247.086232	13285.013803
3248.201743	13307.443189
3249.318569	13339.462554
3250.432284	13368.718981
3251.548789	13395.826696
3252.663660	13420.203044
3253.775422	13449.069835
3254.887024	13465.866741
3255.999942	13493.642047
3257.112701	13514.622328
3258.222353	13536.288078
3259.333319	13547.090929
3260.444127	13563.050329
3261.553304	13570.912812
3262.660849	13576.295156
3263.769708	13587.244999
3264.878410	13608.949914
3265.984009	13617.310871
3267.090922	13631.889989
3268.196206	13643.025271
3269.302805	13662.966458
3270.406303	13687.196663
3271.511115	13710.923117
3272.615770	13728.301628
3273.717326	13746.420831
3274.818726	13756.048640
3275.921441	13769.415512
3277.023998	13773.818687
3278.123459	13789.121721
3279.225704	13795.416837
3280.324853	13795.298331
3281.422378	13795.653767
3282.519747	13798.131368
3283.619899	13797.722287
3284.716957	13796.085853
3285.813860	13804.932359
3286.910608	13806.014370
3288.002798	13805.220224
3289.099236	13808.573445
3290.194052	13806.668571
3291.288714	13800.833330
3292.381754	13795.096703
3293.474640	13792.084013
3294.565905	13786.924745
3295.658483	13779.401628
3296.749440	13784.495621
3297.838778	13784.558044
3298.927963	13786.641480
3300.018461	13789.943098
3301.105874	13798.147952
3302.193135	13810.080433
3303.281708	13825.219537
3304.370128	13838.172990
3305.454001	13844.461917
3306.542116	13855.482344
3307.627150	13864.440631
3308.710567	13880.304722
3309.795297	13893.344757
3310.878412	13912.062666
3311.962838	13924.378896
3313.044186	13935.205137
3314.126846	13958.705966
3315.207892	13977.006907
3316.288787	13993.205137
3317.368068	14009.326322
3318.447200	14034.273587
3319.527642	14043.206401
3320.605010	14054.959743
3321.683690	14066.082091
3322.760759	14079.143291
3323.837677	14084.753827
3324.912984	14092.764011
3325.988142	14094.988239
3327.064611	14092.520983
3328.138010	14090.619163
3329.211260	14089.178663
3330.285820	14084.614643
3331.358772	14083.047143
3332.430115	14074.646456
3333.502770	14067.494438
3334.572357	14058.027728
3335.643255	14048.946385
3336.712546	14037.439337
3337.783148	14017.944251
3338.852143	14004.723885
3339.919532	13992.887784
3340.985316	13980.865770
3342.055326	13972.272171
3343.122273	13956.289352
3344.186158	13945.656790
3345.252811	13934.200142
3346.317859	13930.143917
3347.381304	13922.677379
3348.444603	13921.408777
3349.507755	13926.707352
3350.570761	13928.754424
3351.633621	13930.264991
3352.694879	13935.125574
3353.753080	13945.969997
3354.815502	13961.791870
3355.874867	13966.807513
3356.934087	13972.114450
3357.994617	13982.218475
3359.050637	13994.338932
3360.109421	14006.844858
3361.163698	14017.246031
3362.220739	14034.262898
3363.276182	14047.715725
3364.332933	14057.194438
3365.388086	14064.773880
3366.441642	14075.925392
3367.493602	14083.138912
3368.548323	14092.290444
3369.599995	14098.469582
3370.651524	14107.649944
3371.704361	14115.325038
3372.754151	14118.253747
3373.805250	14120.862676
3374.853303	14114.534473
3375.904115	14113.894620
3376.951883	14110.837749
3377.999508	14118.853656
3379.046990	14115.574821
3380.092880	14119.671231
3381.140078	14121.454101
3382.184234	14119.245879
3383.231148	14118.698888
3384.276470	14122.029568
3385.318751	14124.112974
3386.360892	14125.922308
3387.404340	14128.403913
3388.447647	14135.585479
3389.489365	14142.575336
3390.530941	14145.394337
3391.572377	14152.450784
3392.612223	14153.777126
3393.650481	14163.525179
3394.690048	14169.464071
3395.729473	14173.862382
3396.767311	14186.108909
3397.803562	14194.340904
3398.839674	14201.474659
3399.877093	14210.881505
3400.911479	14216.432430
3401.947172	14224.725230
3402.982726	14225.982182
3404.015249	14226.750217
3405.050525	14232.901062
3406.082770	14234.640105
3407.114877	14242.936465
3408.145400	14252.151866
3409.177230	14268.892780
3410.208922	14272.747295
3411.237586	14282.871564
3412.266113	14299.132157
3413.295947	14310.237982
3414.325642	14321.878178
3415.352312	14333.881302
3416.380289	14340.344180
3417.405241	14339.590100
3418.432943	14344.841619
3419.457622	14348.227469
3420.483607	14349.489472
3421.508012	14348.369454
3422.532281	14344.609239
3423.554971	14337.950651
3424.577525	14328.135515
3425.601385	14314.905654
3426.622225	14298.002893
3427.642930	14277.169057
3428.664940	14252.145970
3429.683932	14222.675456
3430.702789	14188.499339
3431.722951	14149.359445
3432.740097	14104.997596
