-116.516516	1.000000
-113.846916	18.400000
-111.180251	34.800000
-108.514338	25.600000
-105.851357	20.800000
-103.186947	27.600000
-100.525467	19.600000
-97.862557	41.800000
-95.204755	16.200000
-92.545523	39.800000
-89.887039	36.000000
-87.231479	47.800000
-84.574491	26.000000
-81.922601	30.800000
-79.269280	35.800000
-76.618880	25.000000
-73.967050	31.600000
-71.320311	40.200000
-68.672142	30.200000
-66.024717	12.600000
-63.380205	16.800000
-60.734265	42.600000
-58.093406	15.800000
-55.451118	51.000000
-52.811738	39.200000
-50.170930	56.800000
-47.530862	44.000000
-44.895866	52.600000
-42.259442	45.600000
-39.625920	39.200000
-36.990970	55.800000
-34.361085	69.200000
-31.727608	58.600000
-29.099193	84.200000
-26.471512	89.400000
-23.842402	107.400000
-21.218349	117.200000
-18.590707	152.400000
-15.968118	175.600000
-13.346261	295.000000
-10.725134	486.800000
-8.104737	1172.800000
-5.487229	4106.600000
-2.868291	13515.400000
-0.252240	30735.200000
2.363083	32823.600000
4.977679	14638.600000
7.589392	1496.400000
10.202534	292.600000
12.810642	144.800000
15.422332	101.200000
18.028991	96.600000
20.637078	74.400000
23.244441	79.000000
25.846779	65.000000
28.452695	69.000000
31.053589	65.800000
33.655911	48.600000
36.253216	47.000000
38.854096	59.600000
41.449962	54.200000
44.047255	80.800000
46.643829	69.600000
49.235394	118.200000
51.828387	59.600000
54.418519	67.600000
57.010079	60.800000
59.598779	58.400000
62.188906	52.800000
64.774035	84.200000
67.360590	66.200000
69.946432	74.000000
72.529420	72.000000
75.113834	60.200000
77.691120	50.800000
80.271972	78.800000
82.849975	72.000000
85.427268	59.600000
88.005987	72.000000
90.579724	93.000000
93.154889	74.000000
95.727210	102.800000
98.298823	102.000000
100.867596	84.000000
103.437796	124.000000
106.005158	150.600000
108.573945	140.800000
111.139896	190.600000
113.703012	230.200000
116.269684	285.000000
118.827135	381.600000
121.390271	533.200000
123.948447	741.400000
126.510178	1099.800000
129.066952	1647.000000
131.625153	2426.200000
134.178401	3660.400000
136.730950	5345.800000
139.287050	7534.600000
141.838202	9995.800000
144.388657	12430.400000
146.938414	14324.400000
149.485353	15832.800000
152.031595	16627.400000
154.579263	16899.800000
157.126235	17236.600000
159.668272	17095.600000
162.209615	16901.600000
164.750265	16917.600000
167.292341	16747.600000
169.831605	16840.400000
172.368061	16646.000000
174.903825	16584.600000
177.441015	16508.800000
179.977514	16327.600000
182.511207	16456.800000
185.042097	16257.800000
187.572298	16312.600000
190.103924	16225.800000
192.632749	16087.800000
195.158775	16045.200000
197.684115	16145.200000
200.210881	16154.600000
202.734849	16155.200000
205.258133	16108.600000
207.780732	16045.600000
210.300538	15989.000000
212.819661	15942.400000
215.338101	15899.800000
217.857965	15994.400000
220.370828	15903.000000
222.887222	15978.600000
225.402934	16070.400000
227.913756	15855.000000
230.426004	15957.800000
232.935468	16020.200000
235.444254	15982.800000
237.952362	16128.000000
240.461893	16219.800000
242.966544	16219.600000
245.470519	16195.800000
247.975919	16237.400000
250.476443	16322.600000
252.980490	16317.200000
255.477566	16268.800000
257.978166	16339.400000
260.475994	16369.000000
262.973149	16392.400000
265.469631	16447.400000
267.961250	16374.000000
270.456389	16303.800000
272.948762	16347.600000
275.440464	16357.000000
277.929402	16277.400000
280.419765	16281.600000
282.907365	16339.400000
285.392206	16310.800000
287.880562	16268.000000
290.361978	16282.600000
292.846908	16234.400000
295.326993	16204.400000
297.810590	16273.400000
300.289344	16319.000000
302.769522	16347.800000
305.246947	16311.400000
307.723709	16285.200000
310.199808	16299.800000
312.673158	16191.800000
315.145846	16264.200000
317.617873	16258.200000
320.089239	16346.000000
322.557861	16583.600000
325.025823	16584.600000
327.495207	16472.400000
329.959769	16409.800000
332.427835	16298.600000
334.891081	16301.200000
337.353669	16218.600000
339.815601	16131.800000
342.276876	16003.800000
344.735417	16206.000000
347.195380	16023.000000
349.652610	15952.000000
352.109186	15904.200000
354.565108	15684.200000
357.018301	15511.200000
359.472915	15416.400000
361.922728	15312.800000
364.376037	15200.800000
366.824548	14934.600000
369.272408	14772.200000
371.721689	14690.200000
374.166177	14589.400000
376.612087	14350.000000
379.057348	14167.600000
381.499889	14221.000000
383.941783	13969.000000
386.383030	13851.800000
388.821561	13655.200000
391.261514	13529.400000
393.698753	13422.800000
396.133280	13226.400000
398.571295	13222.200000
401.004533	13125.000000
403.439192	12929.800000
405.869079	12967.200000
408.302451	12709.200000
410.731053	12759.800000
413.159014	12549.800000
415.588395	12664.400000
418.013011	12577.200000
420.439049	12448.000000
422.864446	12431.000000
425.289203	12422.000000
427.709202	12313.200000
430.130622	12316.800000
432.549345	12321.400000
434.969489	12214.600000
437.386938	12173.000000
439.805807	12394.400000
442.221983	12325.400000
444.633412	12256.600000
447.048317	12211.400000
449.460532	12134.200000
451.872113	12250.800000
454.283060	12172.800000
456.691321	12236.200000
459.098949	12082.000000
461.505945	12121.800000
463.912310	12037.800000
466.315992	11939.800000
468.719044	11885.800000
471.121466	12002.600000
473.523258	12016.400000
475.922373	11871.000000
478.322907	11913.000000
480.722812	11964.000000
483.117994	11828.800000
485.516643	11799.800000
487.910572	11688.400000
490.303875	11621.800000
492.696552	11575.200000
495.088604	11655.200000
497.482074	11520.600000
499.870833	11471.800000
502.256925	11515.400000
504.644436	11412.200000
507.031325	11281.600000
509.415550	11307.600000
511.801194	11256.600000
514.184175	11197.800000
516.564496	11239.000000
518.946236	11372.200000
521.325317	11269.000000
523.705817	11193.600000
526.083659	11140.000000
528.458846	11117.200000
530.833415	11059.000000
533.209403	11066.400000
535.582737	11031.200000
537.957489	10838.000000
540.327556	10853.400000
542.697007	10741.800000
545.067876	10617.600000
547.434065	10416.000000
549.801672	10286.600000
552.166633	10320.600000
554.530981	10086.400000
556.894717	9914.400000
559.259869	9726.000000
561.620350	9739.800000
563.982249	9648.600000
566.341507	9382.600000
568.698128	9208.800000
571.058193	9151.200000
573.411567	8877.000000
575.768386	8826.200000
578.122570	8754.000000
580.476146	8534.200000
582.829113	8301.200000
585.179449	8256.800000
587.531201	8155.000000
589.876277	8087.000000
592.226817	7891.600000
594.570683	7745.400000
596.920011	7645.400000
599.264691	7589.000000
601.606745	7463.000000
603.950217	7305.800000
606.291066	7337.800000
608.631313	7274.600000
610.968939	7145.600000
613.310000	7103.800000
615.646423	7118.400000
617.984263	7099.400000
620.319486	7075.600000
622.652093	7031.800000
624.986116	7125.000000
627.317526	7097.400000
629.648337	7095.800000
631.978550	7081.200000
634.308165	7102.400000
636.633158	6984.000000
638.963592	7009.400000
641.289404	6940.600000
643.612610	7069.800000
645.937231	7031.600000
648.259247	7029.000000
650.580670	7133.400000
652.899489	7132.600000
655.219724	7127.200000
657.539366	7116.600000
659.856407	7204.800000
662.172856	7296.000000
664.486707	7244.400000
666.801974	7408.800000
669.114644	7457.400000
671.428729	7548.400000
673.738214	7669.000000
676.049115	7770.200000
678.357423	7665.800000
680.665143	7868.600000
682.974277	7965.800000
685.278820	8060.800000
687.582775	8034.200000
689.886145	8269.200000
692.190929	8251.800000
694.491127	8361.200000
696.792739	8494.200000
699.093767	8550.200000
701.390212	8583.600000
703.688073	8724.800000
705.985350	8821.800000
708.282044	8839.800000
710.574162	8864.600000
712.869691	9049.800000
715.160646	9146.600000
717.453016	9216.200000
719.742811	9216.600000
722.032025	9284.600000
724.320660	9445.800000
726.606723	9487.000000
728.894199	9678.600000
731.179104	9750.200000
733.463432	9815.600000
735.745191	9832.000000
738.028364	9830.400000
740.310960	10043.600000
742.589000	9980.200000
744.868455	10216.000000
747.147334	10329.000000
749.425637	10355.400000
751.699391	10426.000000
753.974559	10542.800000
756.249153	10622.000000
758.521187	10644.400000
760.794635	10799.000000
763.065525	10833.400000
765.333859	10968.800000
767.603606	11112.200000
769.870799	11116.000000
772.137421	11282.200000
774.403473	11412.000000
776.666974	11397.400000
778.931888	11506.800000
781.196232	11613.800000
783.456047	11493.000000
785.717274	11682.000000
787.977934	11891.800000
790.236048	11909.800000
792.491617	11902.600000
794.750577	12073.400000
797.003038	12109.400000
799.260866	12134.200000
801.514174	12186.400000
803.764943	12213.600000
806.017124	12203.400000
808.266766	12280.200000
810.517821	12337.000000
812.764364	12330.000000
815.012319	12405.200000
817.257740	12521.400000
819.504572	12463.400000
821.750843	12594.000000
823.992610	12611.000000
826.237759	12768.000000
828.476436	12865.800000
830.718495	12761.600000
832.956056	12984.400000
835.195029	12957.000000
837.431475	12983.600000
839.669332	13152.600000
841.904664	13258.600000
844.137473	13463.000000
846.371693	13682.400000
848.603391	13844.600000
850.834533	14015.000000
853.065122	14281.600000
855.295155	14435.200000
857.524635	14501.200000
859.749633	14835.800000
861.978006	15073.200000
864.201900	15313.000000
866.427204	15601.000000
868.648033	15862.600000
870.872234	16080.600000
873.091962	16302.000000
875.313101	16661.600000
877.533689	17079.800000
879.751767	17352.400000
881.971255	17708.000000
884.186277	17894.600000
886.400752	18135.200000
888.614678	18507.200000
890.828058	18471.600000
893.040890	18468.000000
895.253176	18569.800000
897.462959	18872.600000
899.672197	18625.200000
901.880890	18790.600000
904.087084	18603.800000
906.294687	18561.600000
908.499792	18135.400000
910.704354	18037.400000
912.906421	17810.600000
915.109897	17339.400000
917.310879	17142.600000
919.511320	16797.800000
921.713168	16347.800000
923.908626	15956.400000
926.107443	15572.000000
928.301821	15130.600000
930.499557	14668.800000
932.692857	14384.600000
934.887566	13944.000000
937.079789	13603.000000
939.271474	13431.800000
941.462620	13110.200000
943.651284	12953.400000
945.839412	12733.600000
948.025059	12572.000000
950.214058	12547.000000
952.398634	12472.400000
954.582675	12444.200000
956.770066	12374.800000
958.949153	12441.800000
961.131591	12349.000000
963.313495	12316.600000
965.492924	12494.400000
967.669881	12434.600000
969.848246	12400.800000
972.028018	12326.400000
974.201441	12208.200000
976.378210	12142.600000
978.550572	12116.400000
980.724342	11918.000000
982.893708	11786.200000
985.066418	11680.000000
987.236663	11509.600000
989.406379	11206.400000
991.575566	11015.200000
993.740356	10997.600000
995.908487	10730.600000
998.072224	10455.400000
1000.237367	10320.800000
1002.400051	10147.600000
1004.562210	9928.200000
1006.721912	9880.400000
1008.881090	9599.600000
1011.041674	9446.400000
1013.199803	9230.200000
1015.357408	9055.000000
1017.514490	8893.000000
1019.671049	8746.200000
1021.823228	8649.200000
1023.976813	8444.400000
1026.129877	8387.200000
1028.280493	8253.600000
1030.432514	8151.600000
1032.580162	8075.800000
1034.731142	7943.200000
1036.877751	7810.800000
1039.023841	7773.600000
1041.169413	7744.200000
1043.316390	7574.600000
1045.457078	7533.200000
1047.601096	7288.800000
1049.742673	7373.600000
1051.883734	7258.400000
1054.026199	7128.600000
1056.162385	7064.000000
1058.301897	7046.400000
1060.437053	6952.600000
1062.575534	6905.600000
1064.709661	6879.400000
1066.843275	6708.200000
1068.978294	6661.800000
1071.108963	6657.200000
1073.241037	6516.600000
1075.370682	6445.400000
1077.499815	6336.800000
1079.628436	6305.200000
1081.756546	6145.200000
1083.882230	6051.800000
1086.007404	5964.200000
1088.133982	5885.600000
1090.256222	5836.600000
1092.379867	5624.200000
1094.499178	5540.200000
1096.623717	5337.200000
1098.742011	5282.000000
1100.861710	5224.000000
1102.978990	5091.200000
1105.095764	4943.000000
1107.212031	4906.000000
1109.325882	4771.000000
1111.441138	4585.400000
1113.552070	4515.800000
1115.666315	4423.400000
1117.776239	4254.400000
1119.887567	4076.400000
1121.998390	4092.200000
1124.104897	3899.200000
1126.214714	3908.800000
1128.320216	3739.800000
1130.427121	3611.600000
1132.527811	3571.400000
1134.633713	3491.000000
1136.735306	3378.400000
1138.838302	3353.400000
1140.940797	3242.600000
1143.037085	3030.400000
1145.138581	3040.200000
1147.235773	2982.400000
1149.332468	2899.200000
1151.428664	2799.200000
1153.524363	2740.000000
1155.619563	2633.600000
1157.712368	2566.800000
1159.806574	2558.800000
1161.894589	2484.000000
1163.987802	2412.000000
1166.074827	2372.600000
1168.165151	2280.600000
1170.251188	2326.400000
1172.340522	2213.800000
1174.423675	2167.600000
1176.508230	2123.400000
1178.594187	2052.600000
1180.675862	1998.600000
1182.758939	1909.200000
1184.839630	1905.000000
1186.919829	1857.600000
1188.999537	1823.000000
1191.078754	1853.200000
1193.155589	1768.400000
1195.230043	1750.800000
1197.307788	1706.000000
1199.381264	1670.000000
1201.456140	1676.200000
1203.526749	1686.400000
1205.598760	1615.000000
1207.668394	1540.000000
1209.739429	1549.400000
1211.809976	1571.400000
1213.876262	1513.200000
1215.943949	1492.400000
1218.009264	1515.000000
1220.075979	1473.000000
1222.138438	1515.200000
1224.204182	1498.400000
1226.265673	1460.800000
1228.328563	1459.000000
1230.389086	1407.400000
1232.449125	1411.400000
1234.508682	1404.000000
1236.565873	1396.600000
1238.622583	1404.600000
1240.676930	1386.200000
1242.734557	1394.600000
1244.789822	1416.400000
1246.840846	1386.400000
1248.893270	1394.800000
1250.945214	1378.800000
1252.994800	1387.800000
1255.043907	1383.600000
1257.092536	1352.400000
1259.140686	1371.400000
1261.188357	1365.000000
1263.231799	1324.600000
1265.278515	1347.000000
1267.322878	1359.000000
1269.366765	1334.600000
1271.408300	1334.800000
1273.447486	1293.400000
1275.489945	1266.000000
1277.528181	1315.400000
1279.567816	1278.400000
1281.606976	1323.600000
1283.641917	1276.600000
1285.678257	1265.800000
1287.712253	1298.200000
1289.747647	1271.000000
1291.778827	1284.400000
1293.811405	1258.200000
1295.843512	1311.000000
1297.873278	1283.400000
1299.904442	1293.000000
1301.931398	1309.200000
1303.959752	1281.800000
1305.983902	1259.000000
1308.011316	1289.200000
1310.034528	1300.000000
1312.059138	1289.400000
1314.081414	1279.200000
1316.105087	1278.000000
1318.126427	1263.200000
1320.147299	1295.600000
1322.167704	1275.400000
1324.183916	1290.800000
1326.201525	1295.600000
1328.216806	1292.200000
1330.235346	1281.000000
1332.249697	1261.600000
1334.261722	1300.400000
1336.277004	1292.400000
1338.288101	1294.400000
1340.300595	1322.600000
1342.308906	1263.400000
1344.320473	1261.800000
1346.326000	1312.200000
1348.334783	1295.400000
1350.339388	1311.600000
1352.347247	1318.200000
1354.354644	1312.200000
1356.356010	1288.600000
1358.358773	1319.200000
1360.361075	1301.000000
1362.362918	1298.200000
1364.364301	1323.000000
1366.363371	1319.800000
1368.361982	1332.200000
1370.360135	1272.000000
1372.357829	1307.400000
1374.351361	1328.600000
1376.346289	1295.800000
1378.340759	1308.200000
1380.334774	1302.800000
1382.326480	1283.600000
1384.317732	1297.200000
1386.306678	1257.400000
1388.297019	1279.200000
1390.286905	1261.600000
1392.274488	1291.800000
1394.261616	1220.600000
1396.246443	1279.800000
1398.232665	1265.600000
1400.216587	1245.600000
1402.200056	1244.600000
1404.183072	1287.800000
1406.163791	1250.000000
1408.145904	1304.400000
1410.125721	1230.800000
1412.105086	1253.000000
1414.080313	1220.600000
1416.058779	1266.200000
1418.034950	1274.800000
1420.010673	1232.800000
1421.985946	1225.200000
1423.958928	1212.800000
1425.931462	1209.000000
1427.903548	1193.600000
1429.875187	1208.200000
1431.842697	1171.800000
1433.815281	1226.000000
1435.780060	1177.400000
1437.749910	1175.400000
1439.715637	1149.200000
1441.682756	1181.800000
1443.647592	1155.200000
1445.608308	1182.800000
1447.574093	1152.400000
1449.533922	1168.400000
1451.495144	1179.200000
1453.457759	1159.400000
1455.416259	1180.000000
1457.374316	1163.800000
1459.331932	1184.000000
1461.289106	1122.200000
1463.244004	1182.000000
1465.200294	1134.200000
1467.154310	1119.000000
1469.107886	1158.200000
1471.059189	1138.600000
1473.011884	1152.200000
1474.962308	1095.400000
1476.912292	1144.400000
1478.861838	1136.200000
1480.809115	1084.400000
1482.754125	1086.600000
1484.700526	1138.800000
1486.646490	1087.600000
1488.592017	1113.600000
1490.535279	1139.600000
1492.478104	1125.200000
1494.418666	1106.600000
1496.360619	1091.400000
1498.300310	1085.400000
1500.239567	1091.000000
1502.178388	1098.000000
1504.114950	1071.000000
1506.052903	1099.200000
1507.988597	1083.800000
1509.923858	1102.600000
1511.856863	1075.400000
1513.789435	1085.400000
1515.721575	1068.000000
1517.653283	1097.000000
1519.582737	1062.600000
1521.513582	1084.600000
1523.443995	1080.600000
1525.370336	1045.600000
1527.298068	1078.600000
1529.223549	1070.600000
1531.148601	1031.400000
1533.073224	1061.800000
1534.997418	1058.000000
1536.919364	1039.200000
1538.842701	1042.200000
1540.763792	1049.200000
1542.682638	1072.800000
1544.602873	1071.600000
1546.520866	1055.200000
1548.438432	1045.200000
1550.353756	1031.000000
1552.270470	1037.000000
1554.183129	1017.000000
1556.098992	1091.000000
1558.012615	1023.400000
1559.924001	1030.600000
1561.836775	1038.000000
1563.745500	1013.600000
1565.655614	1038.400000
1567.565305	1024.800000
1569.474573	988.000000
1571.381607	1020.200000
1573.286408	1027.800000
1575.192598	1032.200000
1577.096556	1024.200000
1579.000093	1026.000000
1580.903210	1004.400000
1582.804097	1051.000000
1584.706373	1005.200000
1586.606421	995.600000
1588.507856	1013.200000
1590.405258	976.200000
1592.302241	996.200000
1594.198806	1001.600000
1596.096759	965.800000
1597.988877	987.800000
1599.884188	972.800000
1601.779082	995.800000
1603.671754	1007.800000
1605.564010	995.600000
1607.454045	979.000000
1609.343666	977.400000
1611.232870	950.400000
1613.121660	967.200000
1615.008232	986.200000
1616.896192	973.200000
1618.780135	953.600000
1620.665466	934.000000
1622.550382	985.400000
1624.433085	991.800000
1626.317175	992.000000
1628.197254	966.600000
1630.078719	947.800000
1631.957974	955.200000
1633.838615	969.000000
1635.713452	962.200000
1637.593270	945.600000
1639.469084	975.400000
1641.344487	946.800000
1643.221276	956.200000
1645.092269	990.800000
1646.966443	963.800000
1648.836619	970.400000
1650.709975	968.200000
1652.581128	950.400000
1654.450079	976.400000
1656.320416	991.600000
1658.186759	946.600000
1660.054488	982.000000
1661.920018	969.600000
1663.786934	934.600000
1665.649861	931.600000
1667.514173	905.200000
1669.376289	966.600000
1671.238001	936.800000
1673.101097	959.000000
1674.961999	916.400000
1676.820707	961.000000
1678.679012	937.600000
1680.538702	910.200000
1682.392624	927.400000
1684.249720	960.800000
1686.106413	904.600000
1687.959130	952.400000
1689.815017	921.000000
1691.666931	942.800000
1693.518444	909.400000
1695.369556	888.200000
1697.220268	914.200000
1699.070579	921.600000
1700.918705	918.000000
1702.768216	899.400000
1704.611978	890.800000
1706.460689	950.200000
1708.303654	901.600000
1710.149786	929.800000
1711.991955	912.800000
1713.837290	934.000000
1715.676884	929.400000
1717.517862	924.400000
1719.360223	901.800000
1721.198628	909.600000
1723.038416	902.800000
1724.876029	893.400000
1726.713246	892.400000
1728.548290	897.600000
1730.384717	883.400000
1732.218972	898.000000
1734.052832	921.000000
1735.886299	867.000000
1737.715819	896.200000
1739.548498	885.200000
1741.377233	887.400000
1743.209125	897.800000
1745.037076	873.200000
1746.864634	882.800000
1748.691800	901.800000
1750.518575	907.200000
1752.344959	850.600000
1754.167405	861.800000
1755.993007	881.200000
1757.814674	887.800000
1759.637723	886.200000
1761.458610	854.000000
1763.279109	861.200000
1765.100989	872.600000
1766.917169	849.200000
1768.736501	843.000000
1770.551906	858.000000
1772.370461	876.600000
1774.185091	845.000000
1775.999335	897.800000
1777.813191	883.000000
1779.626661	856.400000
1781.437978	870.000000
1783.250676	851.800000
1785.062987	882.400000
1786.871381	893.200000
1788.681155	864.400000
1790.487015	843.400000
1792.296020	858.600000
1794.101112	835.800000
1795.907585	843.600000
1797.713674	857.400000
1799.515853	856.400000
1801.321175	870.200000
1803.122589	845.400000
1804.925383	865.000000
1806.724271	854.400000
1808.524540	882.800000
1810.324427	859.400000
1812.122173	851.200000
1813.919537	870.000000
1815.716522	842.800000
1817.513126	858.000000
1819.307591	833.600000
1821.103435	830.600000
1822.893625	846.200000
1824.688710	860.400000
1826.478144	835.400000
1828.270714	879.000000
1830.061149	823.600000
1831.849450	805.000000
1833.640886	830.400000
1835.426676	825.000000
1837.213846	847.800000
1838.998884	831.000000
1840.787056	843.200000
1842.571342	844.000000
1844.353499	842.800000
1846.137034	843.400000
1847.918441	832.400000
1849.701227	834.800000
1851.480132	830.200000
1853.260417	868.800000
1855.038575	814.800000
1856.818112	835.200000
1858.595524	844.200000
1860.370812	839.800000
1862.147478	840.800000
1863.922022	823.200000
1865.697944	835.800000
1867.468245	850.000000
1869.241674	815.000000
1871.012983	832.400000
1872.783922	809.600000
1874.556237	837.800000
1876.322939	857.000000
1878.092767	819.000000
1879.858731	830.000000
1881.627818	825.400000
1883.393045	814.800000
1885.157902	818.200000
1886.924137	819.000000
1888.686513	864.000000
1890.448522	818.600000
1892.210163	852.400000
1893.971438	812.600000
1895.732345	827.400000
1897.492886	802.000000
1899.251317	826.200000
1901.009382	819.000000
1902.765340	804.600000
1904.522674	821.000000
1906.279643	805.600000
1908.034505	863.600000
1909.787263	809.800000
1911.539657	805.800000
1913.293426	820.800000
1915.045092	813.600000
1916.794656	827.000000
1918.545595	804.400000
1920.296172	792.400000
1922.042909	788.400000
1923.791023	787.000000
1925.537037	804.600000
1927.284427	802.400000
1929.029718	785.800000
1930.772912	819.000000
1932.517481	819.600000
1934.259955	791.200000
1936.002068	809.000000
1937.743821	834.400000
1939.485215	791.000000
1941.224514	792.600000
1942.963455	818.600000
1944.702037	811.000000
1946.438528	840.400000
1948.174661	835.000000
1949.912168	829.600000
1951.645853	821.200000
1953.380913	806.000000
1955.113885	792.800000
1956.846499	816.600000
1958.578758	825.200000
1960.310660	824.800000
1962.040476	817.000000
1963.768207	810.000000
1965.497313	800.000000
1967.226064	803.400000
1968.952731	787.200000
1970.679044	815.400000
1972.406730	821.000000
1974.128880	785.000000
1975.854131	816.000000
1977.575576	830.400000
1979.300120	823.600000
1981.022585	802.800000
1982.741246	779.600000
1984.463006	838.400000
1986.180964	805.000000
1987.900295	796.400000
1989.615827	818.000000
1991.336179	825.400000
1993.052733	808.400000
1994.765490	828.000000
1996.481344	800.400000
1998.195124	821.400000
1999.908555	829.200000
2001.619915	819.000000
2003.332647	811.600000
2005.041589	817.800000
2006.753624	798.800000
2008.460149	766.400000
2010.169766	801.200000
2011.877317	798.000000
2013.584520	809.000000
2015.289656	804.800000
2016.994447	783.000000
2018.700609	863.000000
2020.402989	796.400000
2022.106741	865.400000
2023.808429	831.000000
2025.509773	802.600000
2027.210771	806.400000
2028.909708	808.200000
2030.610017	830.000000
2032.306551	850.200000
2034.004456	847.400000
2035.700302	833.600000
2037.399234	808.800000
2039.092680	833.600000
2040.787497	827.000000
2042.481972	796.800000
2044.172678	852.600000
2045.866468	807.000000
2047.556491	817.000000
2049.247885	797.400000
2050.937226	840.600000
2052.627937	763.800000
2054.314885	767.400000
2056.001494	793.800000
2057.689473	758.400000
2059.373691	809.000000
2061.059281	815.200000
2062.744531	776.400000
2064.427733	790.200000
2066.112304	802.200000
2067.791413	807.800000
2069.475307	796.800000
2071.153741	770.000000
2072.835251	745.800000
2074.513011	761.400000
2076.190433	802.800000
2077.869225	779.000000
2079.545975	777.800000
2081.220683	773.000000
2082.896760	811.000000
2084.570797	784.600000
2086.244498	806.200000
2087.917864	800.400000
2089.589192	769.000000
2091.260185	754.800000
2092.930844	777.800000
2094.601168	781.400000
2096.271159	790.600000
2097.939114	773.000000
2099.606736	771.000000
2101.272323	784.000000
2102.939279	806.400000
2104.604202	766.200000
2106.268793	809.600000
2107.931352	797.800000
2109.595279	784.600000
2111.257176	764.600000
2112.918741	819.400000
2114.579975	800.800000
2116.239181	783.800000
2117.898056	795.000000
2119.556602	791.800000
2121.214818	785.200000
2122.869310	817.800000
2124.526867	777.000000
2126.184095	770.600000
2127.837601	812.600000
2129.492475	777.600000
2131.143631	798.800000
2132.797848	770.800000
2134.448349	774.800000
2136.100216	823.000000
2137.746675	793.400000
2139.397889	788.800000
2141.045389	797.600000
2142.694256	764.600000
2144.341105	782.600000
2145.987627	779.400000
2147.633824	801.400000
2149.276313	778.600000
2150.921860	786.200000
2152.563700	795.400000
2154.208597	751.600000
2155.849789	799.600000
2157.490657	801.000000
2159.131201	757.400000
2160.769733	749.200000
2162.409631	753.200000
2164.045829	740.000000
2165.683394	771.200000
2167.320635	752.600000
2168.955867	755.200000
2170.590778	754.400000
2172.225367	782.000000
2173.859634	768.600000
2175.490208	761.000000
2177.123834	787.800000
2178.753768	770.200000
2180.385067	785.800000
2182.014361	770.800000
2183.643336	778.400000
2185.271991	798.600000
2186.900327	777.600000
2188.526661	761.800000
2190.152676	768.200000
2191.776690	803.200000
2193.402068	738.800000
2195.025447	760.000000
2196.650189	777.600000
2198.271251	743.600000
2199.891996	765.800000
2201.514106	763.800000
2203.134218	763.000000
2204.752333	709.000000
2206.370133	753.600000
2207.987618	756.400000
2209.604787	767.400000
2211.221641	750.000000
2212.838179	755.800000
2214.452725	785.400000
2216.065278	720.000000
2217.679195	725.600000
2219.291121	781.400000
2220.904410	737.800000
2222.515709	728.000000
2224.125018	734.800000
2225.735691	754.000000
2227.344375	745.800000
2228.952746	735.400000
2230.559131	726.800000
2232.166879	752.000000
2233.772640	743.800000
2235.378090	773.400000
2236.981555	724.800000
2238.586383	734.200000
2240.189227	743.800000
2241.790089	720.600000
2243.392312	725.200000
2244.992554	736.000000
2246.594158	750.600000
2248.192110	739.400000
2249.791424	748.200000
2251.388758	762.400000
2252.985783	713.600000
2254.584171	738.400000
2256.178910	732.000000
2257.771672	754.400000
2259.365797	761.600000
2260.961283	733.800000
2262.553125	721.200000
2264.144660	731.400000
2265.737556	717.000000
2267.325143	758.200000
2268.917427	738.600000
2270.504403	742.600000
2272.094407	775.800000
2273.679108	739.600000
2275.268501	745.000000
2276.852593	749.800000
2278.438046	737.200000
2280.021529	739.400000
2281.608039	697.800000
2283.190914	743.800000
2284.773487	718.400000
2286.355756	762.600000
2287.934396	715.600000
2289.516059	706.200000
2291.094094	727.000000
2292.675152	713.200000
2294.252583	714.700000
2295.828051	716.200000
2297.406541	727.400000
2298.981407	728.600000
2300.555972	719.800000
2302.130237	725.400000
2303.704201	703.800000
2305.277865	722.000000
2306.851228	711.400000
2308.420973	679.000000
2309.990419	709.400000
2311.562883	722.400000
2313.130073	711.800000
2314.700281	717.600000
2316.266874	713.800000
2317.834827	705.000000
2319.400824	713.200000
2320.966524	722.400000
2322.531927	752.800000
2324.095375	709.000000
2325.660183	744.200000
2327.221383	737.200000
2328.785597	748.200000
2330.344549	726.000000
2331.906516	762.400000
2333.466532	718.000000
2335.026252	737.800000
2336.584023	794.000000
2338.141499	731.000000
2339.698681	722.200000
2341.253915	726.200000
2342.808856	724.800000
2344.363503	742.800000
2345.917855	754.200000
2347.471915	750.200000
2349.025680	719.000000
2350.577502	712.000000
2352.127380	708.000000
2353.680266	723.000000
2355.227910	724.200000
2356.778561	722.400000
2358.325621	733.800000
2359.874039	720.800000
2361.422166	736.000000
2362.966704	725.000000
2364.512600	743.400000
2366.056558	763.000000
2367.601873	735.800000
2369.143603	736.000000
2370.686690	721.600000
2372.227841	754.000000
2373.768704	743.200000
2375.309276	728.000000
2376.849560	733.800000
2378.389555	729.200000
2379.925972	764.400000
2381.465390	717.600000
2383.001231	740.600000
2384.538428	733.200000
2386.072050	714.200000
2387.608673	746.200000
2389.143364	741.400000
2390.676126	738.200000
2392.208601	730.800000
2393.739148	756.000000
2395.272693	776.800000
2396.801027	733.400000
2398.330718	773.800000
2399.860123	742.400000
2401.389242	728.400000
2402.918077	738.800000
2404.441706	725.000000
2405.969972	755.600000
2407.493034	726.400000
2409.020730	733.400000
2410.541587	759.400000
2412.067077	761.400000
2413.589006	736.400000
2415.112291	750.000000
2416.633654	736.600000
2418.153099	758.600000
2419.673898	736.200000
2421.192778	749.400000
2422.711376	745.000000
2424.228057	734.200000
2425.746092	736.200000
2427.263846	750.400000
2428.778049	723.400000
2430.291971	742.400000
2431.805613	726.200000
2433.320610	717.800000
2434.832058	716.200000
2436.344861	735.200000
2437.855750	741.000000
2439.366361	749.000000
2440.875060	718.800000
2442.386745	734.200000
2443.894887	716.200000
2445.402751	724.800000
2446.910337	737.000000
2448.414382	714.800000
2449.921413	721.200000
2451.426535	697.200000
2452.931380	744.600000
2454.434317	735.400000
2455.936979	710.400000
2457.439364	722.200000
2458.939844	698.800000
2460.441677	701.200000
2461.941605	713.600000
2463.441259	698.800000
2464.940636	720.600000
2466.438111	721.800000
2467.933684	707.400000
2469.432237	693.200000
2470.927262	704.400000
2472.423639	717.400000
2473.916490	701.600000
2475.410694	707.400000
2476.904624	697.600000
2478.395030	704.600000
2479.888414	697.200000
2481.379900	696.400000
2482.869489	680.400000
2484.358806	712.800000
2485.846228	732.600000
2487.336625	710.400000
2488.823503	675.200000
2490.311733	698.600000
2491.796447	742.600000
2493.280890	717.400000
2494.766685	695.800000
2496.250587	723.000000
2497.735841	721.400000
2499.215960	705.600000
2500.699053	712.600000
2502.180255	690.800000
2503.661188	701.400000
2505.140232	715.400000
2506.619007	696.400000
2508.097514	719.200000
2509.575753	715.000000
2511.053723	701.200000
2512.528188	707.800000
2514.005623	668.600000
2515.479554	670.600000
2516.954835	701.800000
2518.429850	701.800000
2519.901363	688.200000
2521.374226	738.800000
2522.845207	674.600000
2524.317538	711.800000
2525.784755	678.800000
2527.254939	680.000000
2528.723242	697.800000
2530.191280	697.200000
2531.659053	700.400000
2533.126561	665.600000
2534.593804	718.000000
2536.057555	681.000000
2537.522656	684.600000
2538.985880	666.400000
2540.450454	683.200000
2541.911538	682.800000
2543.373972	706.600000
2544.836143	724.600000
2546.294828	697.400000
2547.758085	757.400000
2549.216245	717.400000
2550.675754	672.400000
2552.130169	735.800000
2553.589155	705.000000
2555.046269	689.400000
2556.501512	717.200000
2557.956494	703.400000
2559.409606	725.800000
2560.864067	715.400000
2562.316659	716.800000
2563.768991	686.600000
2565.219455	682.200000
2566.672875	730.200000
2568.121213	698.600000
2569.572507	690.000000
2571.021934	712.000000
2572.467889	719.600000
2573.916799	690.200000
2575.362239	695.200000
2576.809027	691.800000
2578.253951	707.600000
2579.698617	678.400000
2581.144632	691.800000
2582.587179	695.000000
2584.031074	689.000000
2585.471504	701.600000
2586.913281	682.800000
2588.353199	635.800000
2589.794464	690.600000
2591.232267	686.800000
2592.673021	662.800000
2594.108711	681.800000
2595.547351	647.000000
2596.984133	674.800000
2598.419060	668.800000
2599.856934	660.400000
2601.289751	661.600000
2602.723915	701.400000
2604.156225	672.400000
2605.589881	658.200000
2607.021684	686.200000
2608.453233	681.000000
2609.884530	672.400000
2611.313974	668.000000
2612.743166	677.800000
2614.170508	678.200000
2615.599195	659.600000
2617.027631	708.200000
2618.452619	724.800000
2619.878954	685.200000
2621.303440	674.800000
2622.729272	678.800000
2624.151660	689.600000
2625.575394	681.200000
2626.997281	672.800000
2628.418919	693.600000
2629.838711	644.000000
2631.259849	667.800000
2632.680737	677.000000
2634.098187	652.200000
2635.518576	709.000000
2636.935528	677.000000
2638.352231	665.000000
2639.768687	696.200000
2641.184893	700.400000
2642.600852	716.600000
2644.014970	681.800000
2645.428841	671.800000
2646.840872	665.400000
2648.254248	686.400000
2649.664194	690.800000
2651.077075	690.000000
2652.486528	641.200000
2653.895735	690.000000
2655.303106	680.600000
2656.713412	703.200000
2658.121881	691.000000
2659.528515	660.000000
2660.934904	667.400000
2662.339459	691.000000
2663.745358	700.400000
2665.149424	669.400000
2666.553245	686.200000
2667.956823	710.000000
2669.358568	672.600000
2670.761657	691.200000
2672.161328	697.600000
2673.562343	684.000000
2674.959942	690.200000
2676.360471	671.000000
2677.757585	659.000000
2679.156042	677.400000
2680.552671	660.000000
2681.949058	684.200000
2683.345204	670.200000
2684.739523	666.400000
2686.135184	676.400000
2687.527437	659.600000
2688.921032	650.800000
2690.312803	670.600000
2691.705917	651.600000
2693.097207	689.200000
2694.486674	664.600000
2695.875901	699.600000
2697.264889	682.600000
2698.655219	688.400000
2700.040564	685.000000
2701.428833	635.800000
2702.815282	656.200000
2704.201492	674.200000
2705.587464	667.600000
2706.970036	671.800000
2708.353951	638.000000
2709.737628	665.600000
2711.121067	672.800000
2712.501110	662.000000
2713.882495	665.800000
2715.262064	666.800000
2716.642975	631.600000
2718.022070	671.800000
2719.399352	665.800000
2720.777975	659.400000
2722.154785	695.000000
2723.531359	654.400000
2724.907697	672.200000
2726.282223	650.400000
2727.658090	728.000000
2729.030570	654.600000
2730.405966	684.000000
2731.776402	667.200000
2733.148179	705.200000
2734.519721	636.800000
2735.889455	655.200000
2737.260530	627.200000
2738.629796	651.600000
2739.998829	673.600000
2741.366056	678.800000
2742.733050	641.200000
2744.099811	667.600000
2745.466339	672.800000
2746.831062	660.600000
2748.195554	687.600000
2749.559813	653.600000
2750.923840	627.800000
2752.287636	671.000000
2753.648058	677.400000
2755.011391	674.600000
2756.369781	651.000000
2757.731081	675.400000
2759.089010	712.000000
2760.449848	635.800000
2761.808887	674.800000
2763.164557	635.600000
2764.523135	651.600000
2765.878346	634.600000
2767.233328	656.400000
2768.586514	629.800000
2769.942606	685.600000
2771.295333	739.800000
2772.647833	666.400000
2774.000104	638.600000
2775.353714	618.400000
2776.703962	641.600000
2778.052417	635.200000
2779.403776	634.600000
2780.751776	658.000000
2782.101114	642.800000
2783.448661	690.600000
2784.795980	668.200000
2786.143073	670.800000
2787.488375	664.200000
2788.833451	613.000000
2790.178300	644.200000
2791.522924	628.200000
2792.864196	652.200000
2794.206806	652.200000
2795.549190	634.000000
2796.891350	692.000000
2798.230160	642.400000
2799.571869	661.400000
2800.910231	675.200000
2802.249930	646.200000
2803.587843	650.000000
2804.923972	671.000000
2806.259877	641.000000
2807.597120	656.200000
2808.932579	657.600000
2810.267815	628.400000
2811.601268	663.000000
2812.936059	658.400000
2814.267508	678.000000
2815.601853	664.400000
2816.931300	669.800000
2818.262084	656.800000
2819.592646	668.800000
2820.921429	634.400000
2822.251548	626.200000
2823.579889	668.000000
2824.908009	645.600000
2826.234351	671.000000
2827.562030	661.200000
2828.886375	658.200000
2830.212057	647.400000
2831.535963	651.800000
2832.859650	642.400000
2834.184672	659.000000
2835.506364	649.000000
2836.827838	651.400000
2838.149093	645.600000
2839.470129	663.000000
2840.789393	623.400000
2842.109992	663.600000
2843.428819	619.000000
2844.747428	653.000000
2846.064266	593.200000
2847.380887	621.200000
2848.697291	659.400000
2850.011925	629.800000
2851.327895	648.800000
2852.640544	634.800000
2853.954529	654.600000
2855.268296	628.800000
2856.581848	610.600000
2857.893632	655.400000
2859.203650	636.600000
2860.515003	651.400000
2861.823041	641.200000
2863.132413	645.600000
2864.441571	630.600000
2865.750513	627.000000
2867.057691	652.400000
2868.363107	656.000000
2869.669857	661.400000
2870.974844	670.400000
2872.279618	623.000000
2873.582630	650.400000
2874.888524	629.000000
2876.189562	654.600000
2877.491935	649.800000
2878.792548	643.400000
2880.094495	655.000000
2881.396229	648.600000
2882.694658	662.600000
2883.994421	646.400000
2885.292427	648.800000
2886.590221	641.600000
2887.886259	643.600000
2889.183630	664.000000
2890.479245	650.000000
2891.774649	650.200000
2893.069842	657.400000
2894.361738	647.400000
2895.656510	643.800000
2896.947985	641.000000
2898.240793	641.800000
2899.533391	671.200000
2900.822695	632.400000
2902.113331	624.600000
2903.402216	642.000000
2904.692434	655.600000
2905.979359	680.800000
2907.267618	653.200000
2908.554126	649.800000
2909.840427	619.200000
2911.126519	626.600000
2912.410863	671.000000
2913.698078	616.000000
2914.980467	658.600000
2916.264188	643.800000
2917.546163	662.000000
2918.827930	626.200000
2920.107953	654.600000
2921.390845	655.600000
2922.671992	644.200000
2923.949857	621.400000
2925.230591	638.400000
2926.508044	663.000000
2927.785291	672.200000
2929.060797	632.000000
2930.339170	636.000000
2931.612728	614.200000
2932.889154	653.200000
2934.163839	640.400000
2935.436784	653.200000
2936.711059	648.400000
2937.983595	642.400000
2939.255927	664.000000
2940.524985	646.000000
2941.796909	637.400000
2943.067095	637.200000
2944.337078	632.200000
2945.606857	650.400000
2946.874899	641.000000
2948.141206	618.400000
2949.407310	608.200000
2950.674744	608.400000
2951.940444	637.000000
2953.205941	628.400000
2954.471236	613.800000
2955.733266	647.600000
2956.996627	623.400000
2958.259785	655.800000
2959.521212	641.000000
2960.783968	644.800000
2962.044993	635.800000
2963.304286	661.800000
2964.563380	659.000000
2965.822273	638.800000
2967.080966	637.000000
2968.339459	614.400000
2969.596223	635.200000
2970.852787	636.800000
2972.107624	658.000000
2973.363789	621.800000
2974.616700	639.600000
2975.870940	626.200000
2977.124981	630.800000
2978.377296	627.400000
2979.629412	609.200000
2980.879804	637.400000
2982.133051	645.200000
2983.381521	625.000000
2984.632846	650.400000
2985.880921	645.200000
2987.128800	627.600000
2988.376481	624.600000
2989.623965	663.000000
2990.869728	633.200000
2992.115295	638.400000
2993.362189	653.000000
2994.605839	647.800000
2995.850817	647.000000
2997.092551	656.600000
2998.337137	625.400000
2999.580004	638.200000
3000.819630	655.800000
3002.062106	631.000000
3003.301343	649.800000
3004.541906	610.800000
3005.780754	630.600000
3007.019406	628.400000
3008.256344	629.800000
3009.494608	647.200000
3010.731158	641.800000
3011.967513	658.800000
3013.203675	625.600000
3014.438124	627.600000
3015.672379	625.000000
3016.906441	641.600000
3018.138791	642.000000
3019.369429	633.600000
3020.602913	626.400000
3021.834685	645.200000
3023.064747	643.400000
3024.294617	624.200000
3025.522777	644.800000
3026.752263	649.800000
3027.980040	631.200000
3029.207627	651.000000
3030.436539	641.200000
3031.660709	633.200000
3032.887722	649.600000
3034.111511	637.600000
3035.336627	627.400000
3036.560036	654.400000
3037.783255	640.600000
3039.004769	649.200000
3040.229124	606.000000
3041.448744	642.000000
3042.669690	635.800000
3043.890447	634.600000
3045.109500	658.400000
3046.329879	660.400000
3047.547041	643.600000
3048.765528	642.600000
3049.982313	645.400000
3051.198911	630.800000
3052.415320	631.200000
3053.628517	636.600000
3054.844551	633.800000
3056.057373	632.000000
3057.273032	631.800000
3058.483968	639.800000
3059.696229	653.400000
3060.908304	633.000000
3062.120192	649.800000
3063.330382	630.600000
3064.540386	653.800000
3065.750204	638.800000
3066.958327	625.600000
3068.166263	610.000000
3069.372504	620.200000
3070.580070	663.200000
3071.785941	658.800000
3072.991628	654.400000
3074.197129	631.000000
3075.400937	636.800000
3076.606069	621.800000
3077.809509	657.800000
3079.011256	665.800000
3080.212820	619.800000
3081.414199	627.800000
3082.615396	641.400000
3083.814901	641.600000
3085.014224	619.000000
3086.214870	622.600000
3087.413826	614.200000
3088.609588	622.800000
3089.808179	599.000000
3091.003576	651.600000
3092.200296	638.800000
3093.393824	634.600000
3094.590180	613.600000
3095.784850	626.200000
3096.976329	616.600000
3098.172139	592.800000
3099.363256	621.200000
3100.555695	644.600000
3101.744947	654.200000
3102.937025	623.000000
3104.127418	634.200000
3105.314626	637.400000
3106.503157	627.000000
3107.693009	618.000000
3108.879678	610.600000
3110.066167	640.600000
3111.252476	613.800000
3112.440107	622.000000
3113.624557	604.400000
3114.807326	616.200000
3115.992918	671.000000
3117.176831	613.800000
3118.359065	621.800000
3119.541120	622.400000
3120.722998	626.600000
3121.904697	601.800000
3123.084718	625.800000
3124.263063	600.000000
3125.444228	618.400000
3126.622219	629.600000
3127.800032	630.400000
3128.977668	621.000000
3130.153629	623.800000
3131.329413	614.000000
3132.506519	626.600000
3133.681950	630.600000
3134.855708	640.200000
3136.027793	610.800000
3137.201200	630.400000
3138.374430	599.000000
3139.545989	592.400000
3140.718868	614.000000
3141.888581	630.800000
3143.059613	614.600000
3144.228976	627.000000
3145.396669	621.400000
3146.567177	643.000000
3147.733026	574.800000
3148.903185	629.600000
3150.068686	622.200000
3151.234014	615.200000
3152.399168	616.600000
3153.564148	629.000000
3154.730448	630.600000
3155.892096	596.400000
3157.055063	663.600000
3158.217858	601.400000
3159.380480	604.400000
3160.541437	626.000000
3161.702221	600.200000
3162.862833	591.200000
3164.021781	607.600000
3165.180558	587.800000
3166.339163	627.600000
3167.497596	604.000000
3168.655857	611.000000
3169.812456	630.400000
3170.967394	610.200000
3172.123651	603.000000
3173.278247	598.200000
3174.432673	589.200000
3175.585439	581.600000
3176.738035	610.200000
3177.890460	589.400000
3179.042716	602.200000
3180.194801	594.200000
3181.343741	635.200000
3182.495487	615.800000
3183.645575	609.000000
3184.794007	633.600000
3185.942270	610.200000
3187.090363	635.600000
3188.238288	597.800000
3189.384558	629.600000
3190.530659	615.800000
3191.675105	613.200000
3192.819384	616.600000
3193.963495	638.800000
3195.108923	629.400000
3196.251213	613.400000
3197.393336	594.200000
3198.535291	604.600000
3199.677079	593.600000
3200.818701	619.800000
3201.957186	669.800000
3203.096989	616.600000
3204.238110	611.600000
3205.376096	602.800000
3206.512433	626.000000
3207.648604	611.200000
3208.786093	637.800000
3209.921932	633.600000
3211.059089	648.600000
3212.191633	622.200000
3213.328459	608.000000
3214.460673	605.000000
3215.594204	618.800000
3216.727571	591.800000
3217.857810	608.400000
3218.990847	620.600000
3220.120758	650.400000
3221.251985	635.600000
3222.380088	616.800000
3223.510987	606.400000
3224.640242	599.200000
3225.767854	584.800000
3226.892344	617.800000
3228.021108	594.200000
3229.146751	618.400000
3230.272232	607.800000
3231.396071	602.800000
3232.522704	572.400000
3233.644740	580.400000
3234.768092	640.800000
3235.891282	616.800000
3237.014310	615.600000
3238.135698	582.200000
3239.256925	610.400000
3240.376513	612.400000
3241.495940	585.400000
3242.613729	597.200000
3243.734310	590.200000
3244.851778	606.800000
3245.969085	594.400000
3247.086232	651.600000
3248.201743	590.800000
3249.318569	625.000000
3250.432284	648.800000
3251.548789	652.000000
3252.663660	635.400000
3253.775422	606.200000
3254.887024	605.200000
3255.999942	661.200000
3257.112701	608.000000
3258.222353	595.600000
3259.333319	603.600000
3260.444127	631.000000
3261.553304	602.000000
3262.660849	657.600000
3263.769708	613.200000
3264.878410	623.400000
3265.984009	589.200000
3267.090922	641.800000
3268.196206	722.200000
3269.302805	645.200000
3270.406303	610.400000
3271.511115	625.200000
3272.615770	597.600000
3273.717326	624.400000
3274.818726	646.800000
3275.921441	651.000000
3277.023998	598.400000
3278.123459	612.400000
3279.225704	638.400000
3280.324853	622.000000
3281.422378	637.000000
3282.519747	645.400000
3283.619899	632.400000
3284.716957	628.000000
3285.813860	637.200000
3286.910608	642.200000
3288.002798	620.200000
3289.099236	620.400000
3290.194052	610.000000
3291.288714	582.000000
3292.381754	626.400000
3293.474640	628.600000
3294.565905	607.400000
3295.658483	627.200000
3296.749440	646.800000
3297.838778	626.200000
3298.927963	607.200000
3300.018461	605.200000
3301.105874	604.400000
3302.193135	621.800000
3303.281708	645.400000
3304.370128	632.600000
3305.454001	631.000000
3306.542116	618.000000
3307.627150	607.200000
3308.710567	620.800000
3309.795297	621.400000
3310.878412	607.600000
3311.962838	610.600000
3313.044186	621.800000
3314.126846	619.800000
3315.207892	640.000000
3316.288787	622.400000
3317.368068	603.200000
3318.447200	628.200000
3319.527642	631.800000
3320.605010	627.400000
3321.683690	604.200000
3322.760759	618.400000
3323.837677	627.400000
3324.912984	633.800000
3325.988142	610.800000
3327.064611	608.600000
3328.138010	613.200000
3329.211260	610.800000
3330.285820	620.400000
3331.358772	628.600000
3332.430115	634.400000
3333.502770	625.000000
3334.572357	630.600000
3335.643255	659.000000
3336.712546	636.600000
3337.783148	607.800000
3338.852143	620.800000
3339.919532	617.400000
3340.985316	627.200000
3342.055326	652.600000
3343.122273	612.000000
3344.186158	635.000000
3345.252811	620.600000
3346.317859	600.200000
3347.381304	656.200000
3348.444603	625.200000
3349.507755	611.000000
3350.570761	610.800000
3351.633621	608.000000
3352.694879	591.600000
3353.753080	580.400000
3354.815502	607.000000
3355.874867	637.800000
3356.934087	626.200000
3357.994617	599.800000
3359.050637	617.000000
3360.109421	622.200000
3361.163698	625.200000
3362.220739	629.600000
3363.276182	618.800000
3364.332933	608.800000
3365.388086	619.400000
3366.441642	609.600000
3367.493602	621.000000
3368.548323	616.600000
3369.599995	632.600000
3370.651524	643.000000
3371.704361	614.600000
3372.754151	626.200000
3373.805250	625.400000
3374.853303	616.600000
3375.904115	604.600000
3376.951883	652.200000
3377.999508	610.600000
3379.046990	612.400000
3380.092880	635.000000
3381.140078	610.200000
3382.184234	631.600000
3383.231148	628.600000
3384.276470	632.600000
3385.318751	630.400000
3386.360892	612.200000
3387.404340	618.600000
3388.447647	603.800000
3389.489365	597.400000
3390.530941	668.600000
3391.572377	612.200000
3392.612223	634.200000
3393.650481	639.400000
3394.690048	635.600000
3395.729473	640.200000
3396.767311	610.800000
3397.803562	638.600000
3398.839674	610.400000
3399.877093	625.000000
3400.911479	612.400000
3401.947172	609.200000
3402.982726	630.400000
3404.015249	633.000000
3405.050525	630.400000
3406.082770	633.400000
3407.114877	608.400000
3408.145400	615.800000
3409.177230	622.400000
3410.208922	637.800000
3411.237586	616.600000
3412.266113	624.600000
3413.295947	618.000000
3414.325642	633.800000
3415.352312	630.000000
3416.380289	583.800000
3417.405241	641.800000
3418.432943	633.400000
3419.457622	644.600000
3420.483607	628.800000
3421.508012	615.400000
3422.532281	644.000000
3423.554971	604.600000
3424.577525	606.200000
3425.601385	632.200000
3426.622225	640.400000
3427.642930	627.200000
3428.664940	622.000000
3429.683932	627.400000
3430.702789	589.200000
3431.722951	634.200000
3432.740097	626.400000
