Raman shift (cm-1) - Current Spectrum	Intensity (Counts) - Current Spectrum	
-118.05	-10	
-115.38	-5	
-112.71	-0	
-110.05	3	
-107.38	6	
-104.72	8	
-102.06	9	
-99.39	10	
-96.74	10	
-94.08	10	
-91.42	10	
-88.76	9	
-86.11	10	
-83.45	8	
-80.8	7	
-78.15	6	
-75.5	5	
-72.85	3	
-70.2	1	
-67.56	0	
-64.91	1	
-62.27	-1	
-59.62	-1	
-56.98	-0	
-54.34	0	
-51.7	-0	
-49.06	0	
-46.43	-2	
-43.79	-1	
-41.16	2	
-38.52	3	
-35.89	0	
-33.26	-17	
-30.63	-76	
-28	-191	
-25.37	-248	
-22.75	-112	
-20.12	157	
-17.5	410	
-14.88	629	
-12.26	811	
-9.64	957	
-7.02	1068	
-4.4	1142	
-1.78	1176	
0.83	1176	
3.45	1139	
6.06	1065	
8.67	956	
11.28	810	
13.89	631	
16.5	416	
19.11	174	
21.71	-71	
24.32	-251	
26.92	-255	
29.52	-118	
32.12	-13	
34.72	1	
37.32	4	
39.92	3	
42.52	5	
45.11	5	
47.7	4	
50.3	4	
52.89	5	
55.48	4	
58.07	5	
60.66	3	
63.24	5	
65.83	5	
68.42	3	
71	3	
73.58	3	
76.16	2	
78.74	-1	
81.32	-1	
83.9	0	
86.47	-0	
89.05	-1	
91.62	-1	
94.2	-0	
96.77	-1	
99.34	2	
101.91	2	
104.47	3	
107.04	2	
109.61	3	
112.17	3	
114.74	4	
117.3	7	
119.86	13	
122.42	24	
124.98	35	
127.54	52	
130.09	71	
132.65	95	
135.2	122	
137.76	145	
140.31	168	
142.86	191	
145.41	212	
147.95	228	
150.5	243	
153.05	254	
155.59	258	
158.14	261	
160.68	260	
163.22	256	
165.76	252	
168.3	250	
170.84	247	
173.37	246	
175.91	244	
178.45	245	
180.98	245	
183.51	246	
186.04	244	
188.57	244	
191.1	242	
193.63	242	
196.15	241	
198.68	237	
201.2	240	
203.73	237	
206.25	232	
208.77	230	
211.29	230	
213.81	232	
216.33	234	
218.84	234	
221.36	237	
223.87	238	
226.38	241	
228.89	242	
231.4	243	
233.91	245	
236.42	247	
238.93	251	
241.44	251	
243.94	251	
246.44	251	
248.95	254	
251.45	257	
253.95	254	
256.45	256	
258.94	259	
261.44	261	
263.94	263	
266.43	265	
268.93	266	
271.42	269	
273.91	269	
276.4	270	
278.89	270	
281.38	271	
283.86	272	
286.35	274	
288.83	274	
291.32	269	
293.8	269	
296.28	270	
298.76	273	
301.24	278	
303.72	288	
306.19	298	
308.67	306	
311.14	313	
313.61	321	
316.09	326	
318.56	327	
321.03	330	
323.49	330	
325.96	330	
328.43	329	
330.9	329	
333.36	324	
335.82	318	
338.28	312	
340.75	305	
343.2	303	
345.66	300	
348.12	300	
350.58	304	
353.03	306	
355.49	307	
357.94	310	
360.39	307	
362.84	306	
365.29	302	
367.74	303	
370.19	306	
372.63	302	
375.08	301	
377.53	298	
379.97	298	
382.41	294	
384.85	296	
387.29	297	
389.73	294	
392.17	294	
394.6	292	
397.04	291	
399.47	290	
401.91	291	
404.34	293	
406.77	295	
409.2	294	
411.63	299	
414.06	301	
416.48	302	
418.91	302	
421.33	302	
423.76	302	
426.18	299	
428.6	301	
431.02	302	
433.44	303	
435.86	302	
438.27	300	
440.69	299	
443.1	296	
445.52	294	
447.93	294	
450.34	296	
452.75	295	
455.16	294	
457.57	292	
459.97	292	
462.38	287	
464.78	286	
467.19	288	
469.59	287	
471.99	287	
474.39	285	
476.79	289	
479.19	291	
481.59	291	
483.99	288	
486.38	285	
488.77	278	
491.17	272	
493.56	266	
495.95	257	
498.34	251	
500.73	241	
503.11	231	
505.5	222	
507.88	214	
510.27	205	
512.65	201	
515.03	195	
517.41	190	
519.79	188	
522.17	185	
524.55	185	
526.93	182	
529.3	179	
531.68	176	
534.05	173	
536.43	170	
538.8	172	
541.17	171	
543.54	168	
545.9	172	
548.27	170	
550.64	168	
553	166	
555.36	167	
557.73	167	
560.09	165	
562.45	165	
564.81	165	
567.17	163	
569.53	162	
571.88	161	
574.24	159	
576.59	159	
578.94	158	
581.3	156	
583.65	158	
586	155	
588.34	153	
590.7	151	
593.04	152	
595.39	148	
597.73	147	
600.08	147	
602.42	148	
604.76	146	
607.1	145	
609.44	147	
611.78	145	
614.12	143	
616.45	144	
618.79	144	
621.12	146	
623.45	143	
625.79	141	
628.12	137	
630.45	135	
632.78	135	
635.1	135	
637.43	133	
639.76	134	
642.08	131	
644.41	134	
646.73	136	
649.05	137	
651.37	138	
653.69	137	
656.01	136	
658.33	133	
660.64	133	
662.96	135	
665.27	133	
667.58	129	
669.9	126	
672.21	124	
674.52	123	
676.83	125	
679.13	127	
681.44	126	
683.75	127	
686.05	127	
688.35	126	
690.66	128	
692.96	128	
695.26	128	
697.56	125	
699.86	124	
702.16	123	
704.45	123	
706.75	123	
709.04	122	
711.34	121	
713.63	118	
715.92	121	
718.21	121	
720.5	122	
722.79	127	
725.08	127	
727.36	128	
729.65	130	
731.93	130	
734.21	127	
736.5	128	
738.78	129	
741.06	129	
743.34	127	
745.62	128	
747.89	129	
750.17	129	
752.44	127	
754.72	124	
756.99	124	
759.26	125	
761.53	128	
763.8	130	
766.07	130	
768.34	132	
770.61	131	
772.87	133	
775.14	135	
777.4	137	
779.66	138	
781.92	142	
784.19	143	
786.45	143	
788.7	143	
790.96	142	
793.22	142	
795.47	140	
797.73	136	
799.98	134	
802.23	135	
804.49	136	
806.74	133	
808.99	134	
811.23	133	
813.48	133	
815.73	133	
817.97	133	
820.22	135	
822.46	137	
824.71	138	
826.95	138	
829.19	137	
831.42	134	
833.66	129	
835.9	128	
838.14	126	
840.37	121	
842.61	118	
844.84	117	
847.07	114	
849.3	113	
851.53	110	
853.76	113	
855.99	111	
858.22	111	
860.45	112	
862.67	112	
864.9	116	
867.12	118	
869.34	119	
871.56	118	
873.78	118	
876	117	
878.22	118	
880.44	120	
882.65	118	
884.87	119	
887.08	120	
889.3	120	
891.51	118	
893.72	119	
895.93	118	
898.14	119	
900.35	117	
902.56	117	
904.76	118	
906.97	118	
909.17	120	
911.38	116	
913.58	116	
915.78	116	
917.98	117	
920.18	118	
922.38	120	
924.58	120	
926.77	120	
928.97	121	
931.16	121	
933.36	120	
935.55	122	
937.74	125	
939.93	127	
942.12	127	
944.31	129	
946.49	132	
948.68	134	
950.87	133	
953.05	133	
955.24	135	
957.42	138	
959.6	136	
961.78	138	
963.96	138	
966.14	136	
968.32	134	
970.5	132	
972.67	132	
974.85	134	
977.02	135	
979.19	137	
981.36	141	
983.54	142	
985.71	144	
987.88	147	
990.04	150	
992.21	151	
994.38	153	
996.54	158	
998.71	163	
1000.87	167	
1003.03	167	
1005.19	169	
1007.35	169	
1009.51	169	
1011.67	172	
1013.83	173	
1015.98	175	
1018.14	175	
1020.29	174	
1022.45	173	
1024.6	172	
1026.75	171	
1028.9	175	
1031.05	178	
1033.2	182	
1035.35	183	
1037.49	187	
1039.64	192	
1041.79	195	
1043.93	195	
1046.07	195	
1048.21	195	
1050.35	197	
1052.49	199	
1054.63	200	
1056.77	198	
1058.91	197	
1061.04	196	
1063.18	195	
1065.31	193	
1067.45	193	
1069.58	195	
1071.71	198	
1073.84	194	
1075.97	194	
1078.1	193	
1080.23	193	
1082.35	192	
1084.48	189	
1086.6	185	
1088.72	182	
1090.85	176	
1092.97	173	
1095.09	168	
1097.21	165	
1099.33	164	
1101.45	162	
1103.56	160	
1105.68	159	
1107.79	158	
1109.91	156	
1112.02	154	
1114.13	154	
1116.24	149	
1118.36	152	
1120.47	152	
1122.57	151	
1124.68	151	
1126.79	151	
1128.9	149	
1131	148	
1133.1	148	
1135.2	148	
1137.31	147	
1139.41	150	
1141.51	150	
1143.61	150	
1145.7	151	
1147.8	152	
1149.9	151	
1151.99	151	
1154.09	150	
1156.18	149	
1158.28	146	
1160.36	148	
1162.46	146	
1164.54	143	
1166.63	142	
1168.72	142	
1170.81	143	
1172.89	145	
1174.98	143	
1177.06	140	
1179.14	139	
1181.23	139	
1183.31	138	
1185.39	141	
1187.47	141	
1189.55	141	
1191.62	141	
1193.7	142	
1195.78	139	
1197.85	139	
1199.92	140	
1202	143	
1204.07	141	
1206.14	140	
1208.21	141	
1210.28	142	
1212.34	142	
1214.41	141	
1216.48	138	
1218.54	138	
1220.61	137	
1222.67	139	
1224.73	141	
1226.8	140	
1228.86	138	
1230.92	136	
1232.98	133	
1235.03	132	
1237.09	129	
1239.15	129	
1241.2	128	
1243.26	126	
1245.31	122	
1247.36	121	
1249.41	120	
1251.46	118	
1253.51	117	
1255.56	117	
1257.61	118	
1259.66	122	
1261.7	126	
1263.75	130	
1265.79	130	
1267.84	129	
1269.88	132	
1271.92	133	
1273.96	132	
1276	131	
1278.04	131	
1280.08	133	
1282.11	133	
1284.15	133	
1286.18	135	
1288.22	136	
1290.25	134	
1292.28	135	
1294.31	138	
1296.34	142	
1298.37	144	
1300.4	150	
1302.43	152	
1304.45	153	
1306.48	154	
1308.5	158	
1310.53	162	
1312.55	164	
1314.57	165	
1316.6	164	
1318.62	168	
1320.64	174	
1322.65	178	
1324.67	181	
1326.69	186	
1328.7	190	
1330.72	192	
1332.73	199	
1334.75	202	
1336.76	205	
1338.77	204	
1340.78	207	
1342.79	204	
1344.79	206	
1346.8	204	
1348.81	203	
1350.82	199	
1352.82	193	
1354.82	186	
1356.83	181	
1358.83	178	
1360.83	177	
1362.83	173	
1364.83	167	
1366.83	163	
1368.83	159	
1370.83	155	
1372.82	152	
1374.81	148	
1376.81	146	
1378.8	143	
1380.8	142	
1382.79	140	
1384.78	141	
1386.77	137	
1388.76	136	
1390.74	135	
1392.73	134	
1394.72	137	
1396.7	140	
1398.69	140	
1400.67	143	
1402.65	143	
1404.63	142	
1406.61	140	
1408.59	143	
1410.57	143	
1412.55	142	
1414.53	140	
1416.5	138	
1418.48	136	
1420.45	136	
1422.43	134	
1424.4	131	
1426.37	131	
1428.34	131	
1430.31	131	
1432.28	135	
1434.25	138	
1436.22	138	
1438.18	139	
1440.15	142	
1442.12	142	
1444.08	142	
1446.04	144	
1448	147	
1449.96	146	
1451.93	145	
1453.88	141	
1455.84	141	
1457.8	143	
1459.76	143	
1461.71	141	
1463.67	142	
1465.62	145	
1467.58	147	
1469.53	151	
1471.48	155	
1473.43	158	
1475.38	158	
1477.33	158	
1479.28	159	
1481.22	160	
1483.17	164	
1485.12	164	
1487.06	166	
1489	166	
1490.95	164	
1492.89	164	
1494.83	167	
1496.77	167	
1498.71	165	
1500.65	165	
1502.58	167	
1504.52	169	
1506.46	171	
1508.39	175	
1510.33	178	
1512.26	181	
1514.19	181	
1516.12	184	
1518.05	193	
1519.98	199	
1521.91	206	
1523.84	213	
1525.77	223	
1527.69	232	
1529.62	242	
1531.54	255	
1533.47	268	
1535.39	285	
1537.31	301	
1539.23	327	
1541.15	359	
1543.07	401	
1544.99	455	
1546.91	527	
1548.82	613	
1550.74	712	
1552.65	824	
1554.57	936	
1556.48	1045	
1558.39	1143	
1560.31	1229	
1562.21	1293	
1564.12	1330	
1566.03	1341	
1567.94	1324	
1569.85	1283	
1571.76	1215	
1573.66	1128	
1575.57	1021	
1577.47	910	
1579.37	795	
1581.27	687	
1583.18	588	
1585.08	506	
1586.98	441	
1588.87	390	
1590.77	355	
1592.67	326	
1594.57	307	
1596.46	295	
1598.35	287	
1600.25	280	
1602.14	272	
1604.03	266	
1605.92	259	
1607.81	250	
1609.7	241	
1611.59	231	
1613.48	221	
1615.36	211	
1617.25	203	
1619.13	194	
1621.02	187	
1622.9	180	
1624.79	176	
1626.67	171	
1628.55	168	
1630.43	165	
1632.31	162	
1634.18	162	
1636.06	160	
1637.94	158	
1639.81	156	
1641.69	155	
1643.56	151	
1645.44	150	
1647.31	149	
1649.18	145	
1651.05	144	
1652.92	144	
1654.79	144	
1656.66	142	
1658.52	143	
1660.39	141	
1662.26	140	
1664.12	137	
1665.98	137	
1667.84	135	
1669.71	136	
1671.57	138	
1673.43	137	
1675.29	135	
1677.15	137	
1679.01	136	
1680.86	134	
1682.72	134	
1684.58	133	
1686.43	132	
1688.28	133	
1690.14	134	
1691.99	131	
1693.84	131	
1695.69	130	
1697.54	127	
1699.39	127	
1701.24	126	
1703.08	129	
1704.93	130	
1706.77	131	
1708.62	133	
1710.46	132	
1712.31	132	
1714.15	132	
1715.99	132	
1717.83	130	
1719.67	133	
1721.51	134	
1723.34	134	
1725.18	135	
1727.02	134	
1728.85	131	
1730.69	131	
1732.52	131	
1734.35	130	
1736.18	133	
1738.02	133	
1739.85	133	
1741.68	131	
1743.51	130	
1745.33	128	
1747.16	126	
1748.99	126	
1750.81	125	
1752.64	125	
1754.46	124	
1756.28	123	
1758.11	123	
1759.93	121	
1761.75	121	
1763.57	119	
1765.39	121	
1767.21	121	
1769.02	120	
1770.84	118	
1772.65	117	
1774.47	115	
1776.28	115	
1778.1	114	
1779.91	117	
1781.72	117	
1783.53	116	
1785.34	118	
1787.15	119	
1788.96	120	
1790.76	120	
1792.57	121	
1794.38	123	
1796.18	124	
1797.98	124	
1799.79	122	
1801.59	121	
1803.39	120	
1805.19	118	
1806.99	115	
1808.79	116	
1810.59	118	
1812.39	120	
1814.19	118	
1815.98	120	
1817.78	119	
1819.57	118	
1821.36	122	
1823.16	123	
1824.95	123	
1826.74	123	
1828.53	123	
1830.32	122	
1832.11	121	
1833.9	118	
1835.68	118	
1837.47	117	
1839.26	116	
1841.04	118	
1842.82	120	
1844.61	120	
1846.39	120	
1848.17	119	
1849.95	118	
1851.73	119	
1853.51	118	
1855.29	118	
1857.06	117	
1858.84	117	
1860.62	119	
1862.39	121	
1864.17	122	
1865.94	123	
1867.71	124	
1869.48	127	
1871.25	131	
1873.02	132	
1874.79	135	
1876.56	139	
1878.33	138	
1880.1	137	
1881.86	138	
1883.63	135	
1885.39	134	
1887.16	130	
1888.92	126	
1890.68	122	
1892.44	119	
1894.2	116	
1895.96	115	
1897.72	114	
1899.48	112	
1901.23	113	
1902.99	116	
1904.75	119	
1906.5	121	
1908.26	122	
1910.01	124	
1911.76	125	
1913.51	126	
1915.26	128	
1917.01	129	
1918.76	127	
1920.51	126	
1922.26	126	
1924.01	124	
1925.75	122	
1927.5	119	
1929.24	118	
1930.99	118	
1932.73	116	
1934.47	116	
1936.21	116	
1937.95	114	
1939.69	114	
1941.43	114	
1943.17	114	
1944.91	115	
1946.64	116	
1948.38	115	
1950.11	114	
1951.85	114	
1953.58	113	
1955.32	113	
1957.05	114	
1958.78	114	
1960.51	115	
1962.24	115	
1963.97	116	
1965.69	117	
1967.42	117	
1969.15	119	
1970.88	120	
1972.6	118	
1974.32	119	
1976.04	121	
1977.77	121	
1979.49	122	
1981.21	120	
1982.93	118	
1984.65	118	
1986.37	117	
1988.08	117	
1989.8	117	
1991.52	117	
1993.23	116	
1994.95	118	
1996.66	117	
1998.38	121	
2000.09	121	
2001.8	123	
2003.51	123	
2005.22	123	
2006.93	121	
2008.64	123	
2010.35	123	
2012.05	122	
2013.76	119	
2015.46	117	
2017.17	116	
2018.87	115	
2020.58	114	
2022.28	113	
2023.98	113	
2025.68	112	
2027.38	111	
2029.08	113	
2030.78	114	
2032.47	117	
2034.17	116	
2035.87	118	
2037.56	119	
2039.26	119	
2040.95	120	
2042.64	119	
2044.34	118	
2046.03	116	
2047.72	114	
2049.41	115	
2051.1	115	
2052.78	112	
2054.47	110	
2056.16	109	
2057.84	111	
2059.53	112	
2061.21	111	
2062.9	112	
2064.58	113	
2066.26	115	
2067.94	114	
2069.62	112	
2071.3	110	
2072.98	108	
2074.66	109	
2076.34	107	
2078.01	104	
2079.69	103	
2081.37	105	
2083.04	105	
2084.71	104	
2086.39	100	
2088.06	104	
2089.73	105	
2091.4	105	
2093.07	106	
2094.74	105	
2096.41	109	
2098.08	111	
2099.74	112	
2101.41	109	
2103.07	108	
2104.74	109	
2106.4	111	
2108.06	112	
2109.73	113	
2111.39	114	
2113.05	118	
2114.71	118	
2116.37	118	
2118.03	117	
2119.68	116	
2121.34	118	
2123	115	
2124.65	114	
2126.31	115	
2127.96	116	
2129.61	115	
2131.27	113	
2132.92	110	
2134.57	110	
2136.22	109	
2137.87	110	
2139.51	113	
2141.16	112	
2142.81	115	
2144.46	114	
2146.1	117	
2147.74	117	
2149.39	118	
2151.03	118	
2152.68	119	
2154.32	122	
2155.96	123	
2157.6	124	
2159.24	122	
2160.88	121	
2162.51	119	
2164.15	119	
2165.79	120	
2167.42	121	
2169.06	118	
2170.69	118	
2172.33	116	
2173.96	114	
2175.59	114	
2177.22	114	
2178.85	117	
2180.48	116	
2182.11	114	
2183.74	115	
2185.37	116	
2187	116	
2188.62	114	
2190.25	114	
2191.87	114	
2193.49	116	
2195.12	117	
2196.74	117	
2198.36	117	
2199.98	113	
2201.6	111	
2203.22	110	
2204.84	107	
2206.46	108	
2208.07	107	
2209.69	109	
2211.31	108	
2212.92	107	
2214.53	109	
2216.15	110	
2217.76	109	
2219.37	109	
2220.98	109	
2222.59	113	
2224.2	113	
2225.81	114	
2227.42	116	
2229.03	114	
2230.64	115	
2232.24	115	
2233.85	114	
2235.45	115	
2237.06	113	
2238.66	113	
2240.26	113	
2241.86	113	
2243.46	113	
2245.06	113	
2246.66	115	
2248.26	115	
2249.86	114	
2251.45	116	
2253.05	115	
2254.65	117	
2256.24	118	
2257.83	118	
2259.43	118	
2261.02	118	
2262.61	119	
2264.21	118	
2265.79	114	
2267.39	111	
2268.97	109	
2270.56	109	
2272.15	111	
2273.74	110	
2275.32	113	
2276.91	114	
2278.49	115	
2280.08	115	
2281.66	114	
2283.24	114	
2284.82	112	
2286.4	112	
2287.98	110	
2289.56	107	
2291.14	109	
2292.72	110	
2294.3	110	
2295.88	109	
2297.45	104	
2299.02	106	
2300.6	109	
2302.17	110	
2303.75	112	
2305.32	115	
2306.89	114	
2308.46	113	
2310.03	112	
2311.6	111	
2313.17	108	
2314.74	107	
2316.3	109	
2317.87	109	
2319.44	110	
2321	113	
2322.56	117	
2324.13	121	
2325.69	124	
2327.25	126	
2328.81	129	
2330.38	132	
2331.94	133	
2333.49	131	
2335.05	133	
2336.61	130	
2338.17	124	
2339.72	122	
2341.28	119	
2342.83	116	
2344.39	113	
2345.94	110	
2347.49	109	
2349.05	105	
2350.6	104	
2352.15	104	
2353.7	107	
2355.25	108	
2356.79	109	
2358.34	111	
2359.89	112	
2361.44	111	
2362.98	113	
2364.53	112	
2366.07	113	
2367.61	111	
2369.16	112	
2370.7	114	
2372.24	114	
2373.78	115	
2375.32	117	
2376.86	117	
2378.39	120	
2379.93	124	
2381.47	126	
2383.01	129	
2384.54	132	
2386.08	130	
2387.61	132	
2389.14	132	
2390.68	133	
2392.21	132	
2393.74	132	
2395.27	131	
2396.8	128	
2398.33	128	
2399.86	128	
2401.39	128	
2402.91	130	
2404.44	133	
2405.96	137	
2407.49	138	
2409.01	142	
2410.54	144	
2412.06	144	
2413.58	146	
2415.1	148	
2416.62	148	
2418.14	151	
2419.66	151	
2421.18	151	
2422.7	146	
2424.21	146	
2425.73	143	
2427.25	141	
2428.76	143	
2430.27	142	
2431.79	142	
2433.3	145	
2434.81	144	
2436.32	145	
2437.84	144	
2439.34	147	
2440.86	146	
2442.36	148	
2443.87	148	
2445.38	149	
2446.88	147	
2448.39	146	
2449.9	144	
2451.4	143	
2452.9	141	
2454.41	142	
2455.91	142	
2457.41	141	
2458.91	139	
2460.41	140	
2461.91	137	
2463.41	139	
2464.91	138	
2466.4	137	
2467.9	134	
2469.4	137	
2470.89	136	
2472.39	139	
2473.88	138	
2475.37	134	
2476.86	133	
2478.36	133	
2479.85	132	
2481.34	133	
2482.83	135	
2484.31	136	
2485.81	133	
2487.29	131	
2488.78	132	
2490.27	135	
2491.75	134	
2493.24	138	
2494.72	135	
2496.2	133	
2497.68	132	
2499.17	133	
2500.65	133	
2502.13	131	
2503.61	127	
2505.09	123	
2506.57	124	
2508.04	122	
2509.52	122	
2511	123	
2512.47	120	
2513.95	119	
2515.42	116	
2516.9	117	
2518.37	121	
2519.84	124	
2521.31	124	
2522.79	128	
2524.25	128	
2525.72	132	
2527.19	133	
2528.66	135	
2530.13	136	
2531.6	137	
2533.06	137	
2534.53	139	
2535.99	140	
2537.45	140	
2538.92	141	
2540.38	142	
2541.84	140	
2543.3	139	
2544.76	137	
2546.23	136	
2547.68	137	
2549.14	137	
2550.6	137	
2552.06	137	
2553.51	137	
2554.97	139	
2556.43	138	
2557.88	139	
2559.33	139	
2560.79	141	
2562.24	140	
2563.69	142	
2565.14	145	
2566.59	151	
2568.04	154	
2569.49	155	
2570.94	151	
2572.39	150	
2573.83	153	
2575.28	152	
2576.72	154	
2578.17	154	
2579.61	155	
2581.06	153	
2582.5	154	
2583.94	154	
2585.38	152	
2586.82	153	
2588.26	152	
2589.7	155	
2591.14	156	
2592.58	160	
2594.02	164	
2595.45	166	
2596.89	167	
2598.33	168	
2599.76	169	
2601.19	173	
2602.62	176	
2604.06	177	
2605.49	181	
2606.92	184	
2608.35	186	
2609.78	189	
2611.21	194	
2612.64	197	
2614.07	200	
2615.5	207	
2616.92	210	
2618.35	218	
2619.77	222	
2621.2	225	
2622.62	231	
2624.04	237	
2625.47	243	
2626.89	245	
2628.31	249	
2629.73	253	
2631.15	256	
2632.57	262	
2633.99	268	
2635.4	272	
2636.82	277	
2638.24	281	
2639.65	287	
2641.07	294	
2642.48	301	
2643.9	307	
2645.31	312	
2646.72	320	
2648.13	324	
2649.55	332	
2650.96	341	
2652.36	347	
2653.77	353	
2655.18	357	
2656.59	362	
2658	369	
2659.4	378	
2660.81	385	
2662.21	395	
2663.62	399	
2665.02	407	
2666.43	414	
2667.83	425	
2669.23	429	
2670.63	432	
2672.03	437	
2673.43	438	
2674.83	442	
2676.23	444	
2677.62	449	
2679.02	446	
2680.42	447	
2681.81	448	
2683.21	447	
2684.6	446	
2686	443	
2687.39	441	
2688.78	438	
2690.17	437	
2691.57	431	
2692.96	429	
2694.34	424	
2695.73	419	
2697.12	411	
2698.51	405	
2699.9	400	
2701.28	391	
2702.67	385	
2704.06	377	
2705.44	367	
2706.82	356	
2708.21	349	
2709.59	339	
2710.97	329	
2712.35	317	
2713.73	308	
2715.11	298	
2716.49	291	
2717.87	282	
2719.25	275	
2720.62	268	
2722	259	
2723.38	251	
2724.75	244	
2726.13	238	
2727.5	230	
2728.87	224	
2730.25	216	
2731.62	210	
2732.99	201	
2734.36	195	
2735.73	189	
2737.1	184	
2738.47	179	
2739.83	177	
2741.2	175	
2742.57	173	
2743.94	174	
2745.3	174	
2746.66	172	
2748.03	168	
2749.39	163	
2750.76	160	
2752.12	159	
2753.48	156	
2754.84	152	
2756.2	150	
2757.56	148	
2758.92	142	
2760.28	139	
2761.63	138	
2762.99	134	
2764.35	133	
2765.7	130	
2767.06	131	
2768.41	131	
2769.76	131	
2771.12	132	
2772.47	132	
2773.82	130	
2775.17	129	
2776.52	126	
2777.87	127	
2779.22	126	
2780.57	122	
2781.92	120	
2783.26	120	
2784.61	118	
2785.96	116	
2787.3	116	
2788.65	116	
2789.99	115	
2791.33	117	
2792.68	116	
2794.02	117	
2795.36	116	
2796.7	117	
2798.04	120	
2799.38	118	
2800.72	118	
2802.06	120	
2803.39	119	
2804.73	120	
2806.07	118	
2807.4	116	
2808.74	117	
2810.07	114	
2811.4	114	
2812.74	112	
2814.07	110	
2815.4	113	
2816.73	110	
2818.06	109	
2819.39	107	
2820.72	107	
2822.05	109	
2823.38	111	
2824.7	112	
2826.03	112	
2827.36	116	
2828.68	116	
2830	115	
2831.33	117	
2832.65	116	
2833.98	115	
2835.3	115	
2836.62	112	
2837.94	113	
2839.26	111	
2840.58	110	
2841.9	108	
2843.22	104	
2844.53	105	
2845.85	103	
2847.17	105	
2848.48	111	
2849.8	111	
2851.11	109	
2852.42	107	
2853.74	106	
2855.05	103	
2856.36	102	
2857.67	102	
2858.98	99	
2860.29	98	
2861.6	98	
2862.91	100	
2864.22	101	
2865.53	102	
2866.83	101	
2868.14	103	
2869.44	106	
2870.75	107	
2872.05	107	
2873.36	110	
2874.66	111	
2875.96	108	
2877.26	108	
2878.56	106	
2879.86	107	
2881.16	106	
2882.46	104	
2883.76	104	
2885.06	103	
2886.35	103	
2887.65	102	
2888.95	103	
2890.24	103	
2891.54	104	
2892.83	104	
2894.13	106	
2895.42	105	
2896.71	103	
2898	104	
2899.29	103	
2900.58	105	
2901.87	105	
2903.16	106	
2904.45	103	
2905.74	103	
2907.02	100	
2908.31	99	
2909.6	101	
2910.88	99	
2912.17	100	
2913.45	100	
2914.73	99	
2916.01	100	
2917.3	100	
2918.58	98	
2919.86	99	
2921.14	101	
2922.42	101	
2923.7	101	
2924.98	101	
2926.25	101	
2927.53	99	
2928.81	98	
2930.08	97	
2931.36	97	
2932.63	97	
2933.91	96	
2935.18	95	
2936.45	94	
2937.72	97	
2938.99	97	
2940.27	95	
2941.54	96	
2942.81	96	
2944.08	99	
2945.34	100	
2946.61	102	
2947.88	101	
2949.14	102	
2950.41	102	
2951.67	101	
2952.94	100	
2954.2	99	
2955.47	100	
2956.73	98	
2957.99	96	
2959.25	93	
2960.51	93	
2961.77	94	
2963.03	95	
2964.29	96	
2965.55	96	
2966.81	97	
2968.06	100	
2969.32	101	
2970.58	99	
2971.83	101	
2973.09	100	
2974.34	97	
2975.59	95	
2976.85	94	
2978.1	93	
2979.35	93	
2980.6	93	
2981.85	91	
2983.1	88	
2984.35	87	
2985.6	88	
2986.85	89	
2988.09	92	
2989.34	93	
2990.58	93	
2991.83	95	
2993.07	95	
2994.32	97	
2995.56	98	
2996.81	100	
2998.05	100	
2999.29	97	
3000.53	99	
3001.77	102	
3003.01	102	
3004.25	101	
3005.49	97	
3006.73	94	
3007.96	92	
3009.2	92	
3010.44	91	
3011.67	90	
3012.91	86	
3014.14	84	
3015.38	87	
3016.61	89	
3017.84	87	
3019.07	88	
3020.3	87	
3021.53	87	
3022.76	86	
3023.99	85	
3025.22	87	
3026.45	89	
3027.68	89	
3028.91	91	
3030.13	88	
3031.36	90	
3032.58	90	
3033.81	92	
3035.03	92	
3036.25	93	
3037.47	94	
3038.7	97	
3039.92	101	
3041.14	99	
3042.36	96	
3043.58	93	
3044.8	92	
3046.02	93	
3047.23	92	
3048.45	91	
3049.67	92	
3050.88	94	
3052.1	93	
3053.31	92	
3054.53	89	
3055.74	91	
3056.95	92	
3058.16	93	
3059.38	93	
3060.59	96	
3061.8	95	
3063.01	97	
3064.22	99	
3065.43	99	
3066.63	97	
3067.84	96	
3069.05	96	
3070.25	97	
3071.46	97	
3072.67	96	
3073.87	94	
3075.07	91	
3076.28	92	
3077.48	93	
3078.68	93	
3079.88	96	
3081.08	97	
3082.28	98	
3083.48	100	
3084.68	102	
3085.88	99	
3087.08	99	
3088.28	101	
3089.47	99	
3090.67	94	
3091.86	92	
3093.06	88	
3094.25	88	
3095.45	85	
3096.64	83	
3097.83	83	
3099.02	86	
3100.21	89	
3101.41	88	
3102.6	90	
3103.78	94	
3104.97	93	
3106.16	93	
3107.35	95	
3108.53	96	
3109.72	94	
3110.91	92	
3112.09	93	
3113.28	91	
3114.46	90	
3115.65	91	
3116.83	90	
3118.01	91	
3119.19	90	
3120.37	93	
3121.55	94	
3122.73	95	
3123.91	93	
3125.09	92	
3126.27	92	
3127.45	93	
3128.62	94	
3129.8	97	
3130.98	98	
3132.15	97	
3133.32	94	
3134.5	95	
3135.67	94	
3136.84	93	
3138.01	90	
3139.19	90	
3140.36	89	
3141.53	86	
3142.7	85	
3143.87	84	
3145.04	83	
3146.2	81	
3147.37	79	
3148.54	81	
3149.7	81	
3150.87	85	
3152.03	88	
3153.2	89	
3154.36	89	
3155.52	90	
3156.69	91	
3157.85	93	
3159.01	89	
3160.17	92	
3161.33	90	
3162.49	90	
3163.65	86	
3164.81	85	
3165.97	83	
3167.12	81	
3168.28	78	
3169.44	77	
3170.59	77	
3171.75	78	
3172.9	76	
3174.05	80	
3175.21	80	
3176.36	83	
3177.51	84	
3178.66	84	
3179.81	84	
3180.96	86	
3182.11	86	
3183.26	90	
3184.41	91	
3185.56	91	
3186.71	92	
3187.85	95	
3189	96	
3190.14	98	
3191.29	99	
3192.43	102	
3193.58	102	
3194.72	104	
3195.86	105	
3197	107	
3198.15	107	
3199.29	108	
3200.43	105	
3201.57	104	
3202.71	102	
3203.84	103	
3204.98	103	
3206.12	105	
3207.25	104	
3208.39	102	
3209.53	102	
3210.66	100	
3211.8	99	
3212.93	101	
3214.06	100	
3215.2	99	
3216.33	97	
3217.46	96	
3218.59	93	
3219.72	91	
3220.85	88	
3221.98	86	
3223.11	87	
3224.24	87	
3225.36	87	
3226.49	88	
3227.62	86	
3228.74	88	
3229.86	90	
3230.99	89	
3232.11	92	
3233.24	92	
3234.36	96	
3235.48	100	
3236.6	98	
3237.73	97	
3238.85	95	
3239.96	90	
3241.08	86	
3242.2	86	
3243.32	82	
3244.44	80	
3245.55	81	
3246.67	79	
3247.79	77	
3248.9	78	
3250.02	78	
3251.13	83	
3252.24	82	
3253.36	83	
3254.47	87	
3255.58	89	
3256.69	92	
3257.8	92	
3258.91	93	
3260.02	92	
3261.13	90	
3262.24	88	
3263.35	86	
3264.45	85	
3265.56	81	
3266.66	82	
3267.77	81	
3268.87	79	
3269.98	78	
3271.08	77	
3272.19	76	
3273.29	77	
3274.39	75	
3275.49	78	
3276.59	79	
3277.69	79	
3278.79	79	
3279.89	82	
3280.99	82	
3282.09	80	
3283.19	79	
3284.28	80	
3285.38	80	
3286.47	78	
3287.57	79	
3288.66	77	
3289.76	74	
3290.85	73	
3291.94	73	
3293.03	72	
3294.13	72	
3295.22	73	
3296.31	73	
3297.4	75	
3298.49	75	
3299.57	75	
3300.66	74	
3301.75	75	
3302.84	73	
3303.92	73	
3305.01	76	
3306.1	78	
3307.18	78	
3308.26	77	
3309.35	77	
3310.43	74	
3311.51	73	
3312.6	77	
3313.68	79	
3314.76	78	
3315.84	79	
3316.92	81	
3318	81	
3319.07	82	
3320.15	82	
3321.23	81	
3322.31	79	
3323.38	79	
3324.46	77	
3325.53	77	
3326.61	79	
3327.68	78	
3328.75	76	
3329.83	75	
3330.9	72	
3331.97	71	
3333.04	70	
3334.11	72	
3335.18	71	
3336.25	69	
3337.32	71	
3338.39	71	
3339.45	71	
3340.52	71	
3341.59	70	
3342.65	69	
3343.72	69	
3344.79	70	
3345.85	73	
3346.91	75	
3347.98	75	
3349.04	76	
3350.1	75	
3351.16	76	
3352.22	75	
3353.28	76	
3354.34	75	
3355.4	75	
3356.46	75	
3357.52	73	
3358.58	74	
3359.63	73	
3360.69	73	
3361.74	71	
3362.8	71	
3363.86	71	
3364.91	72	
3365.96	72	
3367.02	74	
3368.07	73	
3369.12	74	
3370.17	76	
3371.22	75	
3372.27	75	
3373.32	76	
3374.37	78	
3375.42	76	
3376.47	77	
3377.52	79	
3378.56	79	
3379.61	80	
3380.65	80	
3381.7	77	
3382.75	76	
3383.79	75	
3384.83	74	
3385.87	74	
3386.92	75	
3387.96	75	
3389	75	
3390.04	75	
3391.08	75	
3392.12	73	
3393.16	72	
3394.2	72	
3395.24	72	
3396.27	71	
3397.31	73	
3398.35	72	
3399.38	71	
3400.42	70	
3401.45	69	
3402.48	67	
3403.52	69	
3404.55	69	
3405.58	72	
3406.61	75	
3407.65	75	
3408.68	73	
3409.71	75	
3410.73	77	
3411.76	74	
3412.79	73	
3413.82	73	
3414.85	71	
3415.87	71	
3416.9	70	
3417.93	68	
3418.95	67	
3419.98	68	
3421	65	
3422.02	65	
3423.05	65	
3424.07	64	
3425.09	64	
3426.11	63	
3427.13	62	
3428.15	61	
3429.17	60	
3430.19	58	
3431.21	56	
