-116.516516	17.025175
-113.846916	14.567832
-111.180251	13.150583
-108.514338	12.429371
-105.851357	12.060140
-103.186947	11.698834
-100.525467	6.972494
-97.862557	9.057343
-95.204755	8.364103
-92.545523	6.484848
-89.887039	6.555245
-87.231479	1.695571
-84.574491	1.723543
-81.922601	2.771562
-79.269280	5.387413
-76.618880	6.887179
-73.967050	6.702564
-71.320311	10.744056
-68.672142	9.271329
-66.024717	10.306760
-63.380205	10.449883
-60.734265	9.179487
-58.093406	9.911422
-55.451118	10.282051
-52.811738	12.551515
-50.170930	6.380420
-47.530862	6.983683
-44.895866	6.521212
-42.259442	9.465268
-39.625920	10.804662
-36.990970	10.574359
-34.361085	15.184615
-31.727608	17.622378
-29.099193	21.328205
-26.471512	21.292308
-23.842402	22.186014
-21.218349	18.680653
-18.590707	-10.761305
-15.968118	-112.519814
-13.346261	-386.746387
-10.725134	-80.097436
-8.104737	1047.484382
-5.487229	2522.161305
-2.868291	3598.262937
-0.252240	4169.450350
2.363083	4234.582284
4.977679	3789.826573
7.589392	2864.114219
10.202534	1547.814452
12.810642	152.203263
15.422332	-440.662005
18.028991	-310.264336
20.637078	-20.387413
23.244441	18.407925
25.846779	18.017249
28.452695	14.078322
31.053589	12.150117
33.655911	12.023310
36.253216	15.357576
38.854096	22.800932
41.449962	28.155245
44.047255	29.961772
46.643829	32.726807
49.235394	34.486713
51.828387	30.013986
54.418519	26.344988
57.010079	22.179021
59.598779	19.161772
62.188906	19.920280
64.774035	25.533333
67.360590	28.107226
69.946432	24.788345
72.529420	25.225175
75.113834	23.116084
77.691120	20.952914
80.271972	22.581818
82.849975	16.823776
85.427268	14.394406
88.005987	12.017716
90.579724	14.480186
93.154889	14.020047
95.727210	13.950117
98.298823	18.625641
100.867596	24.048951
103.437796	30.917483
106.005158	33.393939
108.573945	29.798135
111.139896	28.664802
113.703012	20.224242
116.269684	25.288112
118.827135	62.533333
121.390271	154.315152
123.948447	272.454545
126.510178	394.955245
129.066952	532.912821
131.625153	692.711888
134.178401	903.483450
136.730950	1159.178089
139.287050	1459.331469
141.838202	1797.203263
144.388657	2138.787413
146.938414	2438.331935
149.485353	2649.071329
152.031595	2750.851282
154.579263	2762.344522
157.126235	2731.530536
159.668272	2704.750583
162.209615	2716.496503
164.750265	2794.908625
167.292341	2928.688578
169.831605	3114.920280
172.368061	3341.544522
174.903825	3628.054545
177.441015	3956.701166
179.977514	4356.585082
182.511207	4896.483916
185.042097	5611.372960
187.572298	6581.010256
190.103924	7858.758974
192.632749	9567.140326
195.158775	11736.610723
197.684115	14278.271329
200.210881	16858.607459
202.734849	19165.191142
205.258133	20818.636830
207.780732	21512.401865
210.300538	21122.360839
212.819661	19734.676923
215.338101	17604.787413
217.857965	15139.957576
220.370828	12715.055012
222.887222	10585.026573
225.402934	8810.391608
227.913756	7481.484848
230.426004	6469.351515
232.935468	5699.906294
235.444254	5100.255012
237.952362	4645.436830
240.461893	4297.920746
242.966544	4018.808858
245.470519	3799.349650
247.975919	3603.578555
250.476443	3433.393007
252.980490	3344.452681
255.477566	3436.050350
257.978166	3745.546853
260.475994	4075.452214
262.973149	4293.304429
265.469631	4332.870862
267.961250	4168.692308
270.456389	3833.010723
272.948762	3352.115618
275.440464	2797.826573
277.929402	2327.172960
280.419765	2072.634965
282.907365	2016.776224
285.392206	2007.589744
287.880562	1972.399068
290.361978	1929.922145
292.846908	1889.502098
295.326993	1860.832634
297.810590	1837.143590
300.289344	1814.025175
302.769522	1802.136597
305.246947	1791.391142
307.723709	1781.940793
310.199808	1780.768765
312.673158	1789.434499
315.145846	1807.129604
317.617873	1827.833566
320.089239	1838.307226
322.557861	1852.221445
325.025823	1845.837296
327.495207	1836.279254
329.959769	1817.935664
332.427835	1792.687646
334.891081	1766.203730
337.353669	1743.288578
339.815601	1704.413520
342.276876	1648.559907
344.735417	1790.779021
347.195380	2411.384149
349.652610	3342.093706
352.109186	4210.875991
354.565108	4790.154312
357.018301	5035.422844
359.472915	4903.899301
361.922728	4413.075991
364.376037	3634.289510
366.824548	2735.683916
369.272408	2096.966434
371.721689	1918.766900
374.166177	1974.105828
376.612087	1998.696037
379.057348	1988.118881
381.499889	1984.158974
383.941783	1981.702564
386.383030	1973.811189
388.821561	1972.054545
391.261514	1988.036830
393.698753	2058.091841
396.133280	2175.800932
398.571295	2312.151049
401.004533	2399.991142
403.439192	2443.829837
405.869079	2430.376224
408.302451	2380.422844
410.731053	2289.478788
413.159014	2187.531002
415.588395	2111.190676
418.013011	2097.304429
420.439049	2150.911422
422.864446	2217.144056
425.289203	2281.719814
427.709202	2350.442890
430.130622	2421.394406
432.549345	2509.694639
434.969489	2626.460140
437.386938	2767.746387
439.805807	2962.793939
442.221983	3224.920746
444.633412	3540.998601
447.048317	3907.347786
449.460532	4453.266667
451.872113	6495.313753
454.283060	11892.463869
456.691321	20809.881119
459.098949	32453.299767
461.505945	43677.320746
463.912310	51408.147319
466.315992	54162.947319
468.719044	51553.641958
471.121466	44005.703963
473.523258	33105.125408
475.922373	21926.644755
478.322907	13336.000932
480.722812	8235.328671
483.117994	6458.760839
485.516643	5926.562704
487.910572	5441.365967
490.303875	4990.857809
492.696552	4602.416317
495.088604	4235.191142
497.482074	3947.554779
499.870833	3804.345455
502.256925	3819.718881
504.644436	3917.763636
507.031325	3980.808858
509.415550	3989.124942
511.801194	3905.618182
514.184175	3725.242424
516.564496	3437.206527
518.946236	3094.667133
521.325317	2774.035431
523.705817	2585.434965
526.083659	2522.897436
528.458846	2495.889977
530.833415	2451.585082
533.209403	2418.450816
535.582737	2388.951981
537.957489	2352.011189
540.327556	2319.809324
542.697007	2296.544988
545.067876	2273.300233
547.434065	2250.570629
549.801672	2227.712821
552.166633	2199.015851
554.530981	2169.950117
556.894717	2139.302098
559.259869	2109.528671
561.620350	2083.330070
563.982249	2066.625175
566.341507	2054.000466
568.698128	2045.943124
571.058193	2043.910956
573.411567	2032.913753
575.768386	2022.820047
578.122570	2014.739860
580.476146	2002.111422
582.829113	2003.175291
585.179449	2004.922611
587.531201	2004.635431
589.876277	2017.161305
592.226817	2024.271795
594.570683	2027.294172
596.920011	2013.091841
599.264691	2003.879720
601.606745	1994.097902
603.950217	1979.248019
606.291066	1967.292308
608.631313	1947.535664
610.968939	1932.251282
613.310000	1921.798135
615.646423	1907.291841
617.984263	1899.838228
620.319486	1887.848951
622.652093	1889.870862
624.986116	1890.999534
627.317526	1894.810256
629.648337	1896.599068
631.978550	1902.243357
634.308165	1910.401399
636.633158	1914.110490
638.963592	1914.161772
641.289404	1920.564569
643.612610	1919.358042
645.937231	1915.834965
648.259247	1904.881119
650.580670	1889.590676
652.899489	1873.784149
655.219724	1859.177622
657.539366	1849.761772
659.856407	1843.964103
662.172856	1834.818182
664.486707	1841.028438
666.801974	1840.829837
669.114644	1837.260140
671.428729	1842.833566
673.738214	1846.192541
676.049115	1849.101166
678.357423	1842.566434
680.665143	1853.956643
682.974277	1869.631235
685.278820	1879.333333
687.582775	1904.324942
689.886145	1934.090443
692.190929	1969.069930
694.491127	1997.051282
696.792739	2008.255478
699.093767	1994.991142
701.390212	1980.760839
703.688073	1951.658741
705.985350	1912.408858
708.282044	1869.287646
710.574162	1842.705361
712.869691	1832.900699
715.160646	1830.890443
717.453016	1828.349650
719.742811	1831.019580
722.032025	1830.511422
724.320660	1832.984615
726.606723	1825.520746
728.894199	1822.805594
731.179104	1815.255478
733.463432	1812.600466
735.745191	1810.744988
738.028364	1817.949184
740.310960	1830.252681
742.589000	1841.726807
744.868455	1852.489977
747.147334	1858.553380
749.425637	1867.952448
751.699391	1867.893706
753.974559	1868.651282
756.249153	1868.699301
758.521187	1865.185548
760.794635	1868.226573
763.065525	1875.268998
765.333859	1883.784149
767.603606	1892.307692
769.870799	1908.904429
772.137421	1920.347786
774.403473	1928.098368
776.666974	1940.836364
778.931888	1951.139394
781.196232	1963.648485
783.456047	1979.838228
785.717274	1999.820513
787.977934	2010.829371
790.236048	2033.400932
792.491617	2065.359907
794.750577	2097.167832
797.003038	2148.512821
799.260866	2286.265268
801.514174	2546.896037
803.764943	2878.516084
806.017124	3186.865734
808.266766	3379.678322
810.517821	3433.375291
812.764364	3348.210256
815.012319	3128.351981
817.257740	2819.132401
819.504572	2482.726807
821.750843	2232.606993
823.992610	2109.203730
826.237759	2066.329604
828.476436	2054.698834
830.718495	2039.068531
832.956056	2035.410723
835.195029	2029.928205
837.431475	2028.482051
839.669332	2025.349650
841.904664	2009.396270
844.137473	2000.672727
846.371693	1998.300233
848.603391	1991.067133
850.834533	1990.471795
853.065122	1990.043823
855.295155	1987.432634
857.524635	1980.605594
859.749633	1976.214452
861.978006	1966.589744
864.201900	1952.689044
866.427204	1942.441026
868.648033	1937.332867
870.872234	1928.135198
873.091962	1925.313753
875.313101	1925.760839
877.533689	1927.890909
879.751767	1941.925874
881.971255	1958.405594
884.186277	1966.954779
886.400752	1978.375291
888.614678	1986.379487
890.828058	1995.437762
893.040890	1993.686713
895.253176	1995.883450
897.462959	1989.106294
899.672197	1977.753846
901.880890	1979.124942
904.087084	1965.214452
906.294687	1961.340793
908.499792	1969.590210
910.704354	1970.420047
912.906421	1971.923543
915.109897	1979.245221
917.310879	1976.721212
919.511320	1965.661072
921.713168	1954.490909
923.908626	1941.842890
926.107443	1932.247552
928.301821	1927.560839
930.499557	1927.103963
932.692857	1919.781352
934.887566	1917.312354
937.079789	1919.685315
939.271474	1910.655944
941.462620	1901.268065
943.651284	1893.579953
945.839412	1882.468065
948.025059	1888.380886
950.214058	1879.646620
952.398634	1882.468531
954.582675	1885.005594
956.770066	1885.211655
958.949153	1884.605594
961.131591	1892.558042
963.313495	1892.367832
965.492924	1890.596270
967.669881	1889.139394
969.848246	1892.078788
972.028018	1888.724009
974.201441	1889.015851
976.378210	1881.327739
978.550572	1870.399068
980.724342	1869.432634
982.893708	1868.583683
985.066418	1868.280653
987.236663	1867.840093
989.406379	1878.160373
991.575566	1883.310490
993.740356	1886.787879
995.908487	1889.582284
998.072224	1883.293240
1000.237367	1876.086713
1002.400051	1871.290909
1004.562210	1856.758974
1006.721912	1851.093240
1008.881090	1848.510490
1011.041674	1850.072261
1013.199803	1848.669930
1015.357408	1854.591142
1017.514490	1866.565501
1019.671049	1869.797203
1021.823228	1874.275991
1023.976813	1875.310956
1026.129877	1878.072727
1028.280493	1874.540326
1030.432514	1870.009790
1032.580162	1871.930536
1034.731142	1876.997203
1036.877751	1892.866667
1039.023841	1899.225175
1041.169413	1901.507692
1043.316390	1905.974359
1045.457078	1908.300233
1047.601096	1916.904895
1049.742673	1919.296970
1051.883734	1926.489977
1054.026199	1925.943124
1056.162385	1932.693240
1058.301897	1946.790676
1060.437053	1955.523077
1062.575534	1969.557110
1064.709661	1984.418182
1066.843275	2013.492308
1068.978294	2060.062937
1071.108963	2133.002331
1073.241037	2311.527273
1075.370682	2624.028904
1077.499815	3014.164103
1079.628436	3339.298834
1081.756546	3532.361305
1083.882230	3556.366900
1086.007404	3414.306760
1088.133982	3132.496970
1090.256222	2759.890443
1092.379867	2387.992075
1094.499178	2130.198601
1096.623717	2025.401399
1098.742011	2002.837296
1100.861710	1999.182284
1102.978990	1991.012587
1105.095764	1980.562238
1107.212031	1973.774359
1109.325882	1957.957110
1111.441138	1946.167832
1113.552070	1935.434499
1115.666315	1917.816317
1117.776239	1902.658275
1119.887567	1896.717949
1121.998390	1897.585082
1124.104897	1883.360839
1126.214714	1876.703497
1128.320216	1877.117949
1130.427121	1875.239161
1132.527811	1878.508625
1134.633713	1881.206527
1136.735306	1879.988345
1138.838302	1886.500699
1140.940797	1890.971096
1143.037085	1896.215385
1145.138581	1890.361772
1147.235773	1902.488112
1149.332468	1937.569697
1151.428664	1987.970629
1153.524363	2053.101632
1155.619563	2118.640093
1157.712368	2161.307692
1159.806574	2183.144056
1161.894589	2166.448019
1163.987802	2121.144522
1166.074827	2046.967832
1168.165151	1978.060140
1170.251188	1919.226107
1172.340522	1877.809790
1174.423675	1861.786946
1176.508230	1850.937995
1178.594187	1844.564569
1180.675862	1846.290443
1182.758939	1844.838228
1184.839630	1837.105828
1186.919829	1838.803730
1188.999537	1847.658741
1191.078754	1846.862005
1193.155589	1857.776690
1195.230043	1864.730070
1197.307788	1866.941725
1199.381264	1877.334732
1201.456140	1885.162238
1203.526749	1890.241026
1205.598760	1881.897436
1207.668394	1875.529604
1209.739429	1865.885781
1211.809976	1855.248951
1213.876262	1857.529604
1215.943949	1861.343590
1218.009264	1864.584149
1220.075979	1876.434965
1222.138438	1896.635431
1224.204182	1920.567832
1226.265673	1917.561305
1228.328563	1929.488578
1230.389086	1929.981352
1232.449125	1931.788345
1234.508682	1927.381352
1236.565873	1919.611189
1238.622583	1903.069464
1240.676930	1894.621445
1242.734557	1887.950583
1244.789822	1882.801399
1246.840846	1876.799068
1248.893270	1887.503963
1250.945214	1883.023776
1252.994800	1873.922145
1255.043907	1866.195338
1257.092536	1860.119347
1259.140686	1849.794406
1261.188357	1847.987879
1263.231799	1839.399068
1265.278515	1841.655478
1267.322878	1842.498834
1269.366765	1848.633100
1271.408300	1844.930070
1273.447486	1840.006061
1275.489945	1837.692774
1277.528181	1836.622844
1279.567816	1832.113287
1281.606976	1828.521678
1283.641917	1823.041958
1285.678257	1819.510956
1287.712253	1813.610723
1289.747647	1808.806527
1291.778827	1804.787879
1293.811405	1805.663869
1295.843512	1804.764569
1297.873278	1801.065734
1299.904442	1804.597669
1301.931398	1798.865734
1303.959752	1796.880653
1305.983902	1798.771096
1308.011316	1795.324009
1310.034528	1789.875524
1312.059138	1791.618182
1314.081414	1793.820979
1316.105087	1797.552914
1318.126427	1803.234499
1320.147299	1816.831702
1322.167704	1812.620979
1324.183916	1810.200932
1326.201525	1823.264802
1328.216806	1824.166900
1330.235346	1818.544056
1332.249697	1813.638695
1334.261722	1813.832168
1336.277004	1819.454545
1338.288101	1825.439161
1340.300595	1830.030303
1342.308906	1824.145921
1344.320473	1825.501166
1346.326000	1834.197669
1348.334783	1829.565501
1350.339388	1819.147319
1352.347247	1818.587413
1354.354644	1818.035897
1356.356010	1813.373427
1358.358773	1817.339394
1360.361075	1817.373893
1362.362918	1812.479254
1364.364301	1809.530536
1366.363371	1808.307692
1368.361982	1807.449883
1370.360135	1797.552448
1372.357829	1791.612587
1374.351361	1783.053147
1376.346289	1776.649417
1378.340759	1779.189277
1380.334774	1770.524942
1382.326480	1761.028904
1384.317732	1753.176690
1386.306678	1746.902564
1388.297019	1747.391142
1390.286905	1747.356643
1392.274488	1746.467133
1394.261616	1747.214918
1396.246443	1748.255012
1398.232665	1744.557576
1400.216587	1741.559907
1402.200056	1735.267133
1404.183072	1734.554312
1406.163791	1735.435431
1408.145904	1739.775758
1410.125721	1750.531469
1412.105086	1748.108625
1414.080313	1751.211189
1416.058779	1747.897436
1418.034950	1742.670396
1420.010673	1737.471329
1421.985946	1733.588345
1423.958928	1736.563170
1425.931462	1732.406993
1427.903548	1724.234033
1429.875187	1728.029371
1431.842697	1723.467599
1433.815281	1731.335664
1435.780060	1735.500699
1437.749910	1740.258741
1439.715637	1747.503030
1441.682756	1746.412587
1443.647592	1751.339394
1445.608308	1746.394406
1447.574093	1739.910490
1449.533922	1738.660140
1451.495144	1733.036830
1453.457759	1730.741259
1455.416259	1729.965967
1457.374316	1720.562238
1459.331932	1719.067133
1461.289106	1717.503030
1463.244004	1726.452681
1465.200294	1731.963636
1467.154310	1731.132401
1469.107886	1729.479720
1471.059189	1730.873660
1473.011884	1724.238695
1474.962308	1721.964569
1476.912292	1708.388811
1478.861838	1706.458275
1480.809115	1712.409324
1482.754125	1718.774825
1484.700526	1723.829837
1486.646490	1727.335664
1488.592017	1731.042890
1490.535279	1742.017716
1492.478104	1744.703030
1494.418666	1746.402331
1496.360619	1735.653613
1498.300310	1734.725408
1500.239567	1735.701166
1502.178388	1740.476457
1504.114950	1734.455012
1506.052903	1730.398135
1507.988597	1734.577156
1509.923858	1740.494172
1511.856863	1735.682984
1513.789435	1730.333333
1515.721575	1721.363170
1517.653283	1721.735664
1519.582737	1724.934732
1521.513582	1725.586014
1523.443995	1718.493706
1525.370336	1711.832634
1527.298068	1713.267599
1529.223549	1718.318881
1531.148601	1716.593007
1533.073224	1717.751981
1534.997418	1711.421911
1536.919364	1712.208392
1538.842701	1724.322611
1540.763792	1722.572028
1542.682638	1716.681119
1544.602873	1715.474126
1546.520866	1713.353380
1548.438432	1719.907692
1550.353756	1718.980420
1552.270470	1714.059207
1554.183129	1712.483450
1556.098992	1716.400000
1558.012615	1732.080653
1559.924001	1722.637762
1561.836775	1711.842890
1563.745500	1717.169697
1565.655614	1712.040559
1567.565305	1711.466200
1569.474573	1714.448485
1571.381607	1714.009324
1573.286408	1716.585548
1575.192598	1723.701632
1577.096556	1732.303497
1579.000093	1726.654545
1580.903210	1727.776690
1582.804097	1725.623310
1584.706373	1720.334266
1586.606421	1718.437762
1588.507856	1715.340326
1590.405258	1706.380420
1592.302241	1699.351981
1594.198806	1697.216317
1596.096759	1694.880186
1597.988877	1697.410723
1599.884188	1703.466200
1601.779082	1707.671795
1603.671754	1707.074126
1605.564010	1714.723077
1607.454045	1716.068065
1609.343666	1711.214452
1611.232870	1707.242890
1613.121660	1702.507226
1615.008232	1699.595338
1616.896192	1694.291375
1618.780135	1692.452214
1620.665466	1690.532867
1622.550382	1685.557110
1624.433085	1690.405594
1626.317175	1691.637296
1628.197254	1679.177156
1630.078719	1678.621911
1631.957974	1675.631702
1633.838615	1672.143590
1635.713452	1667.696503
1637.593270	1659.954779
1639.469084	1654.908625
1641.344487	1657.210723
1643.221276	1651.482051
1645.092269	1648.657809
1646.966443	1650.357576
1648.836619	1662.005128
1650.709975	1656.828904
1652.581128	1658.482051
1654.450079	1660.771562
1656.320416	1652.482051
1658.186759	1650.491375
1660.054488	1637.306760
1661.920018	1633.975758
1663.786934	1630.361772
1665.649861	1640.683916
1667.514173	1637.869464
1669.376289	1625.558042
1671.238001	1625.258275
1673.101097	1621.007459
1674.961999	1614.370163
1676.820707	1611.535664
1678.679012	1606.358042
1680.538702	1612.949184
1682.392624	1608.108625
1684.249720	1615.126807
1686.106413	1611.216317
1687.959130	1606.692308
1689.815017	1597.028904
1691.666931	1581.382751
1693.518444	1576.867133
1695.369556	1570.284848
1697.220268	1566.559907
1699.070579	1567.296503
1700.918705	1566.281119
1702.768216	1578.917016
1704.611978	1576.742657
1706.460689	1573.408392
1708.303654	1568.213054
1710.149786	1557.860606
1711.991955	1562.416317
1713.837290	1554.601399
1715.676884	1547.724476
1717.517862	1546.532401
1719.360223	1537.515152
1721.198628	1533.717949
1723.038416	1518.952914
1724.876029	1516.773893
1726.713246	1516.468065
1728.548290	1509.637762
1730.384717	1519.788811
1732.218972	1524.103497
1734.052832	1531.680186
1735.886299	1535.939860
1737.715819	1541.210256
1739.548498	1537.014452
1741.377233	1532.628904
1743.209125	1522.549650
1745.037076	1520.850816
1746.864634	1521.134266
1748.691800	1517.414918
1750.518575	1522.529138
1752.344959	1525.225641
1754.167405	1523.895571
1755.993007	1523.685315
1757.814674	1511.850816
1759.637723	1508.176690
1761.458610	1498.019114
1763.279109	1506.145921
1765.100989	1511.743124
1766.917169	1502.764569
1768.736501	1509.282051
1770.551906	1512.212587
1772.370461	1515.579021
1774.185091	1510.440093
1775.999335	1505.397203
1777.813191	1509.344988
1779.626661	1501.954779
1781.437978	1494.126340
1783.250676	1489.416317
1785.062987	1477.392075
1786.871381	1485.270396
1788.681155	1491.661072
1790.487015	1494.095571
1792.296020	1495.813054
1794.101112	1506.014918
1795.907585	1508.730536
1797.713674	1506.311422
1799.515853	1495.501166
1801.321175	1493.597669
1803.122589	1490.928671
1804.925383	1498.749184
1806.724271	1501.394872
1808.524540	1495.848951
1810.324427	1501.986946
1812.122173	1506.167832
1813.919537	1506.021911
1815.716522	1499.130070
1817.513126	1487.281585
1819.307591	1484.303963
1821.103435	1488.213986
1822.893625	1490.269464
1824.688710	1487.259674
1826.478144	1481.611655
1828.270714	1472.836364
1830.061149	1469.525408
1831.849450	1468.218648
1833.640886	1460.484848
1835.426676	1456.734266
1837.213846	1457.988811
1838.998884	1462.790210
1840.787056	1461.102564
1842.571342	1466.205594
1844.353499	1461.902098
1846.137034	1455.263403
1847.918441	1455.022378
1849.701227	1456.028904
1851.480132	1463.601399
1853.260417	1464.176224
1855.038575	1464.845221
1856.818112	1465.227040
1858.595524	1459.304429
1860.370812	1462.763636
1862.147478	1454.200466
1863.922022	1453.590210
1865.697944	1451.299301
1867.468245	1452.520746
1869.241674	1457.729138
1871.012983	1456.496503
1872.783922	1452.574825
1874.556237	1456.896037
1876.322939	1447.914219
1878.092767	1448.302098
1879.858731	1447.186480
1881.627818	1451.163636
1883.393045	1454.615385
1885.157902	1455.933800
1886.924137	1457.177156
1888.686513	1447.349650
1890.448522	1440.910023
1892.210163	1447.518881
1893.971438	1438.617249
1895.732345	1433.030303
1897.492886	1426.800466
1899.251317	1424.840093
1901.009382	1425.400932
1902.765340	1428.338462
1904.522674	1427.035897
1906.279643	1414.418648
1908.034505	1417.046620
1909.787263	1422.840559
1911.539657	1410.394872
1913.293426	1401.409790
1915.045092	1397.101166
1916.794656	1401.475058
1918.545595	1404.668531
1920.296172	1404.440559
1922.042909	1396.602797
1923.791023	1396.023310
1925.537037	1402.298368
1927.284427	1407.260606
1929.029718	1401.610723
1930.772912	1407.315618
1932.517481	1417.356643
1934.259955	1425.060606
1936.002068	1416.191142
1937.743821	1405.043823
1939.485215	1391.286713
1941.224514	1386.412587
1942.963455	1384.075991
1944.702037	1385.557576
1946.438528	1384.175291
1948.174661	1389.288112
1949.912168	1393.534732
1951.645853	1393.643357
1953.380913	1391.120746
1955.113885	1392.944056
1956.846499	1392.678322
1958.578758	1397.944056
1960.310660	1392.744056
1962.040476	1395.541725
1963.768207	1396.995804
1965.497313	1397.281119
1967.226064	1392.292774
1968.952731	1390.774359
1970.679044	1395.593007
1972.406730	1391.101632
1974.128880	1392.858275
1975.854131	1390.670396
1977.575576	1381.264336
1979.300120	1387.452214
1981.022585	1395.669464
1982.741246	1396.848019
1984.463006	1401.995804
1986.180964	1407.801399
1987.900295	1410.896503
1989.615827	1398.054545
1991.336179	1403.979953
1993.052733	1400.011655
1994.765490	1395.425641
1996.481344	1398.820047
1998.195124	1402.917016
1999.908555	1395.304895
2001.619915	1397.387879
2003.332647	1390.499301
2005.041589	1380.785082
2006.753624	1376.041026
2008.460149	1382.014918
2010.169766	1379.574825
2011.877317	1385.575291
2013.584520	1400.121212
2015.289656	1406.555711
2016.994447	1408.314685
2018.700609	1403.078788
2020.402989	1394.923077
2022.106741	1384.985082
2023.808429	1383.322145
2025.509773	1379.580886
2027.210771	1371.042890
2028.909708	1379.547786
2030.610017	1380.604662
2032.306551	1383.773427
2034.004456	1390.411655
2035.700302	1382.336131
2037.399234	1379.087179
2039.092680	1377.648951
2040.787497	1377.503497
2042.481972	1379.820047
2044.172678	1374.913753
2045.866468	1382.876457
2047.556491	1378.684848
2049.247885	1376.122145
2050.937226	1374.489044
2052.627937	1366.356643
2054.314885	1357.083916
2056.001494	1352.704429
2057.689473	1341.678788
2059.373691	1338.768765
2061.059281	1328.514219
2062.744531	1326.959441
2064.427733	1317.682517
2066.112304	1309.512821
2067.791413	1310.415385
2069.475307	1318.541725
2071.153741	1321.987879
2072.835251	1326.815385
2074.513011	1325.240559
2076.190433	1324.085315
2077.869225	1316.444289
2079.545975	1312.452681
2081.220683	1310.368298
2082.896760	1307.069464
2084.570797	1302.914685
2086.244498	1305.586480
2087.917864	1301.700699
2089.589192	1297.948252
2091.260185	1291.282984
2092.930844	1286.491841
2094.601168	1284.337995
2096.271159	1287.427040
2097.939114	1298.778089
2099.606736	1303.686713
2101.272323	1304.463869
2102.939279	1308.924476
2104.604202	1308.863403
2106.268793	1312.404662
2107.931352	1312.560373
2109.595279	1313.467133
2111.257176	1319.225175
2112.918741	1328.275058
2114.579975	1333.560373
2116.239181	1343.760839
2117.898056	1342.681585
2119.556602	1340.985548
2121.214818	1338.168765
2122.869310	1330.251748
2124.526867	1320.943124
2126.184095	1320.185548
2127.837601	1318.717949
2129.492475	1321.998135
2131.143631	1323.301166
2132.797848	1338.856876
2134.448349	1334.118881
2136.100216	1343.126340
2137.746675	1343.474592
2139.397889	1336.076923
2141.045389	1337.095105
2142.694256	1332.360839
2144.341105	1321.851748
2145.987627	1318.964103
2147.633824	1310.238228
2149.276313	1302.435897
2150.921860	1285.715152
2152.563700	1287.844289
2154.208597	1282.242890
2155.849789	1280.078322
2157.490657	1288.067133
2159.131201	1287.788811
2160.769733	1291.609324
2162.409631	1290.260606
2164.045829	1286.345455
2165.683394	1279.565501
2167.320635	1274.418648
2168.955867	1273.089510
2170.590778	1272.314219
2172.225367	1270.639627
2173.859634	1273.210256
2175.490208	1277.846620
2177.123834	1280.714219
2178.753768	1282.519347
2180.385067	1280.510956
2182.014361	1277.315618
2183.643336	1271.158042
2185.271991	1273.456410
2186.900327	1267.464802
2188.526661	1258.469930
2190.152676	1255.216317
2191.776690	1255.489977
2193.402068	1259.054079
2195.025447	1258.655944
2196.650189	1258.214918
2198.271251	1258.985548
2199.891996	1251.851282
2201.514106	1255.369231
2203.134218	1244.988345
2204.752333	1239.861538
2206.370133	1236.315618
2207.987618	1233.441026
2209.604787	1237.564569
2211.221641	1230.582751
2212.838179	1235.863403
2214.452725	1233.319814
2216.065278	1230.724476
2217.679195	1233.362704
2219.291121	1226.947786
2220.904410	1223.116550
2222.515709	1218.585082
2224.125018	1215.094172
2225.735691	1212.700233
2227.344375	1207.434499
2228.952746	1213.714685
2230.559131	1210.671795
2232.166879	1213.991608
2233.772640	1215.538462
2235.378090	1214.053613
2236.981555	1216.315618
2238.586383	1213.805594
2240.189227	1216.542191
2241.790089	1218.049883
2243.392312	1216.979953
2244.992554	1222.215385
2246.594158	1215.600932
2248.192110	1205.910956
2249.791424	1199.774359
2251.388758	1198.052681
2252.985783	1199.906294
2254.584171	1203.063403
2256.178910	1209.213054
2257.771672	1206.676457
2259.365797	1202.287646
2260.961283	1199.321212
2262.553125	1193.775758
2264.144660	1185.990676
2265.737556	1185.245688
2267.325143	1189.026573
2268.917427	1194.353846
2270.504403	1198.232634
2272.094407	1190.308625
2273.679108	1183.298834
2275.268501	1169.541725
2276.852593	1161.302098
2278.438046	1159.307226
2280.021529	1158.606061
2281.608039	1158.023310
2283.190914	1159.610256
2284.773487	1158.469464
2286.355756	1155.681119
2287.934396	1147.359907
2289.516059	1145.060140
2291.094094	1134.104429
2292.675152	1133.496970
2294.252583	1127.928671
2295.828051	1133.288112
2297.406541	1140.232634
2298.981407	1143.343590
2300.555972	1146.065734
2302.130237	1144.636830
2303.704201	1141.664336
2305.277865	1138.021445
2306.851228	1131.680653
2308.420973	1127.628904
2309.990419	1118.301632
2311.562883	1120.175291
2313.130073	1118.369697
2314.700281	1110.938928
2316.266874	1105.541259
2317.834827	1102.958974
2319.400824	1105.223310
2320.966524	1110.633566
2322.531927	1118.165035
2324.095375	1131.440559
2325.660183	1141.858741
2327.221383	1155.294639
2328.785597	1153.863869
2330.344549	1152.034499
2331.906516	1148.064802
2333.466532	1152.386946
2335.026252	1144.378089
2336.584023	1140.966900
2338.141499	1132.138462
2339.698681	1129.986014
2341.253915	1129.578555
2342.808856	1128.378089
2344.363503	1122.944522
2345.917855	1121.479720
2347.471915	1122.161305
2349.025680	1127.606527
2350.577502	1116.048019
2352.127380	1113.536131
2353.680266	1103.875524
2355.227910	1096.590210
2356.778561	1097.445221
2358.325621	1094.698834
2359.874039	1096.405128
2361.422166	1091.903030
2362.966704	1088.480653
2364.512600	1085.316550
2366.056558	1079.991142
2367.601873	1078.767832
2369.143603	1084.206993
2370.686690	1082.794406
2372.227841	1089.449883
2373.768704	1097.276457
2375.309276	1101.134266
2376.849560	1099.003730
2378.389555	1093.385082
2379.925972	1086.387413
2381.465390	1079.887179
2383.001231	1077.896037
2384.538428	1076.876457
2386.072050	1075.049883
2387.608673	1079.054545
2389.143364	1085.335198
2390.676126	1078.594872
2392.208601	1085.698368
2393.739148	1088.123077
2395.272693	1085.549184
2396.801027	1088.173893
2398.330718	1085.737063
2399.860123	1083.637296
2401.389242	1087.707692
2402.918077	1089.796270
2404.441706	1086.201399
2405.969972	1074.994872
2407.493034	1079.568765
2409.020730	1082.797203
2410.541587	1082.705828
2412.067077	1079.829371
2413.589006	1075.214452
2415.112291	1073.022844
2416.633654	1071.636830
2418.153099	1069.427506
2419.673898	1060.656876
2421.192778	1052.436364
2422.711376	1052.735198
2424.228057	1058.513287
2425.746092	1062.639627
2427.263846	1068.625175
2428.778049	1075.972028
2430.291971	1081.114685
2431.805613	1081.301166
2433.320610	1081.323077
2434.832058	1075.335664
2436.344861	1071.133800
2437.855750	1061.574359
2439.366361	1053.754779
2440.875060	1048.923543
2442.386745	1048.824709
2443.894887	1049.178089
2445.402751	1051.455478
2446.910337	1051.181352
2448.414382	1056.751049
2449.921413	1055.139394
2451.426535	1049.182284
2452.931380	1037.375291
2454.434317	1033.597203
2455.936979	1029.518881
2457.439364	1019.530536
2458.939844	1010.914219
2460.441677	1005.385082
2461.941605	1004.000932
2463.441259	1001.091841
2464.940636	999.623776
2466.438111	995.602331
2467.933684	999.212587
2469.432237	1009.378089
2470.927262	1009.983217
2472.423639	1005.372494
2473.916490	1009.149650
2475.410694	1013.758042
2476.904624	1012.636830
2478.395030	1004.771096
2479.888414	1009.221445
2481.379900	1008.445221
2482.869489	1003.367366
2484.358806	994.394872
2485.846228	992.818648
2487.336625	989.805594
2488.823503	985.882984
2490.311733	985.241026
2491.796447	985.568298
2493.280890	983.042424
2494.766685	995.013520
2496.250587	991.711888
2497.735841	991.068998
2499.215960	985.542191
2500.699053	993.454545
2502.180255	987.308159
2503.661188	986.659207
2505.140232	991.457343
2506.619007	990.528205
2508.097514	982.227506
2509.575753	981.184615
2511.053723	975.358974
2512.528188	976.855012
2514.005623	974.091375
2515.479554	974.636830
2516.954835	975.136597
2518.429850	981.954312
2519.901363	983.157576
2521.374226	975.105361
2522.845207	967.293706
2524.317538	971.806061
2525.784755	970.762704
2527.254939	971.229371
2528.723242	972.102098
2530.191280	978.053147
2531.659053	986.058275
2533.126561	990.333333
2534.593804	985.319347
2536.057555	984.714685
2537.522656	987.004662
2538.985880	988.967832
2540.450454	982.528205
2541.911538	979.928205
2543.373972	977.411189
2544.836143	981.069930
2546.294828	979.305361
2547.758085	985.909557
2549.216245	981.840093
2550.675754	989.580886
2552.130169	994.105361
2553.589155	995.978555
2555.046269	990.223776
2556.501512	993.773427
2557.956494	991.923543
2559.409606	984.444289
2560.864067	975.427506
2562.316659	974.698834
2563.768991	965.399068
2565.219455	961.228438
2566.672875	955.781352
2568.121213	953.452214
2569.572507	956.598135
2571.021934	968.910490
2572.467889	966.290443
2573.916799	964.253613
2575.362239	960.267599
2576.809027	962.999068
2578.253951	960.310956
2579.698617	956.413986
2581.144632	948.470396
2582.587179	944.040093
2584.031074	943.265734
2585.471504	942.999534
2586.913281	938.705828
2588.353199	938.349184
2589.794464	940.909557
2591.232267	950.242424
2592.673021	950.667133
2594.108711	952.590210
2595.547351	947.182751
2596.984133	941.315618
2598.419060	940.823776
2599.856934	941.702098
2601.289751	939.214452
2602.723915	935.986480
2604.156225	937.839161
2605.589881	942.612587
2607.021684	937.255944
2608.453233	936.981352
2609.884530	932.444755
2611.313974	932.762238
2612.743166	929.778555
2614.170508	927.040559
2615.599195	923.432168
2617.027631	920.418648
2618.452619	920.642890
2619.878954	921.465268
2621.303440	912.549184
2622.729272	907.806527
2624.151660	906.843357
2625.575394	907.169231
2626.997281	909.052681
2628.418919	911.923543
2629.838711	912.731002
2631.259849	917.094172
2632.680737	912.038228
2634.098187	907.120280
2635.518576	902.713753
2636.935528	899.868531
2638.352231	908.972494
2639.768687	912.403263
2641.184893	918.796737
2642.600852	914.686247
2644.014970	913.414918
2645.428841	914.390210
2646.840872	903.982284
2648.254248	899.586014
2649.664194	897.707226
2651.077075	892.717016
2652.486528	891.486713
2653.895735	892.516084
2655.303106	890.551515
2656.713412	887.396270
2658.121881	886.254545
2659.528515	896.821445
2660.934904	896.099301
2662.339459	895.945921
2663.745358	890.951515
2665.149424	891.663403
2666.553245	895.289977
2667.956823	897.096970
2669.358568	899.063869
2670.761657	899.428904
2672.161328	899.420047
2673.562343	908.145921
2674.959942	905.613520
2676.360471	912.674592
2677.757585	909.206061
2679.156042	910.529604
2680.552671	907.075058
2681.949058	899.031702
2683.345204	891.761305
2684.739523	876.921212
2686.135184	872.820513
2687.527437	873.409324
2688.921032	873.936597
2690.312803	879.679254
2691.705917	877.744988
2693.097207	883.338462
2694.486674	887.991608
2695.875901	884.249883
2697.264889	872.828904
2698.655219	863.961305
2700.040564	861.574359
2701.428833	855.372028
2702.815282	848.013986
2704.201492	841.578555
2705.587464	843.949184
2706.970036	851.965501
2708.353951	854.282984
2709.737628	849.152448
2711.121067	844.947319
2712.501110	846.682051
2713.882495	846.368765
2715.262064	843.830769
2716.642975	843.611189
2718.022070	841.874126
2719.399352	847.942657
2720.777975	853.019580
2722.154785	852.976690
2723.531359	855.661538
2724.907697	856.756643
2726.282223	856.043823
2727.658090	853.386480
2729.030570	847.945921
2730.405966	844.151049
2731.776402	837.065734
2733.148179	834.777622
2734.519721	829.844289
2735.889455	829.843823
2737.260530	830.263403
2738.629796	830.968765
2739.998829	827.547786
2741.366056	825.235897
2742.733050	821.430769
2744.099811	818.338462
2745.466339	819.282051
2746.831062	815.507692
2748.195554	821.020979
2749.559813	828.555245
2750.923840	831.564569
2752.287636	832.019580
2753.648058	833.839627
2755.011391	832.504895
2756.369781	831.282051
2757.731081	824.840559
2759.089010	822.683450
2760.449848	808.724009
2761.808887	813.008392
2763.164557	806.227040
2764.523135	798.462005
2765.878346	802.953846
2767.233328	815.504895
2768.586514	824.734266
2769.942606	827.140326
2771.295333	824.538462
2772.647833	817.931935
2774.000104	803.215385
2775.353714	797.911422
2776.703962	780.479254
2778.052417	772.407925
2779.403776	780.160373
2780.751776	779.907226
2782.101114	775.235897
2783.448661	767.181352
2784.795980	766.558508
2786.143073	764.480653
2787.488375	762.760839
2788.833451	762.466200
2790.178300	759.833100
2791.522924	769.965967
2792.864196	772.686247
2794.206806	769.700233
2795.549190	769.556177
2796.891350	771.406061
2798.230160	771.337529
2799.571869	767.668531
2800.910231	762.848485
2802.249930	761.375291
2803.587843	759.090909
2804.923972	762.838228
2806.259877	756.886247
2807.597120	759.498834
2808.932579	762.442424
2810.267815	769.057343
2811.601268	765.759907
2812.936059	764.854545
2814.267508	763.212121
2815.601853	765.364569
2816.931300	760.311888
2818.262084	758.177622
2819.592646	754.324476
2820.921429	750.085781
2822.251548	745.787879
2823.579889	751.549650
2824.908009	751.615851
2826.234351	751.518415
2827.562030	752.628904
2828.886375	754.667599
2830.212057	750.999068
2831.535963	749.895571
2832.859650	748.191142
2834.184672	742.832168
2835.506364	739.269930
2836.827838	742.039161
2838.149093	741.950583
2839.470129	739.656876
2840.789393	739.390676
2842.109992	734.551515
2843.428819	731.730070
2844.747428	728.790210
2846.064266	726.365035
2847.380887	723.678322
2848.697291	719.560839
2850.011925	724.405594
2851.327895	724.614918
2852.640544	726.315618
2853.954529	726.266200
2855.268296	723.483916
2856.581848	725.492774
2857.893632	724.651282
2859.203650	721.746853
2860.515003	720.027972
2861.823041	718.095571
2863.132413	718.130070
2864.441571	717.184615
2865.750513	714.862937
2867.057691	713.775291
2868.363107	717.827972
2869.669857	723.117016
2870.974844	734.490443
2872.279618	735.284848
2873.582630	734.202797
2874.888524	734.690443
2876.189562	737.168298
2877.491935	737.365967
2878.792548	735.644755
2880.094495	730.537063
2881.396229	727.829371
2882.694658	721.522611
2883.994421	725.429837
2885.292427	718.006527
2886.590221	715.361772
2887.886259	714.423776
2889.183630	719.068998
2890.479245	718.046154
2891.774649	720.955245
2893.069842	716.505361
2894.361738	719.366434
2895.656510	723.266200
2896.947985	723.006527
2898.240793	718.355245
2899.533391	708.304429
2900.822695	700.567832
2902.113331	702.866200
2903.402216	695.097436
2904.692434	693.327273
2905.979359	697.674592
2907.267618	702.344056
2908.554126	702.595338
2909.840427	701.106294
2911.126519	694.491841
2912.410863	687.175758
2913.698078	686.013520
2914.980467	688.360839
2916.264188	688.950583
2917.546163	691.482517
2918.827930	695.405594
2920.107953	694.178555
2921.390845	691.070396
2922.671992	692.506760
2923.949857	682.432634
2925.230591	679.396737
2926.508044	678.964103
2927.785291	677.628904
2929.060797	679.321212
2930.339170	682.066667
2931.612728	680.758042
2932.889154	676.908159
2934.163839	674.783683
2935.436784	676.517016
2936.711059	672.236364
2937.983595	678.094172
2939.255927	683.783683
2940.524985	681.458275
2941.796909	679.655478
2943.067095	681.688578
2944.337078	673.463869
2945.606857	669.089977
2946.874899	670.055012
2948.141206	671.399068
2949.407310	672.497436
2950.674744	676.780886
2951.940444	677.132867
2953.205941	675.853147
2954.471236	674.664802
2955.733266	676.623310
2956.996627	671.858741
2958.259785	671.502098
2959.521212	668.964569
2960.783968	667.338462
2962.044993	667.568765
2963.304286	664.350583
2964.563380	657.035897
2965.822273	652.529604
2967.080966	652.744988
2968.339459	650.901632
2969.596223	648.778555
2970.852787	651.294639
2972.107624	654.568298
2973.363789	656.597669
2974.616700	663.474592
2975.870940	656.170629
2977.124981	656.289044
2978.377296	656.789744
2979.629412	653.921678
2980.879804	647.045688
2982.133051	645.392075
2983.381521	639.449883
2984.632846	639.604196
2985.880921	643.079254
2987.128800	650.953380
2988.376481	646.951515
2989.623965	656.897902
2990.869728	657.436830
2992.115295	654.029837
2993.362189	647.523543
2994.605839	643.974359
2995.850817	634.117016
2997.092551	631.601399
2998.337137	634.179953
2999.580004	632.338462
3000.819630	633.586480
3002.062106	636.213986
3003.301343	634.249883
3004.541906	631.139860
3005.780754	624.125874
3007.019406	626.478788
3008.256344	623.917949
3009.494608	623.757110
3010.731158	627.545455
3011.967513	624.174825
3013.203675	627.221445
3014.438124	621.410723
3015.672379	617.929604
3016.906441	616.479254
3018.138791	608.928671
3019.369429	611.383683
3020.602913	603.580886
3021.834685	607.247552
3023.064747	607.655012
3024.294617	605.648485
3025.522777	604.705828
3026.752263	597.525408
3027.980040	601.182751
3029.207627	603.407925
3030.436539	609.912821
3031.660709	610.986014
3032.887722	608.792541
3034.111511	616.813054
3035.336627	613.511422
3036.560036	614.341259
3037.783255	612.706294
3039.004769	604.592075
3040.229124	599.257809
3041.448744	598.715152
3042.669690	602.176690
3043.890447	595.620047
3045.109500	596.760373
3046.329879	595.252214
3047.547041	589.236364
3048.765528	593.105361
3049.982313	596.532867
3051.198911	590.033566
3052.415320	585.514685
3053.628517	590.590676
3054.844551	586.608858
3056.057373	580.031235
3057.273032	582.452214
3058.483968	581.544522
3059.696229	584.619580
3060.908304	588.409324
3062.120192	589.944988
3063.330382	586.266200
3064.540386	588.916550
3065.750204	592.442424
3066.958327	588.360839
3068.166263	585.057343
3069.372504	585.295571
3070.580070	583.132867
3071.785941	581.869930
3072.991628	576.865268
3074.197129	579.320746
3075.400937	579.358974
3076.606069	583.046620
3077.809509	584.482517
3079.011256	586.260606
3080.212820	583.918415
3081.414199	581.041026
3082.615396	574.899301
3083.814901	572.154779
3085.014224	570.339394
3086.214870	576.527273
3087.413826	577.408392
3088.609588	582.090443
3089.808179	578.473193
3091.003576	576.410723
3092.200296	575.644755
3093.393824	570.641958
3094.590180	557.293706
3095.784850	552.628438
3096.976329	550.297436
3098.172139	552.990676
3099.363256	554.202797
3100.555695	552.680186
3101.744947	549.814452
3102.937025	553.666667
3104.127418	556.537063
3105.314626	551.911888
3106.503157	545.338928
3107.693009	545.747786
3108.879678	550.421911
3110.066167	547.922611
3111.252476	550.575291
3112.440107	550.930070
3113.624557	560.331002
3114.807326	560.190676
3115.992918	558.494639
3117.176831	551.246154
3118.359065	542.819114
3119.541120	539.689977
3120.722998	536.062005
3121.904697	527.813054
3123.084718	534.112821
3124.263063	535.562238
3125.444228	539.398601
3126.622219	533.023776
3127.800032	533.812587
3128.977668	531.607925
3130.153629	530.768298
3131.329413	532.203263
3132.506519	533.962704
3133.681950	531.849883
3134.855708	533.645221
3136.027793	530.434033
3137.201200	529.024709
3138.374430	527.076457
3139.545989	531.131469
3140.718868	531.983217
3141.888581	527.190210
3143.059613	524.127739
3144.228976	523.086713
3145.396669	517.195804
3146.567177	514.967366
3147.733026	512.946853
3148.903185	517.636364
3150.068686	521.498834
3151.234014	525.672727
3152.399168	523.858741
3153.564148	517.412587
3154.730448	515.117949
3155.892096	516.209324
3157.055063	512.446154
3158.217858	507.660606
3159.380480	506.691375
3160.541437	506.716084
3161.702221	505.323077
3162.862833	499.305828
3164.021781	495.861538
3165.180558	493.781352
3166.339163	495.510956
3167.497596	495.588345
3168.655857	491.999068
3169.812456	489.503030
3170.967394	489.955711
3172.123651	487.183217
3173.278247	487.099767
3174.432673	480.095105
3175.585439	478.706294
3176.738035	481.153380
3177.890460	483.176690
3179.042716	483.214918
3180.194801	488.322145
3181.343741	491.441026
3182.495487	494.519347
3183.645575	493.768298
3184.794007	494.582284
3185.942270	495.289510
3187.090363	499.369231
3188.238288	498.727739
3189.384558	501.850816
3190.530659	505.310023
3191.675105	507.508159
3192.819384	507.837296
3193.963495	502.514685
3195.108923	491.795804
3196.251213	482.028438
3197.393336	478.306294
3198.535291	481.908625
3199.677079	474.127739
3200.818701	472.811189
3201.957186	475.905828
3203.096989	479.044755
3204.238110	481.345455
3205.376096	480.616317
3206.512433	479.755711
3207.648604	478.759441
3208.786093	482.963636
3209.921932	490.606527
3211.059089	487.439161
3212.191633	486.479720
3213.328459	485.802797
3214.460673	481.422378
3215.594204	476.045688
3216.727571	475.372960
3217.857810	478.248951
3218.990847	478.329604
3220.120758	476.586480
3221.251985	474.761305
3222.380088	471.053613
3223.510987	464.520746
3224.640242	459.033100
3225.767854	453.420979
3226.892344	449.869930
3228.021108	446.537995
3229.146751	449.112821
3230.272232	447.693706
3231.396071	453.098368
3232.522704	456.722611
3233.644740	459.629837
3234.768092	458.027040
3235.891282	462.913287
3237.014310	460.175758
3238.135698	446.872261
3239.256925	433.743124
3240.376513	429.071329
3241.495940	421.101632
3242.613729	427.531002
3243.734310	430.496970
3244.851778	438.140793
3245.969085	445.361305
3247.086232	452.704895
3248.201743	459.028438
3249.318569	457.996270
3250.432284	461.146387
3251.548789	459.543590
3252.663660	452.986014
3253.775422	454.207925
3254.887024	450.735198
3255.999942	445.896037
3257.112701	438.552914
3258.222353	436.621911
3259.333319	443.769231
3260.444127	443.098368
3261.553304	442.248951
3262.660849	438.002797
3263.769708	443.885781
3264.878410	457.526340
3265.984009	462.817249
3267.090922	459.196270
3268.196206	457.097902
3269.302805	462.152914
3270.406303	464.444289
3271.511115	455.189277
3272.615770	448.024709
3273.717326	446.337063
3274.818726	453.393939
3275.921441	455.704429
3277.023998	449.806061
3278.123459	449.663403
3279.225704	446.192541
3280.324853	444.103030
3281.422378	441.004662
3282.519747	441.853613
3283.619899	442.949650
3284.716957	445.922145
3285.813860	446.063869
3286.910608	442.068065
3288.002798	443.556177
3289.099236	450.172028
3290.194052	448.902564
3291.288714	444.197669
3292.381754	442.923077
3293.474640	451.134732
3294.565905	446.527739
3295.658483	438.900233
3296.749440	434.468065
3297.838778	427.325408
3298.927963	428.587413
3300.018461	427.806993
3301.105874	427.351049
3302.193135	422.826573
3303.281708	422.224709
3304.370128	420.962238
3305.454001	418.508159
3306.542116	417.158042
3307.627150	418.665268
3308.710567	419.386014
3309.795297	425.369697
3310.878412	423.382751
3311.962838	423.434965
3313.044186	417.789744
3314.126846	413.400932
3315.207892	403.353380
3316.288787	406.614452
3317.368068	407.306760
3318.447200	413.426107
3319.527642	418.617249
3320.605010	424.914219
3321.683690	426.843823
3322.760759	430.326340
3323.837677	426.045221
3324.912984	425.838695
3325.988142	420.162238
3327.064611	418.543124
3328.138010	418.247552
3329.211260	417.749184
3330.285820	415.015851
3331.358772	417.503963
3332.430115	419.379953
3333.502770	417.894172
3334.572357	412.291841
3335.643255	415.624242
3336.712546	412.631235
3337.783148	407.254079
3338.852143	403.953380
3339.919532	405.743590
3340.985316	402.408858
3342.055326	402.640093
3343.122273	406.998135
3344.186158	408.160839
3345.252811	409.172960
3346.317859	416.866667
3347.381304	414.509557
3348.444603	409.120280
3349.507755	400.903963
3350.570761	400.629837
3351.633621	387.217716
3352.694879	389.145455
3353.753080	388.383683
3354.815502	394.707692
3355.874867	398.892774
3356.934087	405.714219
3357.994617	405.780420
3359.050637	406.934732
3360.109421	406.424242
3361.163698	405.637762
3362.220739	396.110490
3363.276182	394.159907
3364.332933	389.713753
3365.388086	388.117483
3366.441642	390.242424
3367.493602	394.118881
3368.548323	390.241492
3369.599995	393.792541
3370.651524	391.665734
3371.704361	383.744522
3372.754151	376.827506
3373.805250	375.607925
3374.853303	370.604196
3375.904115	375.969697
3376.951883	389.655478
3377.999508	397.716084
3379.046990	397.815851
3380.092880	402.945921
3381.140078	400.854079
3382.184234	394.806993
3383.231148	391.503030
3384.276470	386.633566
3385.318751	376.064802
3386.360892	382.847552
3387.404340	384.777622
3388.447647	380.951981
3389.489365	381.007925
3390.530941	378.115618
3391.572377	380.163636
3392.612223	379.615851
3393.650481	375.419580
3394.690048	377.303030
3395.729473	377.127739
3396.767311	379.858741
3397.803562	380.356643
3398.839674	376.768765
3399.877093	373.937063
3400.911479	368.183683
3401.947172	368.308159
3402.982726	367.598601
3404.015249	363.814452
3405.050525	364.363170
3406.082770	368.483916
3407.114877	370.705828
3408.145400	374.458275
3409.177230	375.601399
3410.208922	373.167366
3411.237586	374.057809
3412.266113	374.202797
3413.295947	376.215851
3414.325642	372.907226
3415.352312	371.407459
3416.380289	375.527273
3417.405241	377.100699
3418.432943	374.937995
3419.457622	372.295105
3420.483607	364.844289
3421.508012	368.421911
3422.532281	370.546853
3423.554971	370.794406
3424.577525	369.647086
3425.601385	371.331002
3426.622225	374.039627
3427.642930	377.210723
3428.664940	374.359907
3429.683932	369.314452
3430.702789	362.147319
3431.722951	352.931469
3432.740097	341.739860
