-116.516516	16.332867
-113.846916	11.521678
-111.180251	9.489510
-108.514338	9.462471
-105.851357	10.666667
-103.186947	12.328205
-100.525467	10.556177
-97.862557	10.639627
-95.204755	8.700233
-92.545523	8.131935
-89.887039	10.366434
-87.231479	6.913753
-84.574491	5.057809
-81.922601	2.579487
-79.269280	3.615851
-76.618880	6.560839
-73.967050	8.453147
-71.320311	6.145455
-68.672142	7.468065
-66.024717	6.071329
-63.380205	8.613054
-60.734265	12.089977
-58.093406	10.077855
-55.451118	7.521212
-52.811738	10.662005
-50.170930	10.693706
-47.530862	15.890443
-44.895866	12.845221
-42.259442	15.052214
-39.625920	13.880653
-36.990970	15.474126
-34.361085	16.706294
-31.727608	13.934732
-29.099193	18.313753
-26.471512	21.541259
-23.842402	25.299767
-21.218349	22.646154
-18.590707	-9.123077
-15.968118	-119.587413
-13.346261	-277.695571
-10.725134	11.892774
-8.104737	994.335664
-5.487229	2237.634033
-2.868291	3135.610723
-0.252240	3594.542657
2.363083	3618.208392
4.977679	3205.375758
7.589392	2380.546387
10.202534	1242.450350
12.810642	124.579021
15.422332	-376.226107
18.028991	-254.333800
20.637078	-21.205128
23.244441	11.474592
25.846779	10.636830
28.452695	13.365035
31.053589	13.324476
33.655911	11.444755
36.253216	9.280653
38.854096	13.616783
41.449962	17.663869
44.047255	14.295571
46.643829	16.531935
49.235394	20.361772
51.828387	20.779487
54.418519	25.143124
57.010079	21.893706
59.598779	18.809790
62.188906	13.956177
64.774035	17.767366
67.360590	16.893706
69.946432	11.542191
72.529420	9.627506
75.113834	8.019114
77.691120	5.588345
80.271972	6.512354
82.849975	7.619580
85.427268	12.636830
88.005987	15.986014
90.579724	21.856410
93.154889	20.643823
95.727210	22.724476
98.298823	23.101166
100.867596	24.318881
103.437796	26.118881
106.005158	27.684848
108.573945	34.752448
111.139896	35.668998
113.703012	37.388345
116.269684	44.859674
118.827135	81.676457
121.390271	168.756177
123.948447	275.509557
126.510178	388.621445
129.066952	509.922611
131.625153	653.038228
134.178401	839.090443
136.730950	1067.888578
139.287050	1351.569697
141.838202	1661.895571
144.388657	1973.378555
146.938414	2264.652214
149.485353	2468.269930
152.031595	2567.639627
154.579263	2572.172494
157.126235	2545.287646
159.668272	2523.360839
162.209615	2539.993939
164.750265	2614.874592
167.292341	2744.164103
169.831605	2918.262005
172.368061	3150.695105
174.903825	3433.968298
177.441015	3765.601399
179.977514	4169.558042
182.511207	4713.708159
185.042097	5438.730070
187.572298	6403.602797
190.103924	7716.361772
192.632749	9440.484848
195.158775	11648.713287
197.684115	14190.547319
200.210881	16849.097436
202.734849	19210.901166
205.258133	20924.850816
207.780732	21691.118415
210.300538	21349.762704
212.819661	19969.423776
215.338101	17834.376690
217.857965	15312.259207
220.370828	12820.583683
222.887222	10582.855944
225.402934	8782.479720
227.913756	7396.675991
230.426004	6369.001399
232.935468	5599.693240
235.444254	4994.992541
237.952362	4514.619580
240.461893	4135.964103
242.966544	3834.962704
245.470519	3598.506294
247.975919	3393.317016
250.476443	3236.753380
252.980490	3156.853613
255.477566	3270.868065
257.978166	3576.454079
260.475994	3910.215851
262.973149	4119.369697
265.469631	4146.006527
267.961250	3986.541725
270.456389	3655.704895
272.948762	3168.400000
275.440464	2630.110023
277.929402	2159.013986
280.419765	1915.317016
282.907365	1840.659674
285.392206	1820.361772
287.880562	1783.813520
290.361978	1732.683916
292.846908	1691.158042
295.326993	1657.660140
297.810590	1625.535198
300.289344	1604.567366
302.769522	1584.286713
305.246947	1575.668531
307.723709	1563.914219
310.199808	1563.132401
312.673158	1585.744056
315.145846	1602.607925
317.617873	1629.267599
320.089239	1650.889510
322.557861	1656.266667
325.025823	1651.606061
327.495207	1640.872261
329.959769	1624.708625
332.427835	1596.535664
334.891081	1571.398135
337.353669	1554.150117
339.815601	1507.130536
342.276876	1454.311422
344.735417	1614.408392
347.195380	2246.624242
349.652610	3204.485315
352.109186	4090.100233
354.565108	4683.789744
357.018301	4915.923077
359.472915	4778.878322
361.922728	4262.117483
364.376037	3448.800932
366.824548	2525.220047
369.272408	1877.002331
371.721689	1690.348252
374.166177	1746.765967
376.612087	1778.523543
379.057348	1768.100699
381.499889	1755.289510
383.941783	1752.938928
386.383030	1746.760373
388.821561	1750.338462
391.261514	1768.398601
393.698753	1850.751515
396.133280	1985.205594
398.571295	2123.989744
401.004533	2222.956177
403.439192	2265.880186
405.869079	2245.264336
408.302451	2181.132867
410.731053	2091.643357
413.159014	1986.702564
415.588395	1907.066667
418.013011	1902.285781
420.439049	1950.800932
422.864446	2009.723077
425.289203	2075.921678
427.709202	2139.737995
430.130622	2202.719814
432.549345	2291.795338
434.969489	2411.725874
437.386938	2563.648019
439.805807	2761.842424
442.221983	3020.098834
444.633412	3334.620047
447.048317	3691.492308
449.460532	4251.633100
451.872113	6289.102564
454.283060	11778.413054
456.691321	20726.541725
459.098949	32425.119347
461.505945	43847.858275
463.912310	51766.018182
466.315992	54682.019580
468.719044	52115.856876
471.121466	44533.370163
473.523258	33539.286713
475.922373	22199.855012
478.322907	13500.278788
480.722812	8176.169697
483.117994	6271.857809
485.516643	5751.794406
487.910572	5257.443823
490.303875	4815.840093
492.696552	4392.057809
495.088604	4018.856876
497.482074	3718.365501
499.870833	3590.041492
502.256925	3627.218648
504.644436	3715.866200
507.031325	3783.986946
509.415550	3778.137063
511.801194	3679.901632
514.184175	3494.055478
516.564496	3202.109557
518.946236	2855.680186
521.325317	2527.758974
523.705817	2348.601865
526.083659	2281.512354
528.458846	2254.653147
530.833415	2209.843823
533.209403	2161.674592
535.582737	2135.582284
537.957489	2099.432634
540.327556	2069.387413
542.697007	2049.763170
545.067876	2025.913287
547.434065	2007.593007
549.801672	1987.339860
552.166633	1960.909557
554.530981	1923.839161
556.894717	1889.177156
559.259869	1858.771096
561.620350	1825.692308
563.982249	1804.629837
566.341507	1791.627506
568.698128	1778.954779
571.058193	1774.453613
573.411567	1766.148718
575.768386	1761.324009
578.122570	1753.879254
580.476146	1754.348718
582.829113	1754.886247
585.179449	1755.637296
587.531201	1755.213054
589.876277	1745.008858
592.226817	1744.310023
594.570683	1751.294172
596.920011	1750.205128
599.264691	1744.440559
601.606745	1738.662471
603.950217	1738.047086
606.291066	1726.062937
608.631313	1704.832168
610.968939	1684.298368
613.310000	1658.836830
615.646423	1647.325408
617.984263	1639.749650
620.319486	1635.350583
622.652093	1627.658741
624.986116	1622.052681
627.317526	1627.834965
629.648337	1621.593007
631.978550	1620.594406
634.308165	1622.823310
636.633158	1626.301632
638.963592	1625.901632
641.289404	1629.750583
643.612610	1627.703497
645.937231	1618.056876
648.259247	1605.626573
650.580670	1605.097436
652.899489	1590.872727
655.219724	1588.125408
657.539366	1580.740793
659.856407	1576.595804
662.172856	1562.127739
664.486707	1557.068531
666.801974	1549.553846
669.114644	1548.114219
671.428729	1553.344988
673.738214	1566.414452
676.049115	1577.744056
678.357423	1596.831235
680.665143	1610.257343
682.974277	1620.000932
685.278820	1617.304895
687.582775	1633.558974
689.886145	1651.912821
692.190929	1687.786946
694.491127	1717.939394
696.792739	1743.159441
699.093767	1745.718881
701.390212	1735.512354
703.688073	1708.270862
705.985350	1665.546853
708.282044	1623.224242
710.574162	1592.664802
712.869691	1564.910956
715.160646	1557.536131
717.453016	1545.500233
719.742811	1547.505361
722.032025	1545.169231
724.320660	1548.858741
726.606723	1549.218182
728.894199	1547.236364
731.179104	1552.654545
733.463432	1551.841958
735.745191	1546.303497
738.028364	1548.147319
740.310960	1545.491841
742.589000	1555.161772
744.868455	1567.544522
747.147334	1578.355245
749.425637	1584.219580
751.699391	1598.703030
753.974559	1606.705361
756.249153	1610.127273
758.521187	1612.181352
760.794635	1618.212121
763.065525	1623.248019
765.333859	1623.672261
767.603606	1627.291841
769.870799	1626.823776
772.137421	1631.614918
774.403473	1646.691841
776.666974	1648.539394
778.931888	1654.974359
781.196232	1668.452681
783.456047	1693.260606
785.717274	1721.324942
787.977934	1749.600932
790.236048	1781.159907
792.491617	1802.849883
794.750577	1839.442424
797.003038	1885.489044
799.260866	2017.181352
801.514174	2271.810256
803.764943	2603.974825
806.017124	2909.062005
808.266766	3106.468065
810.517821	3163.920746
812.764364	3076.918881
815.012319	2848.061538
817.257740	2528.032168
819.504572	2186.593939
821.750843	1943.747319
823.992610	1827.409324
826.237759	1795.573427
828.476436	1781.792075
830.718495	1776.383217
832.956056	1765.682517
835.195029	1763.941725
837.431475	1754.756643
839.669332	1744.657809
841.904664	1743.141725
844.137473	1735.694639
846.371693	1730.441026
848.603391	1725.185082
850.834533	1719.553846
853.065122	1722.482517
855.295155	1717.199068
857.524635	1715.580420
859.749633	1705.965501
861.978006	1697.951515
864.201900	1694.970629
866.427204	1682.331002
868.648033	1671.238695
870.872234	1664.392075
873.091962	1662.170629
875.313101	1664.331935
877.533689	1669.653147
879.751767	1684.855012
881.971255	1691.897436
884.186277	1704.684382
886.400752	1720.611189
888.614678	1726.705361
890.828058	1734.856876
893.040890	1734.717483
895.253176	1725.582751
897.462959	1712.427972
899.672197	1701.745455
901.880890	1690.659207
904.087084	1675.020979
906.294687	1673.683916
908.499792	1674.626107
910.704354	1681.563170
912.906421	1696.940793
915.109897	1702.352914
917.310879	1696.011655
919.511320	1701.177622
921.713168	1700.252681
923.908626	1680.941725
926.107443	1668.875991
928.301821	1654.007925
930.499557	1652.783217
932.692857	1648.721212
934.887566	1648.905828
937.079789	1640.501632
939.271474	1628.695571
941.462620	1626.751049
943.651284	1619.289510
945.839412	1609.004662
948.025059	1604.653147
950.214058	1597.991608
952.398634	1614.357110
954.582675	1608.343590
956.770066	1605.891375
958.949153	1601.237296
961.131591	1604.218182
963.313495	1597.335664
965.492924	1600.772960
967.669881	1606.572960
969.848246	1606.406061
972.028018	1605.725874
974.201441	1604.054545
976.378210	1593.186014
978.550572	1593.590676
980.724342	1595.526807
982.893708	1589.946853
985.066418	1587.455944
987.236663	1593.289044
989.406379	1595.193007
991.575566	1599.992541
993.740356	1600.946387
995.908487	1603.768765
998.072224	1616.199068
1000.237367	1625.659207
1002.400051	1619.341259
1004.562210	1602.891841
1006.721912	1605.154779
1008.881090	1594.495571
1011.041674	1585.165967
1013.199803	1580.734732
1015.357408	1577.722145
1017.514490	1587.308159
1019.671049	1596.131002
1021.823228	1594.722611
1023.976813	1587.749184
1026.129877	1583.106760
1028.280493	1588.822844
1030.432514	1584.847552
1032.580162	1586.362704
1034.731142	1589.268065
1036.877751	1602.910956
1039.023841	1622.253147
1041.169413	1633.289510
1043.316390	1641.793473
1045.457078	1652.483916
1047.601096	1658.575758
1049.742673	1665.522611
1051.883734	1672.651748
1054.026199	1677.517483
1056.162385	1682.320746
1058.301897	1699.418648
1060.437053	1703.074592
1062.575534	1722.719814
1064.709661	1737.790676
1066.843275	1760.302098
1068.978294	1784.014918
1071.108963	1857.070862
1073.241037	2044.243823
1075.370682	2372.416783
1077.499815	2771.189744
1079.628436	3115.235897
1081.756546	3303.083916
1083.882230	3330.262471
1086.007404	3172.755711
1088.133982	2866.588811
1090.256222	2467.701166
1092.379867	2084.474592
1094.499178	1821.132401
1096.623717	1719.150583
1098.742011	1703.150583
1100.861710	1700.324009
1102.978990	1689.531935
1105.095764	1678.331935
1107.212031	1673.460140
1109.325882	1659.643357
1111.441138	1650.674126
1113.552070	1633.226107
1115.666315	1615.489044
1117.776239	1610.079720
1119.887567	1598.800466
1121.998390	1586.000466
1124.104897	1580.970163
1126.214714	1579.253613
1128.320216	1583.036364
1130.427121	1581.655012
1132.527811	1577.885315
1134.633713	1572.345455
1136.735306	1569.688578
1138.838302	1572.282517
1140.940797	1570.689044
1143.037085	1573.381818
1145.138581	1580.942657
1147.235773	1597.313287
1149.332468	1629.601865
1151.428664	1683.814918
1153.524363	1749.469930
1155.619563	1818.165035
1157.712368	1872.022378
1159.806574	1886.647552
1161.894589	1869.972494
1163.987802	1820.618182
1166.074827	1748.249417
1168.165151	1673.075058
1170.251188	1611.953380
1172.340522	1569.747786
1174.423675	1554.083916
1176.508230	1549.118881
1178.594187	1552.773427
1180.675862	1553.926807
1182.758939	1562.639627
1184.839630	1560.289510
1186.919829	1564.215851
1188.999537	1565.280653
1191.078754	1563.494639
1193.155589	1557.720280
1195.230043	1553.605594
1197.307788	1543.500233
1199.381264	1533.407925
1201.456140	1535.789744
1203.526749	1538.058275
1205.598760	1527.583683
1207.668394	1537.173427
1209.739429	1545.180886
1211.809976	1554.492308
1213.876262	1558.367366
1215.943949	1565.418182
1218.009264	1572.197203
1220.075979	1579.986946
1222.138438	1590.731469
1224.204182	1598.257343
1226.265673	1602.576224
1228.328563	1620.778555
1230.389086	1622.718415
1232.449125	1621.276457
1234.508682	1606.398135
1236.565873	1606.342657
1238.622583	1595.570163
1240.676930	1588.667133
1242.734557	1577.632168
1244.789822	1568.508159
1246.840846	1562.370163
1248.893270	1559.027972
1250.945214	1550.023310
1252.994800	1548.855012
1255.043907	1542.588811
1257.092536	1544.117016
1259.140686	1537.508625
1261.188357	1532.826573
1263.231799	1526.878322
1265.278515	1523.830303
1267.322878	1521.106760
1269.366765	1520.789277
1271.408300	1515.019580
1273.447486	1519.058741
1275.489945	1520.882051
1277.528181	1521.008858
1279.567816	1514.238228
1281.606976	1507.458275
1283.641917	1500.505828
1285.678257	1496.682051
1287.712253	1485.453147
1289.747647	1486.316084
1291.778827	1486.072727
1293.811405	1499.844289
1295.843512	1508.411655
1297.873278	1510.766434
1299.904442	1508.651282
1301.931398	1504.606527
1303.959752	1496.539394
1305.983902	1495.673660
1308.011316	1494.612587
1310.034528	1502.307692
1312.059138	1505.027506
1314.081414	1507.586480
1316.105087	1507.222378
1318.126427	1498.756643
1320.147299	1493.066667
1322.167704	1483.528671
1324.183916	1478.743590
1326.201525	1483.188811
1328.216806	1490.773893
1330.235346	1496.231235
1332.249697	1500.005594
1334.261722	1505.168765
1336.277004	1506.710490
1338.288101	1501.086713
1340.300595	1496.606993
1342.308906	1493.571096
1344.320473	1489.237296
1346.326000	1482.258275
1348.334783	1478.741259
1350.339388	1486.065734
1352.347247	1488.189277
1354.354644	1484.034965
1356.356010	1473.216317
1358.358773	1473.227506
1360.361075	1475.842890
1362.362918	1482.233566
1364.364301	1483.311888
1366.363371	1478.654079
1368.361982	1476.214918
1370.360135	1482.023310
1372.357829	1473.598135
1374.351361	1463.799068
1376.346289	1455.840093
1378.340759	1461.389744
1380.334774	1460.661538
1382.326480	1460.680186
1384.317732	1462.807459
1386.306678	1455.134732
1388.297019	1448.895105
1390.286905	1444.733800
1392.274488	1436.553380
1394.261616	1431.471795
1396.246443	1431.099767
1398.232665	1437.402797
1400.216587	1440.235431
1402.200056	1444.215851
1404.183072	1445.314219
1406.163791	1449.895571
1408.145904	1452.218182
1410.125721	1457.779953
1412.105086	1460.525408
1414.080313	1452.159441
1416.058779	1446.946387
1418.034950	1445.019114
1420.010673	1439.310956
1421.985946	1432.686713
1423.958928	1431.550117
1425.931462	1442.337529
1427.903548	1449.165501
1429.875187	1456.102098
1431.842697	1458.455012
1433.815281	1449.770629
1435.780060	1448.884848
1437.749910	1451.032634
1439.715637	1446.372028
1441.682756	1440.049417
1443.647592	1438.699767
1445.608308	1440.343124
1447.574093	1444.057343
1449.533922	1438.468531
1451.495144	1439.452681
1453.457759	1432.051748
1455.416259	1435.379021
1457.374316	1440.833566
1459.331932	1438.465734
1461.289106	1432.689510
1463.244004	1433.656410
1465.200294	1440.286713
1467.154310	1444.689977
1469.107886	1442.658275
1471.059189	1440.709557
1473.011884	1433.130070
1474.962308	1437.028904
1476.912292	1439.748252
1478.861838	1432.832634
1480.809115	1429.113753
1482.754125	1436.371562
1484.700526	1442.655478
1486.646490	1447.798135
1488.592017	1455.760373
1490.535279	1451.370629
1492.478104	1455.710956
1494.418666	1457.800000
1496.360619	1449.364103
1498.300310	1444.632168
1500.239567	1438.753380
1502.178388	1436.536597
1504.114950	1428.862005
1506.052903	1428.124942
1507.988597	1430.923077
1509.923858	1423.250350
1511.856863	1430.320280
1513.789435	1426.505361
1515.721575	1423.952448
1517.653283	1435.545921
1519.582737	1435.758508
1521.513582	1438.672727
1523.443995	1432.981818
1525.370336	1430.340326
1527.298068	1417.186946
1529.223549	1408.052681
1531.148601	1405.606993
1533.073224	1402.752914
1534.997418	1407.657343
1536.919364	1408.579953
1538.842701	1417.154312
1540.763792	1424.666200
1542.682638	1428.514219
1544.602873	1431.336131
1546.520866	1426.761305
1548.438432	1432.728671
1550.353756	1436.050816
1552.270470	1435.056410
1554.183129	1433.604196
1556.098992	1419.252681
1558.012615	1424.587413
1559.924001	1419.658741
1561.836775	1416.496037
1563.745500	1412.075524
1565.655614	1411.502098
1567.565305	1409.019580
1569.474573	1408.538462
1571.381607	1410.423310
1573.286408	1416.758508
1575.192598	1420.567832
1577.096556	1435.338928
1579.000093	1438.134266
1580.903210	1438.334266
1582.804097	1429.273193
1584.706373	1419.344988
1586.606421	1409.807459
1588.507856	1410.744056
1590.405258	1406.186014
1592.302241	1401.580886
1594.198806	1396.581818
1596.096759	1398.948252
1597.988877	1397.490443
1599.884188	1395.775291
1601.779082	1393.775291
1603.671754	1385.732867
1605.564010	1387.243357
1607.454045	1389.182284
1609.343666	1381.541259
1611.232870	1377.470862
1613.121660	1377.602331
1615.008232	1388.584615
1616.896192	1399.278322
1618.780135	1404.330070
1620.665466	1403.564569
1622.550382	1399.508159
1624.433085	1402.432634
1626.317175	1401.427040
1628.197254	1399.051282
1630.078719	1402.285781
1631.957974	1403.964103
1633.838615	1405.402331
1635.713452	1404.986946
1637.593270	1397.410256
1639.469084	1384.126340
1641.344487	1386.372028
1643.221276	1379.730070
1645.092269	1373.119814
1646.966443	1369.151515
1648.836619	1370.211655
1650.709975	1363.558974
1652.581128	1360.880186
1654.450079	1360.455012
1656.320416	1364.008392
1658.186759	1367.010723
1660.054488	1371.512821
1661.920018	1367.046620
1663.786934	1362.951515
1665.649861	1360.606527
1667.514173	1357.772960
1669.376289	1352.971096
1671.238001	1351.746853
1673.101097	1346.309091
1674.961999	1348.559907
1676.820707	1344.869464
1678.679012	1333.969231
1680.538702	1327.499301
1682.392624	1321.891375
1684.249720	1311.362704
1686.106413	1306.371562
1687.959130	1303.866200
1689.815017	1303.669464
1691.666931	1297.658275
1693.518444	1304.693706
1695.369556	1311.294639
1697.220268	1314.540793
1699.070579	1318.102098
1700.918705	1315.859674
1702.768216	1312.068998
1704.611978	1304.032168
1706.460689	1297.003730
1708.303654	1295.034965
1710.149786	1289.715152
1711.991955	1293.460140
1713.837290	1292.579487
1715.676884	1292.132401
1717.517862	1291.014918
1719.360223	1283.777622
1721.198628	1280.280653
1723.038416	1269.060140
1724.876029	1268.120280
1726.713246	1268.484382
1728.548290	1269.064336
1730.384717	1267.143124
1732.218972	1266.314685
1734.052832	1267.536131
1735.886299	1272.094639
1737.715819	1273.287179
1739.548498	1270.950117
1741.377233	1273.520746
1743.209125	1272.462005
1745.037076	1266.476457
1746.864634	1266.251282
1748.691800	1261.978555
1750.518575	1258.534732
1752.344959	1262.744522
1754.167405	1265.842424
1755.993007	1264.409790
1757.814674	1262.862471
1759.637723	1265.815385
1761.458610	1263.655478
1763.279109	1258.155245
1765.100989	1254.410256
1766.917169	1245.816783
1768.736501	1249.966434
1770.551906	1257.848019
1772.370461	1263.998601
1774.185091	1266.754312
1775.999335	1269.508625
1777.813191	1269.700699
1779.626661	1270.898834
1781.437978	1269.561305
1783.250676	1258.552448
1785.062987	1246.286247
1786.871381	1248.733800
1788.681155	1253.181818
1790.487015	1256.538928
1792.296020	1262.172494
1794.101112	1257.028904
1795.907585	1258.454079
1797.713674	1264.217249
1799.515853	1263.682984
1801.321175	1258.009790
1803.122589	1248.265268
1804.925383	1248.247552
1806.724271	1246.262005
1808.524540	1245.547786
1810.324427	1248.156643
1812.122173	1238.722145
1813.919537	1239.407925
1815.716522	1239.490443
1817.513126	1242.134732
1819.307591	1240.419114
1821.103435	1237.287179
1822.893625	1238.684382
1824.688710	1237.360373
1826.478144	1242.517483
1828.270714	1241.001399
1830.061149	1235.569697
1831.849450	1239.343590
1833.640886	1241.857809
1835.426676	1245.233566
1837.213846	1237.600466
1838.998884	1235.441958
1840.787056	1234.124942
1842.571342	1234.437762
1844.353499	1233.069464
1846.137034	1235.198601
1847.918441	1236.129604
1849.701227	1241.429837
1851.480132	1237.200932
1853.260417	1226.163170
1855.038575	1227.238228
1856.818112	1221.187879
1858.595524	1219.740793
1860.370812	1217.398601
1862.147478	1222.678788
1863.922022	1227.504429
1865.697944	1227.828438
1867.468245	1222.622844
1869.241674	1215.098368
1871.012983	1207.905828
1872.783922	1214.341259
1874.556237	1209.841026
1876.322939	1212.636830
1878.092767	1218.527739
1879.858731	1224.318415
1881.627818	1225.654079
1883.393045	1219.810723
1885.157902	1214.727739
1886.924137	1209.147786
1888.686513	1198.886247
1890.448522	1193.358508
1892.210163	1193.098368
1893.971438	1194.488578
1895.732345	1192.485781
1897.492886	1183.343124
1899.251317	1179.006993
1901.009382	1175.963170
1902.765340	1178.900233
1904.522674	1180.172960
1906.279643	1179.447086
1908.034505	1181.394872
1909.787263	1186.547319
1911.539657	1185.372960
1913.293426	1181.904429
1915.045092	1177.018648
1916.794656	1174.141725
1918.545595	1171.765501
1920.296172	1168.800000
1922.042909	1164.334266
1923.791023	1161.859207
1925.537037	1159.705828
1927.284427	1159.484848
1929.029718	1157.538462
1930.772912	1162.031702
1932.517481	1165.279254
1934.259955	1166.151981
1936.002068	1158.236830
1937.743821	1156.755245
1939.485215	1155.090909
1941.224514	1154.881818
1942.963455	1163.179487
1944.702037	1167.453846
1946.438528	1171.523543
1948.174661	1172.882284
1949.912168	1169.743590
1951.645853	1167.987179
1953.380913	1160.617249
1955.113885	1159.413753
1956.846499	1156.924476
1958.578758	1156.107692
1960.310660	1164.902564
1962.040476	1161.218182
1963.768207	1163.862005
1965.497313	1168.350583
1967.226064	1170.861072
1968.952731	1171.282517
1970.679044	1168.935198
1972.406730	1169.424709
1974.128880	1169.415851
1975.854131	1158.057809
1977.575576	1159.583683
1979.300120	1154.378555
1981.022585	1152.654079
1982.741246	1157.219114
1984.463006	1156.650350
1986.180964	1154.254079
1987.900295	1152.828904
1989.615827	1154.333333
1991.336179	1149.748252
1993.052733	1144.657809
1994.765490	1147.715152
1996.481344	1162.227972
1998.195124	1155.064802
1999.908555	1158.725408
2001.619915	1159.848019
2003.332647	1157.685781
2005.041589	1150.059207
2006.753624	1143.626573
2008.460149	1134.843357
2010.169766	1130.705361
2011.877317	1134.942191
2013.584520	1150.088578
2015.289656	1148.649883
2016.994447	1152.388345
2018.700609	1151.355711
2020.402989	1149.091841
2022.106741	1143.567366
2023.808429	1139.093706
2025.509773	1140.641492
2027.210771	1136.395338
2028.909708	1147.626107
2030.610017	1149.340326
2032.306551	1148.031235
2034.004456	1146.782751
2035.700302	1137.200932
2037.399234	1129.228438
2039.092680	1127.889977
2040.787497	1130.748718
2042.481972	1130.689977
2044.172678	1133.758974
2045.866468	1141.595338
2047.556491	1138.643357
2049.247885	1133.804662
2050.937226	1132.972960
2052.627937	1124.464336
2054.314885	1112.648019
2056.001494	1106.335198
2057.689473	1105.953380
2059.373691	1102.597669
2061.059281	1106.074592
2062.744531	1104.758508
2064.427733	1103.273660
2066.112304	1097.027040
2067.791413	1098.103963
2069.475307	1099.148718
2071.153741	1093.784149
2072.835251	1091.675524
2074.513011	1094.042890
2076.190433	1087.434033
2077.869225	1085.031235
2079.545975	1087.353846
2081.220683	1089.014918
2082.896760	1087.193007
2084.570797	1087.035897
2086.244498	1088.342657
2087.917864	1091.372960
2089.589192	1089.694639
2091.260185	1089.246154
2092.930844	1088.927273
2094.601168	1093.444289
2096.271159	1098.209324
2097.939114	1100.479720
2099.606736	1099.423776
2101.272323	1095.088112
2102.939279	1093.696970
2104.604202	1091.083450
2106.268793	1086.230769
2107.931352	1090.763636
2109.595279	1092.347786
2111.257176	1092.063403
2112.918741	1098.297436
2114.579975	1099.602797
2116.239181	1101.683450
2117.898056	1102.848951
2119.556602	1101.457343
2121.214818	1103.434965
2122.869310	1107.675991
2124.526867	1115.438695
2126.184095	1118.660140
2127.837601	1121.476923
2129.492475	1123.199534
2131.143631	1122.889044
2132.797848	1122.230769
2134.448349	1116.326340
2136.100216	1109.907226
2137.746675	1105.279720
2139.397889	1101.322145
2141.045389	1097.005128
2142.694256	1090.553846
2144.341105	1095.155245
2145.987627	1089.188345
2147.633824	1088.493706
2149.276313	1093.493240
2150.921860	1091.670862
2152.563700	1088.329138
2154.208597	1080.060140
2155.849789	1074.777156
2157.490657	1072.537529
2159.131201	1068.559907
2160.769733	1075.963636
2162.409631	1069.119347
2164.045829	1070.084382
2165.683394	1072.683450
2167.320635	1065.642424
2168.955867	1060.050350
2170.590778	1051.545455
2172.225367	1051.633100
2173.859634	1046.513753
2175.490208	1043.292774
2177.123834	1046.337995
2178.753768	1047.745455
2180.385067	1043.339860
2182.014361	1040.243357
2183.643336	1034.651282
2185.271991	1031.136597
2186.900327	1030.697902
2188.526661	1030.806527
2190.152676	1029.798601
2191.776690	1031.491841
2193.402068	1032.566434
2195.025447	1030.117016
2196.650189	1020.982284
2198.271251	1017.005594
2199.891996	1012.750583
2201.514106	1007.691841
2203.134218	1009.991608
2204.752333	1010.593939
2206.370133	1011.242424
2207.987618	1013.387879
2209.604787	1016.754312
2211.221641	1016.122611
2212.838179	1013.128205
2214.452725	1012.251282
2216.065278	1013.813986
2217.679195	1010.065268
2219.291121	1010.374359
2220.904410	1004.482517
2222.515709	1003.080186
2224.125018	1004.755245
2225.735691	1002.344056
2227.344375	1001.550583
2228.952746	1006.916084
2230.559131	1007.790210
2232.166879	1009.797203
2233.772640	1011.445688
2235.378090	1016.303497
2236.981555	1006.346387
2238.586383	1007.855012
2240.189227	1003.183683
2241.790089	996.441958
2243.392312	996.719814
2244.992554	998.005594
2246.594158	997.684382
2248.192110	997.127739
2249.791424	999.218648
2251.388758	995.884382
2252.985783	991.541725
2254.584171	995.286713
2256.178910	998.487179
2257.771672	998.860140
2259.365797	991.616783
2260.961283	994.710956
2262.553125	993.686713
2264.144660	987.938928
2265.737556	989.706760
2267.325143	983.563170
2268.917427	986.212121
2270.504403	985.791608
2272.094407	987.551981
2273.679108	985.901166
2275.268501	977.466200
2276.852593	980.287646
2278.438046	970.963170
2280.021529	974.739860
2281.608039	979.627040
2283.190914	974.354779
2284.773487	976.713753
2286.355756	975.061538
2287.934396	970.840793
2289.516059	969.132867
2291.094094	962.137296
2292.675152	957.310023
2294.252583	947.513054
2295.828051	939.958042
2297.406541	934.310723
2298.981407	930.376224
2300.555972	934.565734
2302.130237	928.060140
2303.704201	920.674592
2305.277865	926.003730
2306.851228	924.525408
2308.420973	924.535664
2309.990419	924.222378
2311.562883	922.534266
2313.130073	925.245221
2314.700281	928.747786
2316.266874	931.067599
2317.834827	930.440559
2319.400824	926.672727
2320.966524	935.166900
2322.531927	931.634033
2324.095375	933.089510
2325.660183	942.729138
2327.221383	950.470396
2328.785597	952.263869
2330.344549	958.317016
2331.906516	957.299301
2333.466532	956.169697
2335.026252	949.698834
2336.584023	945.837296
2338.141499	939.640559
2339.698681	934.012587
2341.253915	940.101166
2342.808856	943.818182
2344.363503	942.387879
2345.917855	941.164103
2347.471915	936.805128
2349.025680	936.347319
2350.577502	935.037296
2352.127380	928.554779
2353.680266	927.345455
2355.227910	918.835897
2356.778561	923.446620
2358.325621	927.917016
2359.874039	925.125408
2361.422166	926.169697
2362.966704	931.962704
2364.512600	929.453613
2366.056558	922.495571
2367.601873	913.172028
2369.143603	914.721212
2370.686690	905.526340
2372.227841	906.167832
2373.768704	904.877855
2375.309276	894.316550
2376.849560	897.929604
2378.389555	903.119814
2379.925972	897.870396
2381.465390	895.629837
2383.001231	896.884382
2384.538428	906.462937
2386.072050	906.753846
2387.608673	908.580886
2389.143364	904.495105
2390.676126	899.463869
2392.208601	910.926807
2393.739148	912.518415
2395.272693	913.543590
2396.801027	915.950117
2398.330718	914.812121
2399.860123	914.899767
2401.389242	913.537529
2402.918077	903.965501
2404.441706	898.465734
2405.969972	895.318881
2407.493034	894.131469
2409.020730	890.851282
2410.541587	887.379487
2412.067077	889.734266
2413.589006	889.074592
2415.112291	890.648019
2416.633654	894.055478
2418.153099	889.656876
2419.673898	884.963636
2421.192778	880.965035
2422.711376	874.319347
2424.228057	875.268998
2425.746092	875.430303
2427.263846	883.886713
2428.778049	883.498834
2430.291971	886.022378
2431.805613	885.336131
2433.320610	878.440093
2434.832058	869.805594
2436.344861	862.528205
2437.855750	855.627506
2439.366361	855.633566
2440.875060	860.757110
2442.386745	861.819114
2443.894887	858.961305
2445.402751	861.291841
2446.910337	867.440093
2448.414382	870.082984
2449.921413	869.928671
2451.426535	863.544988
2452.931380	865.861538
2454.434317	861.531002
2455.936979	858.611189
2457.439364	852.082051
2458.939844	842.933333
2460.441677	846.366900
2461.941605	850.531935
2463.441259	842.965501
2464.940636	838.184149
2466.438111	836.636830
2467.933684	836.848019
2469.432237	833.559907
2470.927262	834.993473
2472.423639	834.003730
2473.916490	834.658741
2475.410694	835.972960
2476.904624	836.280653
2478.395030	834.281585
2479.888414	839.311422
2481.379900	840.396737
2482.869489	840.221911
2484.358806	836.756177
2485.846228	832.366900
2487.336625	828.497902
2488.823503	829.825175
2490.311733	826.851282
2491.796447	832.028904
2493.280890	837.396270
2494.766685	840.729604
2496.250587	842.644289
2497.735841	848.167832
2499.215960	837.328671
2500.699053	838.275991
2502.180255	838.859674
2503.661188	841.175291
2505.140232	838.437296
2506.619007	834.720280
2508.097514	832.336597
2509.575753	827.649417
2511.053723	824.260140
2512.528188	820.206527
2514.005623	816.393473
2515.479554	824.192075
2516.954835	821.272727
2518.429850	828.685315
2519.901363	828.074126
2521.374226	831.732867
2522.845207	829.602797
2524.317538	825.160839
2525.784755	818.965501
2527.254939	810.750117
2528.723242	810.511422
2530.191280	807.909091
2531.659053	804.317949
2533.126561	808.371096
2534.593804	806.972960
2536.057555	810.116084
2537.522656	807.413054
2538.985880	811.195804
2540.450454	816.334732
2541.911538	821.935664
2543.373972	829.643823
2544.836143	829.055944
2546.294828	829.431702
2547.758085	829.699767
2549.216245	828.288112
2550.675754	828.457809
2552.130169	828.957576
2553.589155	831.068065
2555.046269	824.357576
2556.501512	821.434499
2557.956494	819.066200
2559.409606	813.365501
2560.864067	812.457809
2562.316659	811.047086
2563.768991	812.711422
2565.219455	814.763170
2566.672875	815.850350
2568.121213	810.904895
2569.572507	806.448485
2571.021934	806.099767
2572.467889	803.867599
2573.916799	801.903497
2575.362239	798.406527
2576.809027	792.529138
2578.253951	791.641958
2579.698617	787.178555
2581.144632	785.411655
2582.587179	784.479720
2584.031074	781.752448
2585.471504	782.875991
2586.913281	780.054079
2588.353199	780.283916
2589.794464	777.896970
2591.232267	778.048485
2592.673021	775.118881
2594.108711	777.578089
2595.547351	780.294639
2596.984133	778.633566
2598.419060	771.373427
2599.856934	768.968298
2601.289751	769.066667
2602.723915	767.795338
2604.156225	765.483450
2605.589881	770.335198
2607.021684	768.409790
2608.453233	771.665734
2609.884530	770.769231
2611.313974	765.112354
2612.743166	755.403263
2614.170508	751.251748
2615.599195	754.978089
2617.027631	752.719347
2618.452619	755.166434
2619.878954	764.373893
2621.303440	764.297902
2622.729272	766.092308
2624.151660	763.669930
2625.575394	758.851282
2626.997281	756.085315
2628.418919	758.029371
2629.838711	758.270396
2631.259849	761.934266
2632.680737	762.689044
2634.098187	763.499767
2635.518576	761.242890
2636.935528	754.908625
2638.352231	749.673193
2639.768687	744.903030
2641.184893	748.440093
2642.600852	748.940326
2644.014970	752.668531
2645.428841	756.936597
2646.840872	755.443823
2648.254248	756.025641
2649.664194	757.515152
2651.077075	750.714219
2652.486528	743.718881
2653.895735	741.234499
2655.303106	741.165967
2656.713412	737.250816
2658.121881	741.728671
2659.528515	743.933333
2660.934904	744.833100
2662.339459	747.612121
2663.745358	750.800932
2665.149424	751.118415
2666.553245	742.497902
2667.956823	744.169231
2669.358568	739.819580
2670.761657	740.556177
2672.161328	742.870862
2673.562343	739.669930
2674.959942	736.374825
2676.360471	730.001399
2677.757585	727.498834
2679.156042	722.099301
2680.552671	718.794406
2681.949058	719.149184
2683.345204	717.239627
2684.739523	722.763636
2686.135184	720.613520
2687.527437	722.987413
2688.921032	721.399068
2690.312803	716.414918
2691.705917	711.522145
2693.097207	705.987879
2694.486674	704.484848
2695.875901	702.647086
2697.264889	698.288578
2698.655219	699.256410
2700.040564	696.475991
2701.428833	705.534266
2702.815282	704.689044
2704.201492	700.671795
2705.587464	700.410256
2706.970036	703.826107
2708.353951	700.128671
2709.737628	705.520280
2711.121067	700.387879
2712.501110	704.410256
2713.882495	701.310490
2715.262064	706.934266
2716.642975	703.213986
2718.022070	694.088112
2719.399352	694.058741
2720.777975	688.628438
2722.154785	685.562704
2723.531359	685.755245
2724.907697	686.565501
2726.282223	689.635897
2727.658090	690.414918
2729.030570	699.413054
2730.405966	699.439627
2731.776402	696.241492
2733.148179	691.862005
2734.519721	681.966434
2735.889455	682.259207
2737.260530	675.668531
2738.629796	678.235897
2739.998829	677.462471
2741.366056	681.422844
2742.733050	687.649417
2744.099811	691.095105
2745.466339	692.794406
2746.831062	690.415385
2748.195554	684.597669
2749.559813	684.147786
2750.923840	680.721678
2752.287636	683.083450
2753.648058	680.457343
2755.011391	683.517949
2756.369781	690.187879
2757.731081	688.497902
2759.089010	688.943590
2760.449848	686.767366
2761.808887	681.378089
2763.164557	669.655012
2764.523135	656.730070
2765.878346	661.700233
2767.233328	660.005128
2768.586514	664.526340
2769.942606	666.659674
2771.295333	661.674592
2772.647833	671.156177
2774.000104	667.978089
2775.353714	661.317483
2776.703962	652.624709
2778.052417	646.647552
2779.403776	656.034499
2780.751776	653.046620
2782.101114	654.867599
2783.448661	652.225641
2784.795980	654.613054
2786.143073	659.209790
2787.488375	648.571562
2788.833451	640.358974
2790.178300	637.418182
2791.522924	634.234033
2792.864196	634.187879
2794.206806	634.227506
2795.549190	638.627506
2796.891350	637.440093
2798.230160	638.048485
2799.571869	635.383683
2800.910231	627.141259
2802.249930	620.696970
2803.587843	617.927739
2804.923972	619.496503
2806.259877	623.883916
2807.597120	627.373427
2808.932579	634.771562
2810.267815	636.167366
2811.601268	635.413054
2812.936059	638.982751
2814.267508	636.215851
2815.601853	631.904895
2816.931300	629.283450
2818.262084	625.125874
2819.592646	621.261538
2820.921429	616.121212
2822.251548	615.375291
2823.579889	615.357576
2824.908009	613.379487
2826.234351	616.675058
2827.562030	617.143590
2828.886375	618.792541
2830.212057	618.282517
2831.535963	616.598135
2832.859650	619.312821
2834.184672	624.847552
2835.506364	627.037296
2836.827838	624.482517
2838.149093	616.678788
2839.470129	614.158508
2840.789393	608.685315
2842.109992	599.709557
2843.428819	593.774825
2844.747428	594.312821
2846.064266	595.779953
2847.380887	603.465734
2848.697291	604.525408
2850.011925	604.723077
2851.327895	601.742657
2852.640544	603.295105
2853.954529	601.911422
2855.268296	599.174825
2856.581848	598.335664
2857.893632	602.970163
2859.203650	601.924942
2860.515003	605.485315
2861.823041	603.767366
2863.132413	600.701166
2864.441571	595.052214
2865.750513	590.989744
2867.057691	587.164103
2868.363107	582.323077
2869.669857	576.785082
2870.974844	582.140326
2872.279618	580.822378
2873.582630	583.725408
2874.888524	587.502098
2876.189562	591.988345
2877.491935	591.386946
2878.792548	588.875058
2880.094495	590.611189
2881.396229	589.808392
2882.694658	587.420979
2883.994421	592.553846
2885.292427	591.572494
2886.590221	595.681585
2887.886259	592.216317
2889.183630	594.006527
2890.479245	588.800466
2891.774649	591.200466
2893.069842	591.283916
2894.361738	586.748718
2895.656510	587.456410
2896.947985	589.355711
2898.240793	587.083450
2899.533391	587.023776
2900.822695	575.102098
2902.113331	579.493240
2903.402216	582.533333
2904.692434	585.921212
2905.979359	585.181818
2907.267618	585.433566
2908.554126	580.649417
2909.840427	580.910023
2911.126519	577.746387
2912.410863	577.217249
2913.698078	569.824242
2914.980467	571.965035
2916.264188	572.321212
2917.546163	566.986946
2918.827930	563.778555
2920.107953	563.103497
2921.390845	557.960373
2922.671992	563.617249
2923.949857	562.351515
2925.230591	561.811655
2926.508044	560.779021
2927.785291	564.816783
2929.060797	563.530536
2930.339170	561.186480
2931.612728	559.079254
2932.889154	556.093706
2934.163839	555.065268
2935.436784	554.119814
2936.711059	554.776224
2937.983595	551.209790
2939.255927	553.233566
2940.524985	554.290909
2941.796909	553.476923
2943.067095	553.411189
2944.337078	554.432168
2945.606857	553.133800
2946.874899	549.919347
2948.141206	546.044755
2949.407310	550.063869
2950.674744	551.319347
2951.940444	555.359441
2953.205941	554.493706
2954.471236	549.772028
2955.733266	548.559441
2956.996627	546.231235
2958.259785	543.221445
2959.521212	537.601865
2960.783968	536.055944
2962.044993	548.516084
2963.304286	551.491841
2964.563380	555.775758
2965.822273	553.544988
2967.080966	547.986014
2968.339459	549.545455
2969.596223	548.261072
2970.852787	544.668065
2972.107624	544.472727
2973.363789	543.741725
2974.616700	542.897436
2975.870940	533.875524
2977.124981	529.324942
2978.377296	522.810723
2979.629412	525.140793
2980.879804	529.004196
2982.133051	533.828438
2983.381521	534.028904
2984.632846	534.936131
2985.880921	534.420047
2987.128800	533.737529
2988.376481	534.734732
2989.623965	537.589744
2990.869728	536.199534
2992.115295	536.835431
2993.362189	531.383217
2994.605839	528.014452
2995.850817	525.404196
2997.092551	517.600466
2998.337137	515.591142
2999.580004	513.048951
3000.819630	513.851748
3002.062106	518.303497
3003.301343	515.930536
3004.541906	510.524476
3005.780754	509.892774
3007.019406	507.094172
3008.256344	505.657809
3009.494608	500.991142
3010.731158	500.366900
3011.967513	495.932401
3013.203675	499.489510
3014.438124	502.225641
3015.672379	505.999068
3016.906441	503.282051
3018.138791	509.880186
3019.369429	509.937995
3020.602913	507.717949
3021.834685	507.038695
3023.064747	509.725874
3024.294617	509.300233
3025.522777	513.487179
3026.752263	509.954779
3027.980040	510.655012
3029.207627	504.204662
3030.436539	502.316550
3031.660709	496.627506
3032.887722	494.256876
3034.111511	501.736597
3035.336627	506.143124
3036.560036	507.076457
3037.783255	508.480186
3039.004769	506.616317
3040.229124	501.595804
3041.448744	496.963170
3042.669690	494.422844
3043.890447	498.417716
3045.109500	500.859207
3046.329879	509.154312
3047.547041	508.931002
3048.765528	505.316550
3049.982313	501.142657
3051.198911	495.380420
3052.415320	487.112354
3053.628517	481.818182
3054.844551	481.560839
3056.057373	480.947319
3057.273032	478.577156
3058.483968	482.894172
3059.696229	486.818648
3060.908304	488.966434
3062.120192	488.444289
3063.330382	485.500699
3064.540386	481.559441
3065.750204	472.687179
3066.958327	468.028205
3068.166263	468.443357
3069.372504	471.681818
3070.580070	477.288578
3071.785941	484.825874
3072.991628	483.874126
3074.197129	487.117716
3075.400937	484.636830
3076.606069	478.414685
3077.809509	472.567366
3079.011256	467.979487
3080.212820	468.361772
3081.414199	467.425175
3082.615396	470.868531
3083.814901	468.313287
3085.014224	464.132867
3086.214870	473.146853
3087.413826	471.303497
3088.609588	471.721678
3089.808179	466.672261
3091.003576	463.850816
3092.200296	460.690909
3093.393824	456.795804
3094.590180	452.972028
3095.784850	451.494172
3096.976329	449.703963
3098.172139	457.069464
3099.363256	457.221445
3100.555695	463.170629
3101.744947	461.271795
3102.937025	463.450350
3104.127418	458.798601
3105.314626	456.921212
3106.503157	453.435897
3107.693009	450.559441
3108.879678	446.589277
3110.066167	442.952914
3111.252476	444.972960
3112.440107	451.171562
3113.624557	454.684848
3114.807326	453.993473
3115.992918	449.062471
3117.176831	452.524942
3118.359065	451.742657
3119.541120	443.061538
3120.722998	437.451748
3121.904697	433.244289
3123.084718	439.015851
3124.263063	441.861538
3125.444228	445.853613
3126.622219	443.825641
3127.800032	445.558508
3128.977668	447.844755
3130.153629	446.910490
3131.329413	446.084848
3132.506519	446.787879
3133.681950	448.517016
3134.855708	443.238695
3136.027793	442.075524
3137.201200	440.356177
3138.374430	437.558508
3139.545989	434.661072
3140.718868	430.183217
3141.888581	431.635897
3143.059613	441.089510
3144.228976	439.893240
3145.396669	441.550583
3146.567177	435.031702
3147.733026	436.437762
3148.903185	432.849883
3150.068686	429.652681
3151.234014	420.950117
3152.399168	421.723543
3153.564148	422.642890
3154.730448	422.951515
3155.892096	418.475524
3157.055063	419.673193
3158.217858	415.091841
3159.380480	414.080186
3160.541437	405.548718
3161.702221	400.313287
3162.862833	398.697436
3164.021781	401.549650
3165.180558	401.772028
3166.339163	404.954312
3167.497596	406.613986
3168.655857	411.663869
3169.812456	412.852681
3170.967394	409.667599
3172.123651	408.388345
3173.278247	408.181818
3174.432673	411.804196
3175.585439	411.522611
3176.738035	410.209790
3177.890460	415.865734
3179.042716	414.062937
3180.194801	416.868531
3181.343741	410.113753
3182.495487	406.981818
3183.645575	406.508159
3184.794007	402.774825
3185.942270	402.591142
3187.090363	401.142191
3188.238288	397.124009
3189.384558	404.346853
3190.530659	405.425641
3191.675105	407.824242
3192.819384	406.513753
3193.963495	406.707692
3195.108923	403.109091
3196.251213	404.257343
3197.393336	406.895571
3198.535291	405.821445
3199.677079	399.116084
3200.818701	401.788811
3201.957186	399.358042
3203.096989	399.690443
3204.238110	402.611655
3205.376096	402.324942
3206.512433	400.815385
3207.648604	407.427040
3208.786093	407.237296
3209.921932	405.223310
3211.059089	400.492774
3212.191633	400.622844
3213.328459	394.188345
3214.460673	387.914219
3215.594204	378.503963
3216.727571	375.136597
3217.857810	376.662471
3218.990847	382.982751
3220.120758	383.435431
3221.251985	388.542657
3222.380088	393.919814
3223.510987	395.837762
3224.640242	392.962704
3225.767854	385.193473
3226.892344	376.696970
3228.021108	378.473660
3229.146751	377.677389
3230.272232	375.204662
3231.396071	372.241492
3232.522704	368.259674
3233.644740	369.204662
3234.768092	368.600932
3235.891282	367.993939
3237.014310	367.472261
3238.135698	367.754312
3239.256925	370.620513
3240.376513	368.830769
3241.495940	365.008858
3242.613729	370.266667
3243.734310	372.241958
3244.851778	376.649883
3245.969085	380.698834
3247.086232	379.478322
3248.201743	382.706294
3249.318569	384.130536
3250.432284	379.846154
3251.548789	377.633566
3252.663660	372.771562
3253.775422	376.986014
3254.887024	375.584615
3255.999942	376.155245
3257.112701	371.237762
3258.222353	374.011655
3259.333319	377.540793
3260.444127	379.347786
3261.553304	373.350117
3262.660849	368.761305
3263.769708	378.373893
3264.878410	391.043823
3265.984009	394.531935
3267.090922	391.353846
3268.196206	386.739860
3269.302805	390.430303
3270.406303	387.759907
3271.511115	381.702098
3272.615770	371.730070
3273.717326	367.742657
3274.818726	378.919814
3275.921441	379.042424
3277.023998	378.462937
3278.123459	372.258275
3279.225704	372.753846
3280.324853	372.609324
3281.422378	371.285781
3282.519747	367.374825
3283.619899	364.997669
3284.716957	362.027506
3285.813860	359.825175
3286.910608	353.123077
3288.002798	357.648019
3289.099236	356.675991
3290.194052	356.448485
3291.288714	351.758974
3292.381754	347.716550
3293.474640	349.567832
3294.565905	350.968298
3295.658483	351.070862
3296.749440	356.853147
3297.838778	356.016783
3298.927963	360.171562
3300.018461	363.853613
3301.105874	356.384615
3302.193135	345.499301
3303.281708	339.986480
3304.370128	339.095105
3305.454001	337.076923
3306.542116	335.113753
3307.627150	338.168298
3308.710567	336.112821
3309.795297	339.343590
3310.878412	343.942191
3311.962838	343.351049
3313.044186	340.220979
3314.126846	340.020047
3315.207892	336.921678
3316.288787	339.759441
3317.368068	340.102564
3318.447200	342.042890
3319.527642	340.111888
3320.605010	341.179021
3321.683690	339.597203
3322.760759	337.893240
3323.837677	334.576690
3324.912984	333.537995
3325.988142	328.210256
3327.064611	330.406061
3328.138010	327.398135
3329.211260	328.901632
3330.285820	328.905828
3331.358772	325.359441
3332.430115	323.036364
3333.502770	325.867133
3334.572357	331.066667
3335.643255	336.349650
3336.712546	338.826573
3337.783148	342.159907
3338.852143	337.997203
3339.919532	340.110023
3340.985316	336.890443
3342.055326	325.951981
3343.122273	325.712354
3344.186158	327.749650
3345.252811	324.224242
3346.317859	324.992541
3347.381304	323.441958
3348.444603	320.016317
3349.507755	314.394872
3350.570761	310.069930
3351.633621	301.320746
3352.694879	303.867133
3353.753080	309.786014
3354.815502	316.605594
3355.874867	318.411189
3356.934087	323.718415
3357.994617	323.379487
3359.050637	325.523077
3360.109421	323.762704
3361.163698	316.295105
3362.220739	311.348718
3363.276182	316.426573
3364.332933	317.737995
3365.388086	321.004662
3366.441642	320.919347
3367.493602	317.399068
3368.548323	313.257343
3369.599995	314.441026
3370.651524	311.787879
3371.704361	308.540793
3372.754151	306.351981
3373.805250	308.308159
3374.853303	307.331002
3375.904115	311.547786
3376.951883	315.158042
3377.999508	314.300233
3379.046990	316.765501
3380.092880	317.384149
3381.140078	319.584615
3382.184234	318.862937
3383.231148	316.175291
3384.276470	315.483450
3385.318751	308.538462
3386.360892	313.016317
3387.404340	314.042890
3388.447647	312.087646
3389.489365	313.341725
3390.530941	307.866200
3391.572377	306.571096
3392.612223	307.546853
3393.650481	302.476923
3394.690048	302.909557
3395.729473	300.597669
3396.767311	303.060140
3397.803562	302.103497
3398.839674	298.688578
3399.877093	298.358974
3400.911479	295.089510
3401.947172	292.861072
3402.982726	293.696503
3404.015249	294.435431
3405.050525	297.356177
3406.082770	296.481119
3407.114877	299.752448
3408.145400	299.411189
3409.177230	296.144522
3410.208922	297.600466
3411.237586	301.404662
3412.266113	296.113287
3413.295947	296.487179
3414.325642	300.814918
3415.352312	296.691841
3416.380289	295.625641
3417.405241	298.454079
3418.432943	295.161305
3419.457622	289.085781
3420.483607	287.411655
3421.508012	291.740326
3422.532281	290.862937
3423.554971	292.804196
3424.577525	297.704895
3425.601385	303.665734
3426.622225	308.888578
3427.642930	309.754779
3428.664940	305.084382
3429.683932	298.701865
3430.702789	291.624242
3431.722951	284.868531
3432.740097	279.451748
