-116.516516	8.665734
-113.846916	11.556643
-111.180251	12.838228
-108.514338	12.803263
-105.851357	11.744522
-103.186947	9.954779
-100.525467	4.057343
-97.862557	4.872727
-95.204755	5.133333
-92.545523	6.400932
-89.887039	7.887646
-87.231479	7.696503
-84.574491	7.815851
-81.922601	10.678788
-79.269280	14.684382
-76.618880	15.310490
-73.967050	12.883450
-71.320311	14.055012
-68.672142	6.788811
-66.024717	3.911888
-63.380205	3.983683
-60.734265	5.887179
-58.093406	6.875991
-55.451118	7.732867
-52.811738	7.811655
-50.170930	4.204662
-47.530862	3.696503
-44.895866	2.252214
-42.259442	2.293240
-39.625920	7.420513
-36.990970	15.608858
-34.361085	20.915152
-31.727608	21.414452
-29.099193	22.407459
-26.471512	21.138462
-23.842402	16.334266
-21.218349	11.214918
-18.590707	-13.967366
-15.968118	-91.329604
-13.346261	-250.420513
-10.725134	-50.111888
-8.104737	868.891375
-5.487229	2039.314685
-2.868291	2876.096970
-0.252240	3313.806527
2.363083	3345.634499
4.977679	2981.160373
7.589392	2240.510956
10.202534	1204.199068
12.810642	132.336131
15.422332	-383.554779
18.028991	-232.781352
20.637078	-6.713753
23.244441	15.174825
25.846779	15.912354
28.452695	10.631702
31.053589	6.240559
33.655911	6.792075
36.253216	4.237296
38.854096	10.289044
41.449962	16.944522
44.047255	19.203730
46.643829	22.880653
49.235394	23.042424
51.828387	19.306760
54.418519	17.236364
57.010079	18.121212
59.598779	19.590676
62.188906	18.577156
64.774035	21.955711
67.360590	24.839161
69.946432	22.549184
72.529420	24.649883
75.113834	24.578555
77.691120	23.887646
80.271972	28.872261
82.849975	31.019580
85.427268	27.010723
88.005987	27.201399
90.579724	24.241958
93.154889	21.937995
95.727210	19.589744
98.298823	22.220047
100.867596	21.758042
103.437796	25.682984
106.005158	28.841026
108.573945	31.498368
111.139896	31.487646
113.703012	33.277855
116.269684	42.135664
118.827135	82.270862
121.390271	172.016317
123.948447	282.747319
126.510178	398.779487
129.066952	532.922145
131.625153	682.042424
134.178401	871.576690
136.730950	1101.662005
139.287050	1383.689977
141.838202	1687.214452
144.388657	2000.392075
146.938414	2276.907226
149.485353	2473.435897
152.031595	2561.277855
154.579263	2573.926340
157.126235	2533.504895
159.668272	2510.451748
162.209615	2534.222844
164.750265	2621.662471
167.292341	2752.079720
169.831605	2922.627506
172.368061	3142.202797
174.903825	3425.620047
177.441015	3757.802331
179.977514	4164.005128
182.511207	4676.388345
185.042097	5403.186946
187.572298	6375.584149
190.103924	7665.581818
192.632749	9365.667599
195.158775	11498.627040
197.684115	14007.898834
200.210881	16600.603730
202.734849	18922.508625
205.258133	20571.154312
207.780732	21281.394872
210.300538	20938.465734
212.819661	19564.023310
215.338101	17465.089510
217.857965	14994.308625
220.370828	12550.881585
222.887222	10413.165501
225.402934	8663.999534
227.913756	7325.152914
230.426004	6319.400932
232.935468	5568.319814
235.444254	4979.969697
237.952362	4499.405128
240.461893	4139.080186
242.966544	3841.049417
245.470519	3608.365035
247.975919	3407.202331
250.476443	3239.517949
252.980490	3142.082984
255.477566	3253.375758
257.978166	3550.180886
260.475994	3882.789744
262.973149	4086.343590
265.469631	4123.023310
267.961250	3969.533800
270.456389	3635.707226
272.948762	3151.538928
275.440464	2614.477389
277.929402	2149.958508
280.419765	1901.555245
282.907365	1828.901632
285.392206	1812.822378
287.880562	1780.772494
290.361978	1743.235897
292.846908	1704.931002
295.326993	1676.981818
297.810590	1657.149650
300.289344	1643.606527
302.769522	1630.869930
305.246947	1617.951515
307.723709	1609.504429
310.199808	1613.229371
312.673158	1627.655944
315.145846	1643.524009
317.617873	1657.016317
320.089239	1675.483450
322.557861	1687.107692
325.025823	1678.229371
327.495207	1660.358042
329.959769	1634.803263
332.427835	1607.306760
334.891081	1582.275991
337.353669	1557.400466
339.815601	1510.703963
342.276876	1461.276923
344.735417	1619.787413
347.195380	2235.935198
349.652610	3176.379487
352.109186	4052.497436
354.565108	4653.589744
357.018301	4901.954312
359.472915	4777.942657
361.922728	4284.872261
364.376037	3489.227040
366.824548	2587.544988
369.272408	1929.808392
371.721689	1733.407459
374.166177	1772.349184
376.612087	1796.006061
379.057348	1790.641026
381.499889	1766.579021
383.941783	1762.110956
386.383030	1755.421445
388.821561	1765.543590
391.261514	1776.906760
393.698753	1854.979953
396.133280	2000.734266
398.571295	2148.509557
401.004533	2263.287179
403.439192	2309.987879
405.869079	2289.327273
408.302451	2228.063403
410.731053	2128.337529
413.159014	2011.683450
415.588395	1912.240093
418.013011	1900.559907
420.439049	1953.317016
422.864446	2015.096970
425.289203	2077.027972
427.709202	2139.211189
430.130622	2210.232168
432.549345	2306.914219
434.969489	2420.526340
437.386938	2576.218182
439.805807	2774.343124
442.221983	3040.049417
444.633412	3328.892774
447.048317	3693.544988
449.460532	4218.333800
451.872113	6211.516550
454.283060	11588.886247
456.691321	20501.939394
459.098949	32139.911422
461.505945	43424.675058
463.912310	51235.161772
466.315992	54072.324009
468.719044	51489.121212
471.121466	43992.458741
473.523258	33071.392075
475.922373	21838.580420
478.322907	13213.279254
480.722812	8059.957110
483.117994	6242.508625
485.516643	5704.504895
487.910572	5216.812587
490.303875	4747.107226
492.696552	4341.362704
495.088604	3984.908159
497.482074	3702.225175
499.870833	3570.891841
502.256925	3599.006993
504.644436	3703.932401
507.031325	3770.944988
509.415550	3764.584149
511.801194	3657.468065
514.184175	3465.802331
516.564496	3181.522611
518.946236	2841.987879
521.325317	2530.084382
523.705817	2338.097436
526.083659	2273.644289
528.458846	2243.492308
530.833415	2201.208392
533.209403	2165.688112
535.582737	2137.956177
537.957489	2111.895571
540.327556	2091.442890
542.697007	2079.402797
545.067876	2070.584615
547.434065	2049.927273
549.801672	2033.064802
552.166633	2000.926340
554.530981	1970.636830
556.894717	1940.455478
559.259869	1902.097902
561.620350	1873.362238
563.982249	1846.878322
566.341507	1829.344522
568.698128	1823.193939
571.058193	1812.226573
573.411567	1805.825175
575.768386	1794.063403
578.122570	1791.141725
580.476146	1784.172028
582.829113	1774.184149
585.179449	1778.991608
587.531201	1766.440559
589.876277	1775.724476
592.226817	1783.917016
594.570683	1788.709557
596.920011	1788.353380
599.264691	1778.370163
601.606745	1771.854079
603.950217	1748.741259
606.291066	1725.072261
608.631313	1704.513753
610.968939	1680.903963
613.310000	1668.703497
615.646423	1660.023776
617.984263	1658.393007
620.319486	1653.208858
622.652093	1655.828904
624.986116	1661.113753
627.317526	1657.033100
629.648337	1648.503030
631.978550	1650.811655
634.308165	1654.958042
636.633158	1648.169231
638.963592	1645.774359
641.289404	1649.114685
643.612610	1642.728671
645.937231	1647.234499
648.259247	1641.944522
650.580670	1637.237762
652.899489	1624.270862
655.219724	1626.515152
657.539366	1622.892308
659.856407	1615.083450
662.172856	1602.026573
664.486707	1598.937995
666.801974	1590.226107
669.114644	1586.264336
671.428729	1579.833100
673.738214	1590.721212
676.049115	1592.846620
678.357423	1609.147786
680.665143	1618.163170
682.974277	1635.351515
685.278820	1640.226107
687.582775	1665.623776
689.886145	1702.039627
692.190929	1737.652681
694.491127	1771.301632
696.792739	1797.450350
699.093767	1791.714685
701.390212	1776.657809
703.688073	1736.214918
705.985350	1689.148252
708.282044	1639.288112
710.574162	1608.005594
712.869691	1594.004662
715.160646	1597.913753
717.453016	1604.612121
719.742811	1607.142657
722.032025	1606.296503
724.320660	1608.424709
726.606723	1610.080653
728.894199	1607.251748
731.179104	1598.484382
733.463432	1589.717483
735.745191	1590.976690
738.028364	1600.957576
740.310960	1603.419114
742.589000	1609.882984
744.868455	1618.889044
747.147334	1628.409790
749.425637	1640.022844
751.699391	1646.871795
753.974559	1640.433566
756.249153	1634.074592
758.521187	1634.177156
760.794635	1636.580886
763.065525	1637.411189
765.333859	1650.631702
767.603606	1658.481585
769.870799	1664.254545
772.137421	1673.386946
774.403473	1683.950117
776.666974	1687.688578
778.931888	1690.717016
781.196232	1698.930536
783.456047	1710.625641
785.717274	1725.790210
787.977934	1750.933333
790.236048	1771.420979
792.491617	1806.415385
794.750577	1838.266200
797.003038	1894.731002
799.260866	2035.856410
801.514174	2296.643357
803.764943	2630.668065
806.017124	2935.021911
808.266766	3129.476923
810.517821	3187.182751
812.764364	3092.482517
815.012319	2872.686247
817.257740	2551.461538
819.504572	2215.706294
821.750843	1975.434965
823.992610	1861.108159
826.237759	1836.971562
828.476436	1835.681119
830.718495	1828.423776
832.956056	1816.815385
835.195029	1800.913753
837.431475	1785.411189
839.669332	1770.424242
841.904664	1756.907226
844.137473	1753.912821
846.371693	1752.820047
848.603391	1752.752914
850.834533	1757.944988
853.065122	1762.241958
855.295155	1759.186480
857.524635	1757.962704
859.749633	1754.982284
861.978006	1744.502098
864.201900	1735.974359
866.427204	1723.379953
868.648033	1717.129138
870.872234	1705.398601
873.091962	1706.724009
875.313101	1707.477855
877.533689	1715.666667
879.751767	1728.244289
881.971255	1743.999068
884.186277	1745.236364
886.400752	1756.480653
888.614678	1761.770163
890.828058	1770.277389
893.040890	1772.914685
895.253176	1771.128205
897.462959	1756.868531
899.672197	1738.622844
901.880890	1718.513753
904.087084	1704.065734
906.294687	1691.570163
908.499792	1692.311888
910.704354	1688.760839
912.906421	1695.536597
915.109897	1710.948718
917.310879	1719.855478
919.511320	1725.025175
921.713168	1724.744988
923.908626	1716.752448
926.107443	1714.373893
928.301821	1710.048019
930.499557	1697.064336
932.692857	1673.552914
934.887566	1665.682984
937.079789	1659.461538
939.271474	1652.349650
941.462620	1647.941725
943.651284	1645.095571
945.839412	1640.618182
948.025059	1645.098834
950.214058	1647.427506
952.398634	1653.730070
954.582675	1650.152914
956.770066	1654.119347
958.949153	1650.972028
961.131591	1651.128671
963.313495	1650.643357
965.492924	1648.330536
967.669881	1649.229371
969.848246	1651.784615
972.028018	1649.462005
974.201441	1649.286713
976.378210	1638.641026
978.550572	1633.667133
980.724342	1629.197669
982.893708	1633.476923
985.066418	1633.947786
987.236663	1639.247552
989.406379	1639.823310
991.575566	1650.734732
993.740356	1645.896503
995.908487	1644.088112
998.072224	1648.906294
1000.237367	1657.197203
1002.400051	1655.767366
1004.562210	1659.756177
1006.721912	1661.274592
1008.881090	1667.836830
1011.041674	1656.774825
1013.199803	1656.716550
1015.357408	1651.987879
1017.514490	1654.236364
1019.671049	1658.698834
1021.823228	1661.866667
1023.976813	1659.589277
1026.129877	1668.275524
1028.280493	1675.914685
1030.432514	1677.639161
1032.580162	1678.407459
1034.731142	1680.959441
1036.877751	1683.055012
1039.023841	1679.886713
1041.169413	1669.704429
1043.316390	1666.890909
1045.457078	1666.801865
1047.601096	1670.166434
1049.742673	1681.577622
1051.883734	1689.909557
1054.026199	1707.918881
1056.162385	1723.188811
1058.301897	1743.814918
1060.437053	1756.272261
1062.575534	1767.862937
1064.709661	1788.853147
1066.843275	1799.351049
1068.978294	1828.205594
1071.108963	1900.694639
1073.241037	2070.451748
1075.370682	2391.778555
1077.499815	2779.564569
1079.628436	3112.081585
1081.756546	3302.882051
1083.882230	3329.965967
1086.007404	3196.518415
1088.133982	2896.082051
1090.256222	2521.864336
1092.379867	2144.844289
1094.499178	1884.403730
1096.623717	1771.538928
1098.742011	1742.688578
1100.861710	1727.707692
1102.978990	1710.929138
1105.095764	1702.758508
1107.212031	1698.536597
1109.325882	1687.816317
1111.441138	1686.225641
1113.552070	1681.926340
1115.666315	1678.220979
1117.776239	1657.653147
1119.887567	1646.846620
1121.998390	1640.967832
1124.104897	1635.307692
1126.214714	1635.416317
1128.320216	1635.558974
1130.427121	1645.415851
1132.527811	1647.194406
1134.633713	1647.209324
1136.735306	1641.193939
1138.838302	1637.741259
1140.940797	1640.115152
1143.037085	1651.053613
1145.138581	1655.110023
1147.235773	1673.979953
1149.332468	1706.443357
1151.428664	1761.929138
1153.524363	1828.177622
1155.619563	1892.116084
1157.712368	1938.873660
1159.806574	1965.009324
1161.894589	1942.246620
1163.987802	1901.124476
1166.074827	1825.083916
1168.165151	1752.893240
1170.251188	1689.144988
1172.340522	1650.103497
1174.423675	1636.614918
1176.508230	1626.859674
1178.594187	1628.090909
1180.675862	1632.391608
1182.758939	1626.044289
1184.839630	1627.027040
1186.919829	1626.361772
1188.999537	1625.166900
1191.078754	1620.833100
1193.155589	1614.977156
1195.230043	1609.299767
1197.307788	1601.866200
1199.381264	1609.211655
1201.456140	1618.306760
1203.526749	1622.853613
1205.598760	1629.506760
1207.668394	1639.405594
1209.739429	1634.514685
1211.809976	1627.734732
1213.876262	1618.647552
1215.943949	1619.150117
1218.009264	1621.728205
1220.075979	1629.564569
1222.138438	1644.343124
1224.204182	1663.665268
1226.265673	1675.435431
1228.328563	1681.147786
1230.389086	1678.354312
1232.449125	1676.804196
1234.508682	1662.397203
1236.565873	1654.287646
1238.622583	1639.422844
1240.676930	1627.135664
1242.734557	1623.505828
1244.789822	1615.896503
1246.840846	1611.174825
1248.893270	1614.554312
1250.945214	1613.152914
1252.994800	1619.147786
1255.043907	1611.788811
1257.092536	1603.638228
1259.140686	1600.569697
1261.188357	1592.648951
1263.231799	1585.670862
1265.278515	1582.538928
1267.322878	1595.378555
1269.366765	1606.047552
1271.408300	1608.012587
1273.447486	1619.763636
1275.489945	1616.487646
1277.528181	1611.355245
1279.567816	1599.227040
1281.606976	1588.228438
1283.641917	1576.174825
1285.678257	1571.788811
1287.712253	1569.129604
1289.747647	1570.495571
1291.778827	1569.172960
1293.811405	1573.709091
1295.843512	1576.714685
1297.873278	1579.856876
1299.904442	1578.426107
1301.931398	1580.538928
1303.959752	1575.978555
1305.983902	1572.876457
1308.011316	1565.811655
1310.034528	1573.300233
1312.059138	1567.270396
1314.081414	1572.540326
1316.105087	1578.438695
1318.126427	1575.809324
1320.147299	1571.679254
1322.167704	1570.617716
1324.183916	1565.178089
1326.201525	1561.906294
1328.216806	1569.651282
1330.235346	1581.503963
1332.249697	1586.287646
1334.261722	1602.535664
1336.277004	1611.436364
1338.288101	1618.710490
1340.300595	1613.527273
1342.308906	1616.358974
1344.320473	1614.641492
1346.326000	1605.464802
1348.334783	1611.277855
1350.339388	1608.710956
1352.347247	1602.647086
1354.354644	1600.068065
1356.356010	1601.482051
1358.358773	1605.215851
1360.361075	1597.779953
1362.362918	1598.133800
1364.364301	1602.332401
1366.363371	1587.636830
1368.361982	1582.251748
1370.360135	1572.749650
1372.357829	1560.118881
1374.351361	1559.413520
1376.346289	1555.247552
1378.340759	1549.394872
1380.334774	1537.482051
1382.326480	1529.834033
1384.317732	1528.381818
1386.306678	1524.039161
1388.297019	1517.274592
1390.286905	1517.653613
1392.274488	1522.001399
1394.261616	1528.375758
1396.246443	1520.935198
1398.232665	1515.346387
1400.216587	1506.800000
1402.200056	1502.628904
1404.183072	1503.740793
1406.163791	1514.209324
1408.145904	1511.275991
1410.125721	1516.515618
1412.105086	1515.262005
1414.080313	1514.957576
1416.058779	1505.252214
1418.034950	1505.383217
1420.010673	1501.702564
1421.985946	1495.656876
1423.958928	1495.056876
1425.931462	1503.002797
1427.903548	1499.810256
1429.875187	1514.044755
1431.842697	1520.014918
1433.815281	1533.886713
1435.780060	1538.179487
1437.749910	1547.239627
1439.715637	1543.029837
1441.682756	1531.601865
1443.647592	1522.158508
1445.608308	1514.595804
1447.574093	1503.585082
1449.533922	1503.184149
1451.495144	1502.471795
1453.457759	1513.090443
1455.416259	1514.030769
1457.374316	1518.396270
1459.331932	1510.482984
1461.289106	1499.101632
1463.244004	1492.462471
1465.200294	1489.891375
1467.154310	1489.050816
1469.107886	1491.273660
1471.059189	1499.165035
1473.011884	1507.451748
1474.962308	1513.399068
1476.912292	1517.582751
1478.861838	1506.216783
1480.809115	1496.833566
1482.754125	1498.212587
1484.700526	1497.007925
1486.646490	1495.374825
1488.592017	1490.731935
1490.535279	1493.368765
1492.478104	1500.958042
1494.418666	1503.033100
1496.360619	1487.106760
1498.300310	1477.365967
1500.239567	1478.283916
1502.178388	1485.311422
1504.114950	1477.618648
1506.052903	1478.461538
1507.988597	1479.322145
1509.923858	1487.480186
1511.856863	1499.412121
1513.789435	1494.903497
1515.721575	1486.552448
1517.653283	1490.172028
1519.582737	1496.169231
1521.513582	1494.647552
1523.443995	1487.888112
1525.370336	1490.025641
1527.298068	1479.223310
1529.223549	1477.785082
1531.148601	1473.734732
1533.073224	1471.944988
1534.997418	1472.522611
1536.919364	1476.717016
1538.842701	1485.829837
1540.763792	1492.531002
1542.682638	1497.744522
1544.602873	1502.682984
1546.520866	1496.535664
1548.438432	1494.454545
1550.353756	1492.867133
1552.270470	1498.517949
1554.183129	1496.287179
1556.098992	1496.193939
1558.012615	1499.902564
1559.924001	1500.595804
1561.836775	1502.677855
1563.745500	1505.826573
1565.655614	1505.516084
1567.565305	1505.225175
1569.474573	1519.634499
1571.381607	1531.451282
1573.286408	1537.383217
1575.192598	1547.928205
1577.096556	1554.855478
1579.000093	1565.353380
1580.903210	1578.688112
1582.804097	1580.296503
1584.706373	1583.451282
1586.606421	1581.709091
1588.507856	1583.413054
1590.405258	1576.528205
1592.302241	1562.841026
1594.198806	1547.945921
1596.096759	1538.451282
1597.988877	1534.647086
1599.884188	1532.166434
1601.779082	1524.476457
1603.671754	1523.218182
1605.564010	1522.517016
1607.454045	1527.241492
1609.343666	1527.256876
1611.232870	1516.761305
1613.121660	1508.480653
1615.008232	1512.678788
1616.896192	1510.928671
1618.780135	1509.366434
1620.665466	1505.293240
1622.550382	1503.724476
1624.433085	1498.476923
1626.317175	1492.898368
1628.197254	1484.232168
1630.078719	1467.333333
1631.957974	1459.171096
1633.838615	1457.128671
1635.713452	1449.759907
1637.593270	1447.601865
1639.469084	1448.717016
1641.344487	1446.531469
1643.221276	1442.163170
1645.092269	1435.358508
1646.966443	1437.615851
1648.836619	1440.037296
1650.709975	1440.169231
1652.581128	1442.080653
1654.450079	1446.206993
1656.320416	1448.451748
1658.186759	1449.234965
1660.054488	1441.258275
1661.920018	1434.845688
1663.786934	1423.094639
1665.649861	1416.446620
1667.514173	1411.488112
1669.376289	1403.831702
1671.238001	1401.616783
1673.101097	1399.358042
1674.961999	1396.247086
1676.820707	1398.972960
1678.679012	1396.489044
1680.538702	1397.999534
1682.392624	1395.520746
1684.249720	1389.255012
1686.106413	1392.354779
1687.959130	1387.919814
1689.815017	1389.026107
1691.666931	1379.957576
1693.518444	1381.341725
1695.369556	1381.220513
1697.220268	1383.993007
1699.070579	1383.512354
1700.918705	1381.735198
1702.768216	1375.946387
1704.611978	1371.167366
1706.460689	1365.389744
1708.303654	1361.653613
1710.149786	1347.968765
1711.991955	1343.758042
1713.837290	1338.975758
1715.676884	1335.642890
1717.517862	1331.717016
1719.360223	1335.087646
1721.198628	1334.909557
1723.038416	1334.211655
1724.876029	1340.567366
1726.713246	1340.679254
1728.548290	1336.274126
1730.384717	1343.437762
1732.218972	1342.260140
1734.052832	1340.147786
1735.886299	1336.340793
1737.715819	1333.716084
1739.548498	1319.902098
1741.377233	1311.595804
1743.209125	1309.744522
1745.037076	1306.848951
1746.864634	1300.018182
1748.691800	1305.150117
1750.518575	1309.438228
1752.344959	1316.889977
1754.167405	1314.548252
1755.993007	1318.350583
1757.814674	1311.277389
1759.637723	1315.172494
1761.458610	1316.026573
1763.279109	1312.346853
1765.100989	1306.322611
1766.917169	1301.907226
1768.736501	1301.263403
1770.551906	1303.561772
1772.370461	1304.673660
1774.185091	1313.508625
1775.999335	1316.061072
1777.813191	1326.474592
1779.626661	1331.394406
1781.437978	1331.750583
1783.250676	1324.590676
1785.062987	1315.728671
1786.871381	1306.790676
1788.681155	1305.422844
1790.487015	1299.657809
1792.296020	1298.668065
1794.101112	1297.658275
1795.907585	1304.295571
1797.713674	1300.616783
1799.515853	1293.230769
1801.321175	1293.707692
1803.122589	1294.909557
1804.925383	1290.743590
1806.724271	1292.288578
1808.524540	1286.971562
1810.324427	1287.279720
1812.122173	1283.658741
1813.919537	1274.286713
1815.716522	1261.733800
1817.513126	1260.089510
1819.307591	1263.346853
1821.103435	1263.749650
1822.893625	1265.415851
1824.688710	1274.668531
1826.478144	1276.327739
1828.270714	1279.603730
1830.061149	1272.558508
1831.849450	1254.190210
1833.640886	1247.963170
1835.426676	1245.613520
1837.213846	1239.507692
1838.998884	1244.596737
1840.787056	1251.305828
1842.571342	1255.266667
1844.353499	1256.452681
1846.137034	1254.880653
1847.918441	1242.665268
1849.701227	1235.863403
1851.480132	1241.287179
1853.260417	1243.959907
1855.038575	1247.308159
1856.818112	1261.779487
1858.595524	1267.341725
1860.370812	1265.061538
1862.147478	1257.721678
1863.922022	1255.984149
1865.697944	1249.740793
1867.468245	1245.758508
1869.241674	1243.950583
1871.012983	1235.433100
1872.783922	1233.671329
1874.556237	1236.792541
1876.322939	1230.250816
1878.092767	1231.273660
1879.858731	1232.222844
1881.627818	1254.394406
1883.393045	1256.187879
1885.157902	1254.927273
1886.924137	1249.848951
1888.686513	1244.897436
1890.448522	1235.922611
1892.210163	1229.108625
1893.971438	1217.290909
1895.732345	1211.689044
1897.492886	1213.346387
1899.251317	1216.270396
1901.009382	1218.499767
1902.765340	1222.057343
1904.522674	1220.287646
1906.279643	1221.186014
1908.034505	1211.710023
1909.787263	1208.268998
1911.539657	1197.588345
1913.293426	1189.243357
1915.045092	1184.809324
1916.794656	1180.075524
1918.545595	1185.860140
1920.296172	1190.993473
1922.042909	1197.547319
1923.791023	1202.607925
1925.537037	1206.011189
1927.284427	1208.670862
1929.029718	1206.510490
1930.772912	1208.798601
1932.517481	1202.599534
1934.259955	1199.091841
1936.002068	1195.448951
1937.743821	1198.324476
1939.485215	1197.651748
1941.224514	1197.606294
1942.963455	1199.471795
1944.702037	1200.353613
1946.438528	1202.172960
1948.174661	1203.734499
1949.912168	1191.777622
1951.645853	1186.779254
1953.380913	1183.704895
1955.113885	1186.345688
1956.846499	1188.850816
1958.578758	1190.916550
1960.310660	1196.088112
1962.040476	1208.759441
1963.768207	1215.014918
1965.497313	1217.220047
1967.226064	1209.413054
1968.952731	1205.383683
1970.679044	1205.455012
1972.406730	1208.433566
1974.128880	1200.493706
1975.854131	1193.746853
1977.575576	1191.253613
1979.300120	1192.703497
1981.022585	1188.183217
1982.741246	1190.743590
1984.463006	1189.896970
1986.180964	1193.179021
1987.900295	1194.137995
1989.615827	1194.342191
1991.336179	1188.949184
1993.052733	1188.720746
1994.765490	1186.234499
1996.481344	1177.147786
1998.195124	1172.058275
1999.908555	1172.748252
2001.619915	1176.873193
2003.332647	1179.151981
2005.041589	1175.277389
2006.753624	1176.848485
2008.460149	1181.222378
2010.169766	1176.823310
2011.877317	1179.689977
2013.584520	1181.124009
2015.289656	1184.242890
2016.994447	1190.754779
2018.700609	1194.449417
2020.402989	1195.900699
2022.106741	1189.793939
2023.808429	1189.072727
2025.509773	1191.011189
2027.210771	1181.057343
2028.909708	1178.837762
2030.610017	1176.098368
2032.306551	1177.427040
2034.004456	1183.758042
2035.700302	1182.684848
2037.399234	1189.170629
2039.092680	1189.584615
2040.787497	1193.339394
2042.481972	1193.101632
2044.172678	1181.393007
2045.866468	1170.155245
2047.556491	1161.821445
2049.247885	1159.918415
2050.937226	1159.954312
2052.627937	1162.379953
2054.314885	1163.506294
2056.001494	1165.581818
2057.689473	1166.463869
2059.373691	1165.302098
2061.059281	1163.616783
2062.744531	1154.803730
2064.427733	1146.000466
2066.112304	1140.774825
2067.791413	1132.932867
2069.475307	1134.724942
2071.153741	1127.746853
2072.835251	1129.566434
2074.513011	1133.882051
2076.190433	1134.955711
2077.869225	1141.112821
2079.545975	1134.441958
2081.220683	1136.310490
2082.896760	1129.672727
2084.570797	1119.905361
2086.244498	1120.973893
2087.917864	1121.399534
2089.589192	1122.838228
2091.260185	1123.742191
2092.930844	1117.371096
2094.601168	1121.903497
2096.271159	1118.273193
2097.939114	1126.611655
2099.606736	1128.054545
2101.272323	1135.199534
2102.939279	1144.590210
2104.604202	1149.815385
2106.268793	1150.936131
2107.931352	1145.932867
2109.595279	1135.470862
2111.257176	1129.080186
2112.918741	1120.802331
2114.579975	1129.271795
2116.239181	1136.503963
2117.898056	1141.778555
2119.556602	1139.959441
2121.214818	1143.147786
2122.869310	1143.214452
2124.526867	1146.767832
2126.184095	1145.408392
2127.837601	1143.044755
2129.492475	1144.958042
2131.143631	1151.436830
2132.797848	1151.225641
2134.448349	1144.295571
2136.100216	1145.504895
2137.746675	1146.043823
2139.397889	1141.376224
2141.045389	1145.139394
2142.694256	1146.409790
2144.341105	1152.089977
2145.987627	1150.230769
2147.633824	1150.740326
2149.276313	1146.748252
2150.921860	1137.964569
2152.563700	1142.220979
2154.208597	1134.806061
2155.849789	1131.013054
2157.490657	1126.438228
2159.131201	1121.509557
2160.769733	1125.379487
2162.409631	1113.952914
2164.045829	1114.548718
2165.683394	1110.090443
2167.320635	1099.815385
2168.955867	1100.961305
2170.590778	1098.493240
2172.225367	1097.572960
2173.859634	1091.054545
2175.490208	1086.524009
2177.123834	1093.075524
2178.753768	1083.044755
2180.385067	1085.062005
2182.014361	1086.216783
2183.643336	1086.334732
2185.271991	1083.423776
2186.900327	1087.510490
2188.526661	1083.421911
2190.152676	1077.676923
2191.776690	1073.565967
2193.402068	1078.720280
2195.025447	1073.831702
2196.650189	1074.650350
2198.271251	1075.210723
2199.891996	1073.475058
2201.514106	1068.387413
2203.134218	1075.872261
2204.752333	1067.455944
2206.370133	1067.608858
2207.987618	1071.902098
2209.604787	1083.649883
2211.221641	1082.647086
2212.838179	1077.877855
2214.452725	1074.692308
2216.065278	1073.344056
2217.679195	1070.130536
2219.291121	1068.730070
2220.904410	1060.474592
2222.515709	1060.155711
2224.125018	1059.877855
2225.735691	1058.202331
2227.344375	1054.503030
2228.952746	1052.882984
2230.559131	1060.630303
2232.166879	1065.551049
2233.772640	1063.325874
2235.378090	1062.446620
2236.981555	1053.236364
2238.586383	1051.291375
2240.189227	1045.159441
2241.790089	1039.480186
2243.392312	1043.756643
2244.992554	1047.518415
2246.594158	1054.616783
2248.192110	1056.951515
2249.791424	1054.488578
2251.388758	1056.530536
2252.985783	1052.882051
2254.584171	1057.037762
2256.178910	1056.422844
2257.771672	1051.608858
2259.365797	1054.158508
2260.961283	1048.539394
2262.553125	1046.313753
2264.144660	1039.107226
2265.737556	1035.358508
2267.325143	1035.083916
2268.917427	1030.505361
2270.504403	1031.364569
2272.094407	1027.499767
2273.679108	1024.584149
2275.268501	1015.703963
2276.852593	1009.959907
2278.438046	1006.505361
2280.021529	1000.693240
2281.608039	1001.138462
2283.190914	994.696503
2284.773487	990.761305
2286.355756	995.531002
2287.934396	997.373893
2289.516059	998.943124
2291.094094	991.276923
2292.675152	994.290909
2294.252583	983.695105
2295.828051	981.730070
2297.406541	974.381352
2298.981407	969.696037
2300.555972	968.769697
2302.130237	972.281119
2303.704201	974.676457
2305.277865	977.612121
2306.851228	976.554779
2308.420973	977.732401
2309.990419	972.580886
2311.562883	978.602331
2313.130073	978.666200
2314.700281	982.589744
2316.266874	980.888578
2317.834827	978.859207
2319.400824	971.745455
2320.966524	968.843357
2322.531927	960.244755
2324.095375	966.192541
2325.660183	978.778089
2327.221383	996.489510
2328.785597	1001.524942
2330.344549	1009.694639
2331.906516	1006.319814
2333.466532	1003.631235
2335.026252	990.739394
2336.584023	977.298834
2338.141499	971.147319
2339.698681	971.889977
2341.253915	984.267133
2342.808856	990.555711
2344.363503	985.853613
2345.917855	985.188345
2347.471915	978.221445
2349.025680	973.516084
2350.577502	963.807925
2352.127380	957.448485
2353.680266	957.918415
2355.227910	953.798601
2356.778561	959.081585
2358.325621	960.544522
2359.874039	957.197203
2361.422166	960.639627
2362.966704	968.721678
2364.512600	970.048951
2366.056558	969.123543
2367.601873	972.290443
2369.143603	967.561305
2370.686690	960.273660
2372.227841	950.995804
2373.768704	951.040093
2375.309276	938.968298
2376.849560	939.667133
2378.389555	941.774359
2379.925972	936.815385
2381.465390	930.710023
2383.001231	935.885781
2384.538428	935.282517
2386.072050	940.309091
2387.608673	942.707226
2389.143364	949.113753
2390.676126	942.458275
2392.208601	945.796737
2393.739148	948.830769
2395.272693	945.391608
2396.801027	940.884848
2398.330718	945.740793
2399.860123	940.928671
2401.389242	945.820047
2402.918077	945.390210
2404.441706	944.579021
2405.969972	944.115152
2407.493034	948.175758
2409.020730	949.877855
2410.541587	948.933800
2412.067077	943.864336
2413.589006	946.414452
2415.112291	941.789744
2416.633654	941.402331
2418.153099	942.259207
2419.673898	940.100233
2421.192778	937.760373
2422.711376	927.640559
2424.228057	923.516084
2425.746092	921.517949
2427.263846	918.650350
2428.778049	923.408392
2430.291971	927.862937
2431.805613	928.613986
2433.320610	936.229837
2434.832058	932.104895
2436.344861	927.517949
2437.855750	916.706294
2439.366361	913.947319
2440.875060	910.030769
2442.386745	911.262471
2443.894887	912.239161
2445.402751	911.148718
2446.910337	906.341259
2448.414382	907.655012
2449.921413	908.830769
2451.426535	912.060140
2452.931380	911.287179
2454.434317	907.347319
2455.936979	907.870396
2457.439364	906.835897
2458.939844	898.687646
2460.441677	901.770629
2461.941605	903.492774
2463.441259	901.529138
2464.940636	900.336131
2466.438111	896.457809
2467.933684	893.787413
2469.432237	888.079720
2470.927262	886.318415
2472.423639	873.686713
2473.916490	875.000932
2475.410694	887.346853
2476.904624	886.282051
2478.395030	876.329138
2479.888414	874.282984
2481.379900	871.123077
2482.869489	871.525874
2484.358806	868.848951
2485.846228	871.609324
2487.336625	867.290443
2488.823503	873.101166
2490.311733	872.565035
2491.796447	870.233100
2493.280890	870.297436
2494.766685	875.618648
2496.250587	872.320280
2497.735841	873.747319
2499.215960	866.842890
2500.699053	870.565501
2502.180255	866.763636
2503.661188	863.262471
2505.140232	858.616317
2506.619007	854.724009
2508.097514	861.919814
2509.575753	860.094172
2511.053723	857.847552
2512.528188	862.572028
2514.005623	854.548252
2515.479554	856.875524
2516.954835	855.394872
2518.429850	855.962704
2519.901363	852.729604
2521.374226	846.556643
2522.845207	851.034965
2524.317538	852.536597
2525.784755	858.089510
2527.254939	858.521678
2528.723242	853.728205
2530.191280	856.898368
2531.659053	856.579021
2533.126561	857.508159
2534.593804	852.802797
2536.057555	848.380886
2537.522656	845.789744
2538.985880	842.586480
2540.450454	840.399068
2541.911538	845.251748
2543.373972	853.830303
2544.836143	859.933800
2546.294828	864.544522
2547.758085	872.707692
2549.216245	872.477855
2550.675754	869.479254
2552.130169	865.258275
2553.589155	854.819114
2555.046269	850.793473
2556.501512	857.390676
2557.956494	857.375291
2559.409606	854.110023
2560.864067	852.750583
2562.316659	857.791142
2563.768991	856.913287
2565.219455	858.770629
2566.672875	859.065268
2568.121213	854.067133
2569.572507	847.513287
2571.021934	847.644289
2572.467889	842.904895
2573.916799	837.515618
2575.362239	832.013054
2576.809027	835.179021
2578.253951	836.893706
2579.698617	843.297436
2581.144632	840.961772
2582.587179	840.940793
2584.031074	833.872727
2585.471504	829.968765
2586.913281	823.669464
2588.353199	821.812121
2589.794464	817.703963
2591.232267	815.019580
2592.673021	813.030769
2594.108711	815.782284
2595.547351	808.111422
2596.984133	806.643357
2598.419060	804.498368
2599.856934	804.030769
2601.289751	802.241026
2602.723915	810.272727
2604.156225	810.873193
2605.589881	816.273193
2607.021684	817.870862
2608.453233	824.018182
2609.884530	816.806527
2611.313974	810.636830
2612.743166	802.483916
2614.170508	790.260140
2615.599195	780.264802
2617.027631	783.041958
2618.452619	780.081585
2619.878954	785.390676
2621.303440	788.037296
2622.729272	795.999534
2624.151660	790.386014
2625.575394	788.996270
2626.997281	788.157576
2628.418919	791.540326
2629.838711	795.581352
2631.259849	799.745455
2632.680737	791.468065
2634.098187	795.347786
2635.518576	797.735664
2636.935528	797.554312
2638.352231	794.261072
2639.768687	792.431235
2641.184893	796.691841
2642.600852	798.063403
2644.014970	799.912821
2645.428841	801.071795
2646.840872	798.764569
2648.254248	807.468531
2649.664194	808.301632
2651.077075	806.924942
2652.486528	803.811189
2653.895735	796.783683
2655.303106	788.434965
2656.713412	775.184149
2658.121881	768.806993
2659.528515	774.136597
2660.934904	772.799534
2662.339459	776.512354
2663.745358	776.632634
2665.149424	784.297436
2666.553245	789.230303
2667.956823	790.980886
2669.358568	787.899767
2670.761657	789.495105
2672.161328	786.021445
2673.562343	791.282517
2674.959942	790.156643
2676.360471	789.880653
2677.757585	785.374359
2679.156042	782.060606
2680.552671	782.523077
2681.949058	779.227506
2683.345204	783.740326
2684.739523	785.459674
2686.135184	780.396737
2687.527437	781.565501
2688.921032	782.098834
2690.312803	778.956177
2691.705917	772.401399
2693.097207	772.442424
2694.486674	776.979021
2695.875901	774.296503
2697.264889	767.655012
2698.655219	762.558508
2700.040564	755.524942
2701.428833	756.972028
2702.815282	753.057343
2704.201492	753.096970
2705.587464	753.759907
2706.970036	760.048951
2708.353951	762.644755
2709.737628	760.511422
2711.121067	745.458275
2712.501110	746.472727
2713.882495	737.694639
2715.262064	742.983683
2716.642975	739.875991
2718.022070	740.958508
2719.399352	742.038695
2720.777975	740.169231
2722.154785	740.987879
2723.531359	741.224242
2724.907697	738.375291
2726.282223	737.919814
2727.658090	736.302564
2729.030570	743.183683
2730.405966	737.341259
2731.776402	739.042424
2733.148179	734.066200
2734.519721	726.314685
2735.889455	725.148718
2737.260530	728.588345
2738.629796	730.395338
2739.998829	729.025175
2741.366056	728.553380
2742.733050	727.764103
2744.099811	720.516550
2745.466339	716.944988
2746.831062	712.692774
2748.195554	707.454545
2749.559813	710.313753
2750.923840	716.773893
2752.287636	715.090443
2753.648058	720.294639
2755.011391	721.592541
2756.369781	726.386946
2757.731081	725.204196
2759.089010	725.538928
2760.449848	723.411189
2761.808887	717.893706
2763.164557	709.585548
2764.523135	697.338462
2765.878346	698.425175
2767.233328	705.195804
2768.586514	708.844289
2769.942606	713.958042
2771.295333	710.311888
2772.647833	712.891841
2774.000104	703.357110
2775.353714	696.755711
2776.703962	679.985082
2778.052417	671.919347
2779.403776	676.763636
2780.751776	677.040093
2782.101114	676.347319
2783.448661	676.567832
2784.795980	677.081585
2786.143073	682.649883
2787.488375	679.712354
2788.833451	676.060606
2790.178300	673.155711
2791.522924	673.137529
2792.864196	672.165967
2794.206806	677.533333
2795.549190	676.104429
2796.891350	682.634499
2798.230160	687.999068
2799.571869	684.889044
2800.910231	676.696503
2802.249930	674.415385
2803.587843	673.173427
2804.923972	665.786946
2806.259877	665.240559
2807.597120	669.019580
2808.932579	668.386480
2810.267815	673.349184
2811.601268	678.549184
2812.936059	678.404196
2814.267508	677.728205
2815.601853	681.439627
2816.931300	676.944056
2818.262084	675.013054
2819.592646	668.616783
2820.921429	665.198135
2822.251548	659.380886
2823.579889	653.971562
2824.908009	657.578555
2826.234351	656.317949
2827.562030	653.055012
2828.886375	658.413986
2830.212057	657.314219
2831.535963	664.291841
2832.859650	657.400466
2834.184672	658.055012
2835.506364	653.894639
2836.827838	647.194872
2838.149093	642.129604
2839.470129	641.001399
2840.789393	640.087179
2842.109992	647.594872
2843.428819	644.017249
2844.747428	648.820047
2846.064266	643.034033
2847.380887	641.724476
2848.697291	633.496970
2850.011925	630.843823
2851.327895	623.201399
2852.640544	628.477855
2853.954529	628.738462
2855.268296	635.173427
2856.581848	633.308159
2857.893632	639.463403
2859.203650	635.285315
2860.515003	633.729604
2861.823041	631.203730
2863.132413	630.901632
2864.441571	628.303030
2865.750513	635.372494
2867.057691	635.333333
2868.363107	639.717016
2869.669857	633.399534
2870.974844	635.626107
2872.279618	629.150117
2873.582630	631.253613
2874.888524	633.463403
2876.189562	636.863869
2877.491935	642.863403
2878.792548	656.405128
2880.094495	654.547319
2881.396229	653.092308
2882.694658	647.233566
2883.994421	641.428904
2885.292427	635.881119
2886.590221	629.890909
2887.886259	628.234033
2889.183630	632.874126
2890.479245	636.996270
2891.774649	647.798601
2893.069842	639.777156
2894.361738	638.486247
2895.656510	640.776690
2896.947985	637.952448
2898.240793	632.303963
2899.533391	621.046620
2900.822695	615.383683
2902.113331	616.050350
2903.402216	615.913753
2904.692434	618.758508
2905.979359	616.613054
2907.267618	618.237296
2908.554126	618.720280
2909.840427	623.751981
2911.126519	618.328671
2912.410863	611.631702
2913.698078	605.679254
2914.980467	608.184149
2916.264188	608.866667
2917.546163	606.590676
2918.827930	610.325874
2920.107953	606.244755
2921.390845	603.047552
2922.671992	608.914219
2923.949857	601.247552
2925.230591	602.019114
2926.508044	607.460606
2927.785291	610.831702
2929.060797	611.951515
2930.339170	610.820047
2931.612728	613.167366
2932.889154	611.925408
2934.163839	609.138928
2935.436784	607.915618
2936.711059	601.006061
2937.983595	604.081119
2939.255927	605.449883
2940.524985	602.020513
2941.796909	595.435897
2943.067095	586.648485
2944.337078	583.938928
2945.606857	586.275991
2946.874899	582.153846
2948.141206	580.395804
2949.407310	578.443823
2950.674744	586.606527
2951.940444	586.191608
2953.205941	586.860140
2954.471236	580.854079
2955.733266	576.095571
2956.996627	576.861072
2958.259785	581.631235
2959.521212	582.004662
2960.783968	579.853147
2962.044993	584.493240
2963.304286	591.869464
2964.563380	586.827040
2965.822273	586.095105
2967.080966	589.124942
2968.339459	583.381352
2969.596223	584.370163
2970.852787	586.476457
2972.107624	585.365501
2973.363789	580.453613
2974.616700	576.686713
2975.870940	570.792075
2977.124981	565.013520
2978.377296	563.821911
2979.629412	567.191608
2980.879804	561.510490
2982.133051	567.023310
2983.381521	564.884382
2984.632846	559.952448
2985.880921	561.761305
2987.128800	562.752914
2988.376481	566.949650
2989.623965	569.747786
2990.869728	573.839161
2992.115295	576.229837
2993.362189	571.973427
2994.605839	566.609324
2995.850817	557.627040
2997.092551	546.249883
2998.337137	548.308625
2999.580004	544.275058
3000.819630	548.784149
3002.062106	548.451748
3003.301343	558.176690
3004.541906	559.868998
3005.780754	553.462937
3007.019406	555.458741
3008.256344	560.676457
3009.494608	556.760373
3010.731158	554.868065
3011.967513	548.454079
3013.203675	553.350117
3014.438124	547.646620
3015.672379	549.060140
3016.906441	535.329138
3018.138791	530.035897
3019.369429	531.674592
3020.602913	532.661538
3021.834685	531.122611
3023.064747	531.737995
3024.294617	533.141725
3025.522777	540.045688
3026.752263	538.067133
3027.980040	539.466200
3029.207627	534.673660
3030.436539	543.582284
3031.660709	541.000000
3032.887722	539.656876
3034.111511	540.420513
3035.336627	536.804196
3036.560036	535.148252
3037.783255	536.941725
3039.004769	534.814452
3040.229124	529.692308
3041.448744	533.344522
3042.669690	534.755711
3043.890447	532.131935
3045.109500	532.043823
3046.329879	529.248485
3047.547041	525.511888
3048.765528	527.871795
3049.982313	531.317949
3051.198911	531.317483
3052.415320	525.414918
3053.628517	528.179021
3054.844551	523.521212
3056.057373	524.123543
3057.273032	525.094172
3058.483968	522.772960
3059.696229	522.383217
3060.908304	520.056876
3062.120192	515.865268
3063.330382	509.179021
3064.540386	502.334266
3065.750204	498.610723
3066.958327	494.843823
3068.166263	488.396270
3069.372504	491.110956
3070.580070	493.327273
3071.785941	497.747786
3072.991628	499.147319
3074.197129	504.713753
3075.400937	505.813986
3076.606069	509.200932
3077.809509	512.316550
3079.011256	513.369231
3080.212820	508.844289
3081.414199	513.783683
3082.615396	512.533333
3083.814901	511.041492
3085.014224	505.116550
3086.214870	501.794872
3087.413826	493.190210
3088.609588	494.030769
3089.808179	489.291841
3091.003576	490.461538
3092.200296	494.175758
3093.393824	502.158508
3094.590180	502.213054
3095.784850	502.939860
3096.976329	496.448019
3098.172139	497.190676
3099.363256	497.075991
3100.555695	497.524009
3101.744947	491.028438
3102.937025	495.519814
3104.127418	493.405128
3105.314626	491.076457
3106.503157	485.750583
3107.693009	484.186480
3108.879678	475.626573
3110.066167	472.143590
3111.252476	476.138462
3112.440107	478.730536
3113.624557	485.145455
3114.807326	487.209324
3115.992918	483.579953
3117.176831	487.018182
3118.359065	483.188345
3119.541120	482.243357
3120.722998	473.388811
3121.904697	471.739860
3123.084718	470.454545
3124.263063	470.857809
3125.444228	471.207459
3126.622219	467.381352
3127.800032	472.204196
3128.977668	471.164103
3130.153629	469.123077
3131.329413	473.634499
3132.506519	471.214452
3133.681950	473.557576
3134.855708	460.718881
3136.027793	462.853147
3137.201200	462.853613
3138.374430	464.456410
3139.545989	468.692308
3140.718868	462.072727
3141.888581	464.598601
3143.059613	467.533800
3144.228976	461.303963
3145.396669	465.589744
3146.567177	463.098834
3147.733026	466.106294
3148.903185	469.326340
3150.068686	472.220979
3151.234014	468.931469
3152.399168	468.337063
3153.564148	468.617249
3154.730448	464.902564
3155.892096	458.207925
3157.055063	460.298834
3158.217858	457.868531
3159.380480	451.192075
3160.541437	443.942191
3161.702221	439.818182
3162.862833	432.859674
3164.021781	435.987879
3165.180558	434.417249
3166.339163	431.824709
3167.497596	434.444289
3168.655857	435.205594
3169.812456	433.857809
3170.967394	431.568765
3172.123651	426.046154
3173.278247	428.317016
3174.432673	425.758974
3175.585439	425.764103
3176.738035	425.075991
3177.890460	428.365035
3179.042716	431.158042
3180.194801	427.942657
3181.343741	423.786014
3182.495487	426.114685
3183.645575	423.303497
3184.794007	427.643823
3185.942270	430.375291
3187.090363	434.241958
3188.238288	436.327739
3189.384558	443.178089
3190.530659	444.578555
3191.675105	444.566434
3192.819384	442.996270
3193.963495	444.114685
3195.108923	436.184149
3196.251213	436.993473
3197.393336	434.984149
3198.535291	433.418182
3199.677079	429.217716
3200.818701	429.046154
3201.957186	426.299301
3203.096989	427.296503
3204.238110	426.772028
3205.376096	426.693706
3206.512433	423.922611
3207.648604	427.975291
3208.786093	425.447552
3209.921932	424.957576
3211.059089	422.985082
3212.191633	421.806993
3213.328459	419.853147
3214.460673	420.950583
3215.594204	422.898834
3216.727571	423.707692
3217.857810	425.434965
3218.990847	428.521212
3220.120758	424.073660
3221.251985	419.440093
3222.380088	416.208392
3223.510987	410.191142
3224.640242	403.756177
3225.767854	402.312354
3226.892344	403.599068
3228.021108	403.432168
3229.146751	401.499301
3230.272232	398.295105
3231.396071	396.985082
3232.522704	394.606061
3233.644740	394.549650
3234.768092	391.544522
3235.891282	391.911422
3237.014310	395.834965
3238.135698	396.026573
3239.256925	397.826107
3240.376513	397.136597
3241.495940	391.369231
3242.613729	396.117016
3243.734310	401.512821
3244.851778	403.425175
3245.969085	405.795804
3247.086232	410.431235
3248.201743	411.660140
3249.318569	406.318881
3250.432284	407.485315
3251.548789	406.794406
3252.663660	400.263869
3253.775422	403.304429
3254.887024	406.432634
3255.999942	404.582284
3257.112701	400.348252
3258.222353	404.355245
3259.333319	407.330070
3260.444127	404.733800
3261.553304	403.891841
3262.660849	396.832634
3263.769708	400.251748
3264.878410	409.565501
3265.984009	411.383217
3267.090922	412.576224
3268.196206	407.175758
3269.302805	414.727273
3270.406303	415.089977
3271.511115	411.742657
3272.615770	402.742657
3273.717326	392.791608
3274.818726	398.735664
3275.921441	394.834033
3277.023998	392.800466
3278.123459	393.572960
3279.225704	392.854545
3280.324853	395.619114
3281.422378	398.005594
3282.519747	398.469930
3283.619899	394.636364
3284.716957	390.255012
3285.813860	388.241026
3286.910608	379.634033
3288.002798	383.745921
3289.099236	384.834499
3290.194052	386.829837
3291.288714	384.583683
3292.381754	386.891841
3293.474640	387.262005
3294.565905	385.734732
3295.658483	384.140793
3296.749440	386.826107
3297.838778	385.959907
3298.927963	386.337063
3300.018461	386.913753
3301.105874	381.083450
3302.193135	373.709091
3303.281708	375.288112
3304.370128	375.296037
3305.454001	376.833100
3306.542116	379.632168
3307.627150	380.604662
3308.710567	373.914685
3309.795297	369.403263
3310.878412	367.660606
3311.962838	362.492774
3313.044186	356.600000
3314.126846	363.871329
3315.207892	364.598135
3316.288787	371.206527
3317.368068	372.673660
3318.447200	373.960839
3319.527642	371.173427
3320.605010	377.959907
3321.683690	377.683450
3322.760759	375.295105
3323.837677	365.800466
3324.912984	366.944988
3325.988142	360.308159
3327.064611	355.671795
3328.138010	353.309091
3329.211260	353.245688
3330.285820	348.850350
3331.358772	356.043823
3332.430115	352.377622
3333.502770	354.279720
3334.572357	350.999068
3335.643255	353.918415
3336.712546	352.336131
3337.783148	355.929604
3338.852143	352.694639
3339.919532	353.410723
3340.985316	350.912354
3342.055326	351.037762
3343.122273	350.170163
3344.186158	357.437762
3345.252811	358.661538
3346.317859	355.587879
3347.381304	350.153846
3348.444603	349.885781
3349.507755	342.047086
3350.570761	345.265734
3351.633621	340.076923
3352.694879	341.772494
3353.753080	342.597669
3354.815502	348.050816
3355.874867	347.703497
3356.934087	345.165967
3357.994617	340.769697
3359.050637	342.830769
3360.109421	342.155245
3361.163698	345.033566
3362.220739	344.089044
3363.276182	347.242890
3364.332933	344.465268
3365.388086	345.283450
3366.441642	342.986014
3367.493602	342.789744
3368.548323	338.985082
3369.599995	339.090909
3370.651524	339.054545
3371.704361	341.540793
3372.754151	341.474592
3373.805250	343.255012
3374.853303	340.293706
3375.904115	343.388345
3376.951883	345.042890
3377.999508	349.565035
3379.046990	348.206061
3380.092880	345.040559
3381.140078	349.133800
3382.184234	347.644289
3383.231148	346.612587
3384.276470	346.096503
3385.318751	335.061538
3386.360892	337.889977
3387.404340	338.652214
3388.447647	337.238695
3389.489365	332.164569
3390.530941	329.325408
3391.572377	336.660140
3392.612223	332.096970
3393.650481	330.703030
3394.690048	329.662937
3395.729473	325.772028
3396.767311	326.274592
3397.803562	322.754779
3398.839674	321.935664
3399.877093	321.332867
3400.911479	320.708625
3401.947172	320.661072
3402.982726	318.699301
3404.015249	320.166434
3405.050525	321.208392
3406.082770	323.935664
3407.114877	327.821911
3408.145400	328.545455
3409.177230	331.725408
3410.208922	329.098368
3411.237586	333.494172
3412.266113	333.575291
3413.295947	336.487179
3414.325642	337.601399
3415.352312	331.877855
3416.380289	333.403730
3417.405241	336.365501
3418.432943	328.349184
3419.457622	323.964569
3420.483607	315.739860
3421.508012	322.938928
3422.532281	322.368298
3423.554971	323.246620
3424.577525	323.817249
3425.601385	321.660606
3426.622225	321.635897
3427.642930	320.013520
3428.664940	311.653613
3429.683932	303.520746
3430.702789	297.441026
3431.722951	295.240559
3432.740097	298.745455
