-116.516516	57.400000
-113.846916	68.200000
-111.180251	58.400000
-108.514338	43.800000
-105.851357	55.600000
-103.186947	35.800000
-100.525467	58.200000
-97.862557	71.800000
-95.204755	58.200000
-92.545523	78.400000
-89.887039	42.400000
-87.231479	95.400000
-84.574491	54.200000
-81.922601	65.600000
-79.269280	49.200000
-76.618880	79.000000
-73.967050	62.800000
-71.320311	84.000000
-68.672142	70.000000
-66.024717	62.200000
-63.380205	67.400000
-60.734265	62.000000
-58.093406	57.000000
-55.451118	75.400000
-52.811738	83.200000
-50.170930	72.800000
-47.530862	63.200000
-44.895866	69.000000
-42.259442	51.800000
-39.625920	86.600000
-36.990970	105.800000
-34.361085	78.200000
-31.727608	100.400000
-29.099193	84.400000
-26.471512	79.600000
-23.842402	95.200000
-21.218349	79.600000
-18.590707	111.600000
-15.968118	102.200000
-13.346261	125.600000
-10.725134	158.000000
-8.104737	259.400000
-5.487229	735.600000
-2.868291	2162.000000
-0.252240	6926.200000
2.363083	9836.800000
4.977679	5367.800000
7.589392	613.400000
10.202534	154.400000
12.810642	137.800000
15.422332	101.600000
18.028991	113.000000
20.637078	97.800000
23.244441	104.000000
25.846779	83.200000
28.452695	84.600000
31.053589	82.800000
33.655911	97.600000
36.253216	98.200000
38.854096	93.600000
41.449962	111.600000
44.047255	121.600000
46.643829	109.800000
49.235394	147.200000
51.828387	112.200000
54.418519	114.800000
57.010079	83.800000
59.598779	114.400000
62.188906	110.000000
64.774035	104.800000
67.360590	97.400000
69.946432	109.200000
72.529420	108.400000
75.113834	120.200000
77.691120	131.000000
80.271972	148.000000
82.849975	155.600000
85.427268	133.200000
88.005987	131.800000
90.579724	167.600000
93.154889	174.600000
95.727210	188.400000
98.298823	201.400000
100.867596	228.600000
103.437796	265.600000
106.005158	347.200000
108.573945	369.200000
111.139896	439.000000
113.703012	561.200000
116.269684	757.800000
118.827135	958.200000
121.390271	1321.400000
123.948447	1870.800000
126.510178	2614.000000
129.066952	3813.800000
131.625153	5434.400000
134.178401	7841.600000
136.730950	11060.800000
139.287050	14997.600000
141.838202	19132.200000
144.388657	23178.400000
146.938414	26058.000000
149.485353	28086.400000
152.031595	28846.600000
154.579263	28918.400000
157.126235	29145.600000
159.668272	28561.400000
162.209615	28178.600000
164.750265	27945.600000
167.292341	27610.200000
169.831605	27276.600000
172.368061	26757.000000
174.903825	26319.400000
177.441015	25607.000000
179.977514	25148.400000
182.511207	24616.200000
185.042097	24098.200000
187.572298	23754.000000
190.103924	23290.600000
192.632749	23242.600000
195.158775	23345.400000
197.684115	23099.400000
200.210881	23416.200000
202.734849	23570.400000
205.258133	24075.200000
207.780732	24507.000000
210.300538	25189.800000
212.819661	25878.400000
215.338101	26196.600000
217.857965	26747.800000
220.370828	27316.200000
222.887222	27518.800000
225.402934	27279.400000
227.913756	26412.600000
230.426004	25267.400000
232.935468	23781.600000
235.444254	22243.200000
237.952362	20646.800000
240.461893	18922.600000
242.966544	17353.600000
245.470519	15965.000000
247.975919	14996.000000
250.476443	14329.200000
252.980490	13846.000000
255.477566	13539.000000
257.978166	13341.000000
260.475994	13204.000000
262.973149	12940.800000
265.469631	12866.800000
267.961250	12767.600000
270.456389	12804.200000
272.948762	12632.400000
275.440464	12508.000000
277.929402	12494.200000
280.419765	12197.400000
282.907365	12086.000000
285.392206	11933.600000
287.880562	11921.400000
290.361978	11724.800000
292.846908	11552.600000
295.326993	11366.400000
297.810590	11174.400000
300.289344	11154.400000
302.769522	11207.400000
305.246947	11036.200000
307.723709	11098.600000
310.199808	11141.200000
312.673158	11030.200000
315.145846	11093.800000
317.617873	11223.400000
320.089239	11412.000000
322.557861	11447.600000
325.025823	11531.200000
327.495207	11439.600000
329.959769	11388.200000
332.427835	11592.400000
334.891081	11484.000000
337.353669	11429.200000
339.815601	11431.600000
342.276876	11449.200000
344.735417	11396.600000
347.195380	11323.800000
349.652610	11328.000000
352.109186	11330.000000
354.565108	11212.800000
357.018301	11221.000000
359.472915	11198.400000
361.922728	11136.200000
364.376037	11214.800000
366.824548	11223.200000
369.272408	11251.400000
371.721689	11429.400000
374.166177	11543.600000
376.612087	11686.200000
379.057348	11789.600000
381.499889	12123.200000
383.941783	12227.200000
386.383030	12382.800000
388.821561	12711.000000
391.261514	12665.400000
393.698753	12921.000000
396.133280	12960.800000
398.571295	13262.400000
401.004533	13360.200000
403.439192	13513.000000
405.869079	13879.000000
408.302451	13954.000000
410.731053	13944.600000
413.159014	13442.200000
415.588395	13206.200000
418.013011	13030.800000
420.439049	12701.200000
422.864446	12434.200000
425.289203	12375.800000
427.709202	12117.000000
430.130622	12200.400000
432.549345	11996.000000
434.969489	11853.200000
437.386938	11926.800000
439.805807	11899.600000
442.221983	11874.800000
444.633412	11946.200000
447.048317	11724.000000
449.460532	11677.400000
451.872113	11587.600000
454.283060	11507.600000
456.691321	11344.400000
459.098949	11276.200000
461.505945	11230.800000
463.912310	11073.600000
466.315992	11094.600000
468.719044	11025.400000
471.121466	11028.400000
473.523258	10999.400000
475.922373	10885.000000
478.322907	10914.200000
480.722812	10986.000000
483.117994	10818.600000
485.516643	10889.600000
487.910572	10850.600000
490.303875	10959.000000
492.696552	10831.200000
495.088604	10940.600000
497.482074	10971.000000
499.870833	10851.800000
502.256925	10929.000000
504.644436	10925.600000
507.031325	10915.200000
509.415550	10993.600000
511.801194	11000.200000
514.184175	11021.000000
516.564496	11042.800000
518.946236	11279.400000
521.325317	11168.600000
523.705817	11278.600000
526.083659	11344.400000
528.458846	11509.800000
530.833415	11525.000000
533.209403	11685.600000
535.582737	11995.200000
537.957489	12114.800000
540.327556	12306.200000
542.697007	12470.200000
545.067876	12409.600000
547.434065	12233.400000
549.801672	12332.800000
552.166633	12170.000000
554.530981	12224.400000
556.894717	12012.400000
559.259869	12081.400000
561.620350	12004.000000
563.982249	12007.000000
566.341507	11915.200000
568.698128	11761.200000
571.058193	11873.000000
573.411567	11748.800000
575.768386	11792.800000
578.122570	11609.800000
580.476146	11637.400000
582.829113	11491.600000
585.179449	11564.600000
587.531201	11571.000000
589.876277	11456.400000
592.226817	11393.000000
594.570683	11425.600000
596.920011	11444.000000
599.264691	11443.000000
601.606745	11456.600000
603.950217	11451.800000
606.291066	11638.600000
608.631313	11818.200000
610.968939	12093.800000
613.310000	12803.400000
615.646423	14423.800000
617.984263	17668.400000
620.319486	23059.600000
622.652093	26054.600000
624.986116	22720.800000
627.317526	17028.200000
629.648337	13718.000000
631.978550	12540.400000
634.308165	12206.000000
636.633158	11829.400000
638.963592	11583.200000
641.289404	11313.800000
643.612610	11291.600000
645.937231	11052.400000
648.259247	11148.400000
650.580670	11035.800000
652.899489	10984.200000
655.219724	11058.800000
657.539366	10974.800000
659.856407	10949.800000
662.172856	11014.400000
664.486707	10973.400000
666.801974	10890.000000
669.114644	10843.600000
671.428729	10941.000000
673.738214	10993.000000
676.049115	10954.800000
678.357423	10816.800000
680.665143	10952.200000
682.974277	11003.400000
685.278820	11001.800000
687.582775	10904.400000
689.886145	10855.600000
692.190929	10900.000000
694.491127	10985.800000
696.792739	11143.000000
699.093767	11412.200000
701.390212	11414.400000
703.688073	11629.000000
705.985350	11517.400000
708.282044	11342.200000
710.574162	11219.400000
712.869691	11151.600000
715.160646	11210.400000
717.453016	11228.200000
719.742811	11274.200000
722.032025	11339.600000
724.320660	11307.200000
726.606723	11424.400000
728.894199	11650.400000
731.179104	11795.200000
733.463432	12370.000000
735.745191	12968.200000
738.028364	13336.800000
740.310960	13901.800000
742.589000	14386.000000
744.868455	14599.800000
747.147334	14795.200000
749.425637	15249.800000
751.699391	15809.200000
753.974559	16106.800000
756.249153	16665.400000
758.521187	17006.200000
760.794635	17102.200000
763.065525	17032.600000
765.333859	16854.800000
767.603606	16655.600000
769.870799	16313.600000
772.137421	16134.800000
774.403473	15826.400000
776.666974	15495.800000
778.931888	15673.400000
781.196232	16056.400000
783.456047	16638.200000
785.717274	17682.200000
787.977934	18974.200000
790.236048	20351.000000
792.491617	21800.400000
794.750577	22951.000000
797.003038	23192.800000
799.260866	22731.400000
801.514174	21290.800000
803.764943	19500.400000
806.017124	17705.400000
808.266766	16750.200000
810.517821	15975.600000
812.764364	15276.400000
815.012319	14685.600000
817.257740	14204.200000
819.504572	13664.800000
821.750843	13287.600000
823.992610	12966.600000
826.237759	12865.400000
828.476436	12904.000000
830.718495	13111.200000
832.956056	13325.000000
835.195029	13827.600000
837.431475	14198.800000
839.669332	14667.200000
841.904664	14879.600000
844.137473	15114.800000
846.371693	14577.600000
848.603391	14250.200000
850.834533	13952.400000
853.065122	13658.800000
855.295155	13563.800000
857.524635	13434.200000
859.749633	13509.000000
861.978006	13487.800000
864.201900	13591.600000
866.427204	13521.800000
868.648033	13523.400000
870.872234	13447.200000
873.091962	13456.200000
875.313101	13409.400000
877.533689	13363.800000
879.751767	13400.600000
881.971255	13435.000000
884.186277	13362.000000
886.400752	13267.000000
888.614678	13446.600000
890.828058	13364.600000
893.040890	13518.400000
895.253176	13379.400000
897.462959	13697.400000
899.672197	14016.600000
901.880890	14355.200000
904.087084	14680.600000
906.294687	14878.600000
908.499792	14759.600000
910.704354	14530.400000
912.906421	14116.400000
915.109897	13593.200000
917.310879	13478.200000
919.511320	13158.800000
921.713168	13003.800000
923.908626	12827.600000
926.107443	12778.000000
928.301821	12751.200000
930.499557	12822.200000
932.692857	12811.400000
934.887566	12898.600000
937.079789	12905.600000
939.271474	13144.000000
941.462620	13178.600000
943.651284	13182.600000
945.839412	13307.600000
948.025059	13343.200000
950.214058	13338.200000
952.398634	13319.000000
954.582675	13450.000000
956.770066	13517.800000
958.949153	13668.600000
961.131591	13895.200000
963.313495	14155.600000
965.492924	14299.200000
967.669881	14496.400000
969.848246	14499.600000
972.028018	14564.600000
974.201441	14765.000000
976.378210	15159.800000
978.550572	15801.600000
980.724342	16506.200000
982.893708	17350.800000
985.066418	18924.200000
987.236663	21322.000000
989.406379	24382.800000
991.575566	27887.600000
993.740356	32456.000000
995.908487	42965.200000
998.072224	61674.000000
1000.237367	64538.800000
1002.400051	64542.600000
1004.562210	64538.800000
1006.721912	64542.600000
1008.881090	49944.600000
1011.041674	29437.400000
1013.199803	21871.200000
1015.357408	19046.000000
1017.514490	17761.400000
1019.671049	18043.400000
1021.823228	19319.600000
1023.976813	22075.800000
1026.129877	27354.800000
1028.280493	35084.000000
1030.432514	43022.800000
1032.580162	47406.200000
1034.731142	45471.600000
1036.877751	38618.800000
1039.023841	30771.200000
1041.169413	25092.400000
1043.316390	21521.800000
1045.457078	19537.600000
1047.601096	18149.000000
1049.742673	17570.400000
1051.883734	17282.400000
1054.026199	16924.400000
1056.162385	16639.200000
1058.301897	16624.000000
1060.437053	16763.400000
1062.575534	16954.200000
1064.709661	17017.800000
1066.843275	17376.600000
1068.978294	17526.200000
1071.108963	17827.200000
1073.241037	17660.000000
1075.370682	17741.200000
1077.499815	17657.200000
1079.628436	17259.800000
1081.756546	17221.800000
1083.882230	17098.000000
1086.007404	17033.200000
1088.133982	16811.600000
1090.256222	16944.800000
1092.379867	16951.600000
1094.499178	16932.400000
1096.623717	17035.800000
1098.742011	16949.000000
1100.861710	16943.800000
1102.978990	16542.200000
1105.095764	16237.600000
1107.212031	15711.200000
1109.325882	15299.800000
1111.441138	14904.800000
1113.552070	14784.000000
1115.666315	14635.000000
1117.776239	14350.200000
1119.887567	14177.200000
1121.998390	14026.200000
1124.104897	13795.800000
1126.214714	13775.000000
1128.320216	13688.000000
1130.427121	13737.600000
1132.527811	13847.600000
1134.633713	13882.200000
1136.735306	13961.400000
1138.838302	14264.400000
1140.940797	14383.800000
1143.037085	15031.800000
1145.138581	15871.200000
1147.235773	16676.600000
1149.332468	17809.800000
1151.428664	20099.000000
1153.524363	23034.000000
1155.619563	25217.600000
1157.712368	25478.600000
1159.806574	23502.800000
1161.894589	21122.200000
1163.987802	19401.800000
1166.074827	18497.400000
1168.165151	18214.000000
1170.251188	18483.400000
1172.340522	18733.000000
1174.423675	19771.600000
1176.508230	21553.000000
1178.594187	24251.200000
1180.675862	27412.200000
1182.758939	29807.600000
1184.839630	29860.000000
1186.919829	28705.800000
1188.999537	28198.800000
1191.078754	28449.400000
1193.155589	29392.800000
1195.230043	30499.400000
1197.307788	31326.200000
1199.381264	31850.400000
1201.456140	31852.600000
1203.526749	31089.400000
1205.598760	29870.800000
1207.668394	27954.000000
1209.739429	25467.200000
1211.809976	23564.400000
1213.876262	21623.400000
1215.943949	20249.800000
1218.009264	19233.600000
1220.075979	18713.400000
1222.138438	18227.200000
1224.204182	17966.400000
1226.265673	17663.800000
1228.328563	17260.000000
1230.389086	16854.800000
1232.449125	16453.800000
1234.508682	16195.200000
1236.565873	16111.200000
1238.622583	15940.200000
1240.676930	15808.000000
1242.734557	15728.400000
1244.789822	15795.000000
1246.840846	15626.400000
1248.893270	15669.800000
1250.945214	15670.800000
1252.994800	15625.600000
1255.043907	15667.000000
1257.092536	15567.800000
1259.140686	15468.200000
1261.188357	15213.200000
1263.231799	15420.800000
1265.278515	15183.400000
1267.322878	15173.000000
1269.366765	15357.800000
1271.408300	15306.400000
1273.447486	15335.400000
1275.489945	15334.400000
1277.528181	15389.800000
1279.567816	15504.800000
1281.606976	15597.000000
1283.641917	15711.200000
1285.678257	15623.000000
1287.712253	15736.800000
1289.747647	15758.200000
1291.778827	16057.200000
1293.811405	16176.000000
1295.843512	16571.000000
1297.873278	16622.200000
1299.904442	16840.000000
1301.931398	17100.400000
1303.959752	16973.400000
1305.983902	17129.200000
1308.011316	17213.800000
1310.034528	17209.000000
1312.059138	17335.000000
1314.081414	17424.800000
1316.105087	17592.600000
1318.126427	17883.000000
1320.147299	18279.000000
1322.167704	18543.600000
1324.183916	18940.200000
1326.201525	18771.600000
1328.216806	18959.400000
1330.235346	19054.000000
1332.249697	18977.400000
1334.261722	18680.000000
1336.277004	18462.600000
1338.288101	17826.200000
1340.300595	17164.000000
1342.308906	16960.400000
1344.320473	16567.600000
1346.326000	16221.600000
1348.334783	16132.400000
1350.339388	15849.800000
1352.347247	15862.600000
1354.354644	15903.800000
1356.356010	15795.000000
1358.358773	15709.600000
1360.361075	15665.600000
1362.362918	15877.400000
1364.364301	15713.400000
1366.363371	15868.000000
1368.361982	15902.000000
1370.360135	15667.600000
1372.357829	15721.400000
1374.351361	15496.400000
1376.346289	15445.400000
1378.340759	15207.200000
1380.334774	14838.600000
1382.326480	14613.800000
1384.317732	14224.000000
1386.306678	14077.200000
1388.297019	13765.400000
1390.286905	13738.200000
1392.274488	13900.000000
1394.261616	13640.800000
1396.246443	13741.800000
1398.232665	13764.800000
1400.216587	13685.200000
1402.200056	13774.400000
1404.183072	13680.200000
1406.163791	13743.800000
1408.145904	13722.600000
1410.125721	13626.200000
1412.105086	13496.600000
1414.080313	13680.000000
1416.058779	13439.800000
1418.034950	13392.600000
1420.010673	13615.000000
1421.985946	13509.200000
1423.958928	13568.200000
1425.931462	13679.800000
1427.903548	13690.400000
1429.875187	13898.000000
1431.842697	14263.200000
1433.815281	14782.800000
1435.780060	15371.600000
1437.749910	16001.600000
1439.715637	16609.200000
1441.682756	17301.400000
1443.647592	17776.000000
1445.608308	18406.000000
1447.574093	19145.800000
1449.533922	19518.000000
1451.495144	19812.200000
1453.457759	19767.000000
1455.416259	18768.000000
1457.374316	17527.200000
1459.331932	16199.200000
1461.289106	15048.200000
1463.244004	14573.400000
1465.200294	14216.800000
1467.154310	14006.000000
1469.107886	13857.800000
1471.059189	13753.600000
1473.011884	13711.600000
1474.962308	13428.600000
1476.912292	13472.600000
1478.861838	13605.600000
1480.809115	13299.000000
1482.754125	13501.600000
1484.700526	13433.200000
1486.646490	13532.800000
1488.592017	13647.400000
1490.535279	13727.600000
1492.478104	13931.800000
1494.418666	14059.400000
1496.360619	13815.400000
1498.300310	13796.800000
1500.239567	13477.600000
1502.178388	13443.400000
1504.114950	13390.000000
1506.052903	13510.600000
1507.988597	13375.800000
1509.923858	13484.600000
1511.856863	13283.400000
1513.789435	13384.000000
1515.721575	13387.000000
1517.653283	13379.200000
1519.582737	13446.000000
1521.513582	13414.400000
1523.443995	13510.600000
1525.370336	13454.200000
1527.298068	13483.800000
1529.223549	13418.200000
1531.148601	13416.400000
1533.073224	13543.200000
1534.997418	13410.800000
1536.919364	13542.400000
1538.842701	13481.200000
1540.763792	13420.600000
1542.682638	13542.000000
1544.602873	13662.400000
1546.520866	13537.800000
1548.438432	13565.400000
1550.353756	13559.800000
1552.270470	13665.000000
1554.183129	13552.600000
1556.098992	13566.200000
1558.012615	13623.800000
1559.924001	13633.400000
1561.836775	13689.000000
1563.745500	13855.400000
1565.655614	13956.400000
1567.565305	13969.800000
1569.474573	14157.200000
1571.381607	14417.600000
1573.286408	14636.400000
1575.192598	15395.400000
1577.096556	16228.400000
1579.000093	17460.400000
1580.903210	19758.200000
1582.804097	22951.000000
1584.706373	24184.600000
1586.606421	22726.400000
1588.507856	20360.200000
1590.405258	18571.400000
1592.302241	18843.200000
1594.198806	19935.600000
1596.096759	22597.000000
1597.988877	26724.400000
1599.884188	32346.600000
1601.779082	38495.200000
1603.671754	41180.600000
1605.564010	38811.600000
1607.454045	32556.800000
1609.343666	26302.800000
1611.232870	21307.600000
1613.121660	18336.000000
1615.008232	16592.800000
1616.896192	15756.200000
1618.780135	15180.600000
1620.665466	14975.200000
1622.550382	14700.200000
1624.433085	14451.000000
1626.317175	14394.400000
1628.197254	14242.600000
1630.078719	14199.400000
1631.957974	14086.800000
1633.838615	13968.200000
1635.713452	13746.200000
1637.593270	13717.400000
1639.469084	13666.000000
1641.344487	13476.400000
1643.221276	13597.800000
1645.092269	13541.600000
1646.966443	13496.200000
1648.836619	13488.600000
1650.709975	13396.600000
1652.581128	13350.600000
1654.450079	13457.200000
1656.320416	13364.200000
1658.186759	13280.200000
1660.054488	13260.400000
1661.920018	13308.000000
1663.786934	13409.800000
1665.649861	13318.800000
1667.514173	13269.000000
1669.376289	13368.000000
1671.238001	13303.000000
1673.101097	13286.400000
1674.961999	13421.400000
1676.820707	13439.200000
1678.679012	13358.000000
1680.538702	13368.200000
1682.392624	13497.200000
1684.249720	13508.800000
1686.106413	13395.000000
1687.959130	13350.200000
1689.815017	13256.200000
1691.666931	13353.800000
1693.518444	13298.600000
1695.369556	13020.200000
1697.220268	13087.000000
1699.070579	13109.200000
1700.918705	13079.000000
1702.768216	13033.800000
1704.611978	12960.200000
1706.460689	12949.200000
1708.303654	12893.600000
1710.149786	13039.400000
1711.991955	12882.800000
1713.837290	13022.200000
1715.676884	12897.600000
1717.517862	13004.200000
1719.360223	12977.400000
1721.198628	12880.800000
1723.038416	13023.400000
1724.876029	13042.800000
1726.713246	12893.800000
1728.548290	12815.800000
1730.384717	12902.800000
1732.218972	12894.000000
1734.052832	12861.000000
1735.886299	12757.200000
1737.715819	12853.800000
1739.548498	12936.600000
1741.377233	12875.400000
1743.209125	12851.200000
1745.037076	12796.800000
1746.864634	12747.400000
1748.691800	12803.600000
1750.518575	12856.800000
1752.344959	12695.800000
1754.167405	12805.800000
1755.993007	12811.600000
1757.814674	12809.000000
1759.637723	12689.000000
1761.458610	12735.200000
1763.279109	12702.200000
1765.100989	12756.600000
1766.917169	12808.800000
1768.736501	12705.200000
1770.551906	12710.200000
1772.370461	12750.200000
1774.185091	12951.000000
1775.999335	12861.200000
1777.813191	12815.600000
1779.626661	12911.600000
1781.437978	12720.800000
1783.250676	12751.400000
1785.062987	12776.800000
1786.871381	12796.400000
1788.681155	12731.400000
1790.487015	12825.600000
1792.296020	12781.400000
1794.101112	12893.800000
1795.907585	12774.600000
1797.713674	12852.000000
1799.515853	12906.600000
1801.321175	12903.600000
1803.122589	12855.000000
1804.925383	12982.000000
1806.724271	12979.000000
1808.524540	13022.200000
1810.324427	12855.000000
1812.122173	12949.800000
1813.919537	12918.000000
1815.716522	12804.200000
1817.513126	12845.600000
1819.307591	12835.400000
1821.103435	12841.000000
1822.893625	12797.400000
1824.688710	12866.600000
1826.478144	12780.400000
1828.270714	12799.800000
1830.061149	12660.800000
1831.849450	12843.600000
1833.640886	12788.000000
1835.426676	12732.800000
1837.213846	12798.200000
1838.998884	12688.200000
1840.787056	12598.600000
1842.571342	12739.200000
1844.353499	12576.600000
1846.137034	12736.400000
1847.918441	12777.200000
1849.701227	12770.400000
1851.480132	12784.000000
1853.260417	12728.800000
1855.038575	12753.200000
1856.818112	12754.400000
1858.595524	12933.400000
1860.370812	12791.000000
1862.147478	12795.000000
1863.922022	12877.400000
1865.697944	12752.200000
1867.468245	12955.800000
1869.241674	12744.600000
1871.012983	12865.000000
1872.783922	12869.800000
1874.556237	12850.200000
1876.322939	13069.400000
1878.092767	12942.800000
1879.858731	12893.000000
1881.627818	13022.800000
1883.393045	12908.400000
1885.157902	12984.000000
1886.924137	12973.600000
1888.686513	12966.400000
1890.448522	12901.200000
1892.210163	12863.800000
1893.971438	12859.600000
1895.732345	12964.200000
1897.492886	12917.800000
1899.251317	13100.400000
1901.009382	12773.800000
1902.765340	12833.800000
1904.522674	12962.800000
1906.279643	12871.400000
1908.034505	12934.000000
1909.787263	12842.200000
1911.539657	12948.400000
1913.293426	12855.400000
1915.045092	13014.000000
1916.794656	13060.000000
1918.545595	13003.600000
1920.296172	13079.200000
1922.042909	13063.600000
1923.791023	13117.200000
1925.537037	13074.800000
1927.284427	13267.400000
1929.029718	13118.400000
1930.772912	13196.000000
1932.517481	13254.800000
1934.259955	13039.200000
1936.002068	13125.600000
1937.743821	13241.000000
1939.485215	13277.600000
1941.224514	13264.600000
1942.963455	13172.400000
1944.702037	13137.000000
1946.438528	13276.600000
1948.174661	13331.000000
1949.912168	13385.400000
1951.645853	13478.800000
1953.380913	13377.400000
1955.113885	13564.200000
1956.846499	13567.800000
1958.578758	13470.600000
1960.310660	13611.600000
1962.040476	13635.400000
1963.768207	13429.600000
1965.497313	13594.400000
1967.226064	13500.000000
1968.952731	13535.800000
1970.679044	13533.800000
1972.406730	13598.600000
1974.128880	13530.000000
1975.854131	13393.200000
1977.575576	13567.200000
1979.300120	13559.200000
1981.022585	13686.600000
1982.741246	13700.000000
1984.463006	13770.000000
1986.180964	13682.200000
1987.900295	13700.400000
1989.615827	13771.600000
1991.336179	13789.800000
1993.052733	13611.800000
1994.765490	13787.000000
1996.481344	13846.600000
1998.195124	13655.400000
1999.908555	13814.600000
2001.619915	13781.000000
2003.332647	13875.000000
2005.041589	13871.800000
2006.753624	13851.600000
2008.460149	13903.400000
2010.169766	13834.400000
2011.877317	13884.200000
2013.584520	13984.400000
2015.289656	13941.000000
2016.994447	13848.200000
2018.700609	13942.600000
2020.402989	14053.000000
2022.106741	14048.800000
2023.808429	13989.400000
2025.509773	13989.200000
2027.210771	13976.200000
2028.909708	13982.000000
2030.610017	14143.200000
2032.306551	14075.400000
2034.004456	14082.200000
2035.700302	14072.800000
2037.399234	14030.600000
2039.092680	13986.000000
2040.787497	14079.800000
2042.481972	14210.000000
2044.172678	14171.200000
2045.866468	14281.600000
2047.556491	14258.400000
2049.247885	14037.400000
2050.937226	14136.000000
2052.627937	14119.400000
2054.314885	14137.800000
2056.001494	14105.000000
2057.689473	14182.200000
2059.373691	14089.000000
2061.059281	14183.000000
2062.744531	14148.600000
2064.427733	13959.200000
2066.112304	14156.200000
2067.791413	13913.400000
2069.475307	14114.800000
2071.153741	13916.800000
2072.835251	14060.800000
2074.513011	14040.600000
2076.190433	14037.000000
2077.869225	14028.800000
2079.545975	14089.000000
2081.220683	14036.600000
2082.896760	14056.600000
2084.570797	14097.800000
2086.244498	14029.800000
2087.917864	14087.400000
2089.589192	14057.400000
2091.260185	14016.200000
2092.930844	14160.600000
2094.601168	14047.800000
2096.271159	14226.800000
2097.939114	14199.000000
2099.606736	14192.400000
2101.272323	14216.400000
2102.939279	14400.400000
2104.604202	14264.200000
2106.268793	14377.600000
2107.931352	14391.200000
2109.595279	14583.400000
2111.257176	14547.600000
2112.918741	14645.400000
2114.579975	14617.000000
2116.239181	14468.400000
2117.898056	14628.200000
2119.556602	14740.600000
2121.214818	14650.600000
2122.869310	14576.000000
2124.526867	14631.800000
2126.184095	14666.000000
2127.837601	14634.200000
2129.492475	14697.600000
2131.143631	14682.600000
2132.797848	14771.800000
2134.448349	14703.000000
2136.100216	14784.200000
2137.746675	14667.400000
2139.397889	14787.400000
2141.045389	14824.800000
2142.694256	14889.200000
2144.341105	14807.800000
2145.987627	14732.400000
2147.633824	14846.200000
2149.276313	14779.400000
2150.921860	14849.000000
2152.563700	14887.600000
2154.208597	14898.600000
2155.849789	14780.400000
2157.490657	14830.400000
2159.131201	14763.800000
2160.769733	14796.600000
2162.409631	14930.200000
2164.045829	14705.600000
2165.683394	14756.200000
2167.320635	14806.000000
2168.955867	14693.200000
2170.590778	14832.000000
2172.225367	14752.000000
2173.859634	14810.200000
2175.490208	14719.200000
2177.123834	14800.400000
2178.753768	14912.600000
2180.385067	14772.600000
2182.014361	14857.200000
2183.643336	14894.000000
2185.271991	14947.600000
2186.900327	14875.200000
2188.526661	14861.400000
2190.152676	14797.800000
2191.776690	14982.200000
2193.402068	14986.600000
2195.025447	14926.800000
2196.650189	14929.600000
2198.271251	14887.400000
2199.891996	14982.000000
2201.514106	14866.400000
2203.134218	15165.200000
2204.752333	14991.600000
2206.370133	14994.000000
2207.987618	14871.200000
2209.604787	14915.200000
2211.221641	14961.600000
2212.838179	14974.600000
2214.452725	14980.400000
2216.065278	15001.600000
2217.679195	15117.200000
2219.291121	15095.200000
2220.904410	15099.400000
2222.515709	15116.600000
2224.125018	14871.000000
2225.735691	15110.000000
2227.344375	14998.600000
2228.952746	15126.600000
2230.559131	15067.800000
2232.166879	15079.200000
2233.772640	15220.800000
2235.378090	15135.400000
2236.981555	15065.600000
2238.586383	15218.400000
2240.189227	15270.400000
2241.790089	15283.000000
2243.392312	15266.400000
2244.992554	15303.800000
2246.594158	15270.400000
2248.192110	15196.000000
2249.791424	15310.400000
2251.388758	15331.000000
2252.985783	15243.800000
2254.584171	15252.600000
2256.178910	15329.800000
2257.771672	15374.800000
2259.365797	15275.400000
2260.961283	15393.600000
2262.553125	15359.600000
2264.144660	15357.800000
2265.737556	15387.800000
2267.325143	15444.800000
2268.917427	15369.000000
2270.504403	15447.000000
2272.094407	15503.600000
2273.679108	15384.600000
2275.268501	15436.600000
2276.852593	15341.600000
2278.438046	15373.200000
2280.021529	15290.400000
2281.608039	15319.000000
2283.190914	15211.000000
2284.773487	15222.200000
2286.355756	15302.800000
2287.934396	15267.800000
2289.516059	15268.800000
2291.094094	15168.800000
2292.675152	15191.600000
2294.252583	15223.400000
2295.828051	15255.200000
2297.406541	14993.600000
2298.981407	15228.600000
2300.555972	15243.400000
2302.130237	15179.400000
2303.704201	15195.600000
2305.277865	15343.000000
2306.851228	15263.600000
2308.420973	15202.200000
2309.990419	15372.400000
2311.562883	15383.800000
2313.130073	15390.200000
2314.700281	15298.800000
2316.266874	15504.600000
2317.834827	15446.800000
2319.400824	15453.000000
2320.966524	15435.200000
2322.531927	15576.800000
2324.095375	15371.200000
2325.660183	15567.200000
2327.221383	15651.600000
2328.785597	15570.400000
2330.344549	15599.000000
2331.906516	15807.200000
2333.466532	15733.600000
2335.026252	15642.200000
2336.584023	15776.000000
2338.141499	15713.400000
2339.698681	15868.600000
2341.253915	15850.600000
2342.808856	15726.000000
2344.363503	15866.600000
2345.917855	15938.800000
2347.471915	15855.600000
2349.025680	15779.400000
2350.577502	15845.600000
2352.127380	15742.000000
2353.680266	15933.400000
2355.227910	15768.000000
2356.778561	15803.600000
2358.325621	15870.800000
2359.874039	15845.600000
2361.422166	15881.800000
2362.966704	15905.600000
2364.512600	15695.200000
2366.056558	15806.000000
2367.601873	15695.000000
2369.143603	15879.200000
2370.686690	15897.800000
2372.227841	15877.800000
2373.768704	15858.600000
2375.309276	15910.200000
2376.849560	15886.000000
2378.389555	16015.600000
2379.925972	15812.000000
2381.465390	15756.400000
2383.001231	15912.200000
2384.538428	15798.000000
2386.072050	15946.600000
2387.608673	15996.400000
2389.143364	15924.200000
2390.676126	15786.400000
2392.208601	15950.400000
2393.739148	15870.000000
2395.272693	16061.200000
2396.801027	16042.000000
2398.330718	15999.800000
2399.860123	16043.800000
2401.389242	15918.400000
2402.918077	16017.600000
2404.441706	16004.800000
2405.969972	16174.400000
2407.493034	16226.000000
2409.020730	16102.000000
2410.541587	16141.200000
2412.067077	16149.400000
2413.589006	16168.000000
2415.112291	16052.400000
2416.633654	16196.800000
2418.153099	16162.000000
2419.673898	16206.000000
2421.192778	16189.400000
2422.711376	16289.600000
2424.228057	16373.400000
2425.746092	16245.800000
2427.263846	16233.000000
2428.778049	16399.400000
2430.291971	16281.200000
2431.805613	16353.200000
2433.320610	16291.400000
2434.832058	16355.000000
2436.344861	16295.400000
2437.855750	16417.600000
2439.366361	16300.000000
2440.875060	16294.200000
2442.386745	16330.000000
2443.894887	16365.400000
2445.402751	16341.400000
2446.910337	16305.000000
2448.414382	16498.000000
2449.921413	16316.800000
2451.426535	16294.400000
2452.931380	16373.400000
2454.434317	16393.400000
2455.936979	16251.400000
2457.439364	16150.200000
2458.939844	16227.800000
2460.441677	16027.800000
2461.941605	16094.200000
2463.441259	16189.400000
2464.940636	16050.000000
2466.438111	16126.000000
2467.933684	16077.200000
2469.432237	16056.200000
2470.927262	16113.200000
2472.423639	16185.400000
2473.916490	16159.800000
2475.410694	16170.000000
2476.904624	16141.600000
2478.395030	16092.000000
2479.888414	16340.000000
2481.379900	16065.000000
2482.869489	16299.600000
2484.358806	16228.600000
2485.846228	16246.000000
2487.336625	16285.000000
2488.823503	16366.800000
2490.311733	16294.800000
2491.796447	16391.800000
2493.280890	16283.200000
2494.766685	16382.200000
2496.250587	16438.400000
2497.735841	16496.800000
2499.215960	16430.200000
2500.699053	16536.000000
2502.180255	16357.400000
2503.661188	16507.400000
2505.140232	16653.400000
2506.619007	16563.400000
2508.097514	16630.000000
2509.575753	16600.800000
2511.053723	16623.000000
2512.528188	16440.600000
2514.005623	16486.200000
2515.479554	16639.400000
2516.954835	16650.600000
2518.429850	16719.600000
2519.901363	16626.600000
2521.374226	16705.600000
2522.845207	16795.200000
2524.317538	16675.000000
2525.784755	16922.000000
2527.254939	16769.200000
2528.723242	16772.600000
2530.191280	16839.000000
2531.659053	16749.200000
2533.126561	16803.400000
2534.593804	16777.800000
2536.057555	16792.600000
2537.522656	16917.800000
2538.985880	16933.400000
2540.450454	16914.600000
2541.911538	16884.400000
2543.373972	17012.400000
2544.836143	17148.000000
2546.294828	16979.400000
2547.758085	17079.800000
2549.216245	17268.400000
2550.675754	17138.000000
2552.130169	17186.400000
2553.589155	17321.200000
2555.046269	17250.000000
2556.501512	17304.200000
2557.956494	17293.600000
2559.409606	17329.000000
2560.864067	17252.800000
2562.316659	17246.400000
2563.768991	17282.400000
2565.219455	17389.800000
2566.672875	17436.000000
2568.121213	17263.600000
2569.572507	17355.600000
2571.021934	17439.400000
2572.467889	17519.600000
2573.916799	17515.200000
2575.362239	17532.600000
2576.809027	17527.200000
2578.253951	17486.600000
2579.698617	17516.800000
2581.144632	17686.800000
2582.587179	17510.000000
2584.031074	17575.000000
2585.471504	17575.000000
2586.913281	17381.200000
2588.353199	17576.000000
2589.794464	17426.000000
2591.232267	17666.000000
2592.673021	17603.400000
2594.108711	17640.600000
2595.547351	17837.000000
2596.984133	17819.600000
2598.419060	17726.400000
2599.856934	17631.800000
2601.289751	17916.200000
2602.723915	17849.600000
2604.156225	17991.600000
2605.589881	18048.600000
2607.021684	17867.600000
2608.453233	17930.600000
2609.884530	17917.400000
2611.313974	17862.400000
2612.743166	17908.400000
2614.170508	17972.800000
2615.599195	17895.000000
2617.027631	17983.200000
2618.452619	18002.800000
2619.878954	17776.400000
2621.303440	17892.600000
2622.729272	17825.400000
2624.151660	17937.800000
2625.575394	17866.000000
2626.997281	17769.000000
2628.418919	17923.200000
2629.838711	17743.400000
2631.259849	17787.400000
2632.680737	17783.000000
2634.098187	17709.800000
2635.518576	17951.800000
2636.935528	17910.600000
2638.352231	17729.200000
2639.768687	17617.200000
2641.184893	17993.200000
2642.600852	17803.400000
2644.014970	17830.600000
2645.428841	17827.600000
2646.840872	17771.000000
2648.254248	17889.400000
2649.664194	17897.200000
2651.077075	17870.800000
2652.486528	17991.000000
2653.895735	18082.000000
2655.303106	18085.400000
2656.713412	18058.400000
2658.121881	17874.000000
2659.528515	17964.800000
2660.934904	17885.800000
2662.339459	17858.200000
2663.745358	18018.200000
2665.149424	18104.200000
2666.553245	18237.600000
2667.956823	17978.200000
2669.358568	18158.600000
2670.761657	18274.400000
2672.161328	18103.400000
2673.562343	18249.200000
2674.959942	18140.200000
2676.360471	18025.000000
2677.757585	18110.800000
2679.156042	18282.200000
2680.552671	18192.000000
2681.949058	18206.800000
2683.345204	18207.600000
2684.739523	18127.000000
2686.135184	18123.000000
2687.527437	18248.800000
2688.921032	18072.800000
2690.312803	18231.200000
2691.705917	18135.800000
2693.097207	18066.400000
2694.486674	18137.400000
2695.875901	18029.800000
2697.264889	17985.400000
2698.655219	18181.400000
2700.040564	18212.800000
2701.428833	18206.200000
2702.815282	18046.400000
2704.201492	18160.000000
2705.587464	18162.200000
2706.970036	18112.600000
2708.353951	18166.000000
2709.737628	18059.800000
2711.121067	18267.400000
2712.501110	18200.200000
2713.882495	18340.600000
2715.262064	18314.400000
2716.642975	18257.400000
2718.022070	18372.200000
2719.399352	18278.200000
2720.777975	18522.400000
2722.154785	18529.000000
2723.531359	18308.200000
2724.907697	18537.000000
2726.282223	18513.400000
2727.658090	18545.800000
2729.030570	18544.200000
2730.405966	18546.200000
2731.776402	18481.000000
2733.148179	18545.400000
2734.519721	18509.800000
2735.889455	18556.800000
2737.260530	18476.000000
2738.629796	18602.000000
2739.998829	18490.600000
2741.366056	18632.400000
2742.733050	18566.800000
2744.099811	18478.000000
2745.466339	18503.600000
2746.831062	18465.600000
2748.195554	18441.400000
2749.559813	18410.600000
2750.923840	18595.600000
2752.287636	18556.000000
2753.648058	18552.200000
2755.011391	18535.800000
2756.369781	18425.000000
2757.731081	18458.000000
2759.089010	18445.000000
2760.449848	18195.600000
2761.808887	18399.800000
2763.164557	18372.800000
2764.523135	18267.800000
2765.878346	18337.000000
2767.233328	18297.200000
2768.586514	18402.600000
2769.942606	18453.200000
2771.295333	18552.800000
2772.647833	18566.600000
2774.000104	18526.600000
2775.353714	18429.400000
2776.703962	18508.000000
2778.052417	18701.600000
2779.403776	18646.200000
2780.751776	18619.400000
2782.101114	18579.400000
2783.448661	18514.600000
2784.795980	18737.800000
2786.143073	18619.200000
2787.488375	18418.200000
2788.833451	18483.800000
2790.178300	18326.600000
2791.522924	18251.200000
2792.864196	18297.800000
2794.206806	18469.200000
2795.549190	18430.800000
2796.891350	18462.200000
2798.230160	18386.400000
2799.571869	18395.200000
2800.910231	18502.000000
2802.249930	18457.800000
2803.587843	18502.600000
2804.923972	18358.400000
2806.259877	18449.400000
2807.597120	18510.800000
2808.932579	18621.600000
2810.267815	18666.000000
2811.601268	18700.600000
2812.936059	18901.400000
2814.267508	18821.200000
2815.601853	18792.000000
2816.931300	18718.400000
2818.262084	19013.800000
2819.592646	18907.000000
2820.921429	18892.000000
2822.251548	18969.600000
2823.579889	19088.800000
2824.908009	19091.600000
2826.234351	19154.600000
2827.562030	19303.200000
2828.886375	19385.400000
2830.212057	19404.600000
2831.535963	19516.400000
2832.859650	19728.200000
2834.184672	19903.000000
2835.506364	20008.000000
2836.827838	20520.800000
2838.149093	20905.600000
2839.470129	21500.000000
2840.789393	22242.200000
2842.109992	22996.400000
2843.428819	23751.600000
2844.747428	24582.800000
2846.064266	25191.800000
2847.380887	25861.200000
2848.697291	26502.600000
2850.011925	26713.400000
2851.327895	27053.000000
2852.640544	26987.600000
2853.954529	26787.200000
2855.268296	26880.400000
2856.581848	26222.800000
2857.893632	26187.600000
2859.203650	25672.400000
2860.515003	25455.000000
2861.823041	24913.600000
2863.132413	24809.400000
2864.441571	24722.400000
2865.750513	24364.400000
2867.057691	24279.400000
2868.363107	24243.000000
2869.669857	24182.200000
2870.974844	24223.000000
2872.279618	24286.000000
2873.582630	24436.800000
2874.888524	24427.000000
2876.189562	24862.600000
2877.491935	25023.400000
2878.792548	25609.800000
2880.094495	25870.600000
2881.396229	26268.400000
2882.694658	26831.000000
2883.994421	26872.400000
2885.292427	27580.400000
2886.590221	28009.000000
2887.886259	28684.800000
2889.183630	29243.600000
2890.479245	29740.000000
2891.774649	30261.600000
2893.069842	30823.800000
2894.361738	31619.000000
2895.656510	31969.200000
2896.947985	32708.000000
2898.240793	33045.400000
2899.533391	33623.800000
2900.822695	33929.000000
2902.113331	33962.000000
2903.402216	34136.000000
2904.692434	33699.200000
2905.979359	33839.800000
2907.267618	34011.000000
2908.554126	33808.400000
2909.840427	33670.000000
2911.126519	33592.400000
2912.410863	33077.600000
2913.698078	32899.200000
2914.980467	32776.600000
2916.264188	31944.400000
2917.546163	31582.600000
2918.827930	31265.000000
2920.107953	30813.800000
2921.390845	30293.800000
2922.671992	30067.200000
2923.949857	29706.000000
2925.230591	29351.600000
2926.508044	28828.800000
2927.785291	28450.800000
2929.060797	28159.800000
2930.339170	27929.600000
2931.612728	27310.600000
2932.889154	27175.200000
2934.163839	26743.000000
2935.436784	26257.200000
2936.711059	26124.000000
2937.983595	25864.400000
2939.255927	25406.200000
2940.524985	25199.800000
2941.796909	24534.800000
2943.067095	24278.800000
2944.337078	23812.400000
2945.606857	23381.200000
2946.874899	22926.000000
2948.141206	22643.200000
2949.407310	22481.200000
2950.674744	22210.400000
2951.940444	22057.800000
2953.205941	21817.600000
2954.471236	21679.200000
2955.733266	21379.800000
2956.996627	21583.800000
2958.259785	21268.200000
2959.521212	21401.800000
2960.783968	20987.600000
2962.044993	21131.400000
2963.304286	21202.800000
2964.563380	21132.800000
2965.822273	21003.600000
2967.080966	21135.400000
2968.339459	21168.400000
2969.596223	21207.200000
2970.852787	21596.800000
2972.107624	21620.600000
2973.363789	22098.200000
2974.616700	22538.400000
2975.870940	22757.000000
2977.124981	23142.400000
2978.377296	23028.600000
2979.629412	22765.800000
2980.879804	22375.400000
2982.133051	22038.800000
2983.381521	21281.000000
2984.632846	21214.200000
2985.880921	20738.000000
2987.128800	20512.800000
2988.376481	20287.200000
2989.623965	20408.000000
2990.869728	20392.400000
2992.115295	20345.600000
2993.362189	20638.800000
2994.605839	20740.600000
2995.850817	21233.400000
2997.092551	21536.400000
2998.337137	22270.400000
2999.580004	22604.600000
3000.819630	22852.800000
3002.062106	23088.400000
3003.301343	23085.400000
3004.541906	22651.800000
3005.780754	22376.000000
3007.019406	21699.200000
3008.256344	21332.800000
3009.494608	21053.400000
3010.731158	21047.800000
3011.967513	20813.600000
3013.203675	20862.600000
3014.438124	20871.800000
3015.672379	21040.800000
3016.906441	21236.800000
3018.138791	21555.800000
3019.369429	21876.400000
3020.602913	22251.400000
3021.834685	23088.200000
3023.064747	23767.600000
3024.294617	24760.800000
3025.522777	25413.600000
3026.752263	26597.600000
3027.980040	27498.200000
3029.207627	28505.600000
3030.436539	29363.800000
3031.660709	30288.600000
3032.887722	31413.400000
3034.111511	32401.800000
3035.336627	33186.000000
3036.560036	34041.800000
3037.783255	34411.200000
3039.004769	34853.200000
3040.229124	35128.200000
3041.448744	35610.000000
3042.669690	36147.400000
3043.890447	37177.000000
3045.109500	39039.800000
3046.329879	41656.400000
3047.547041	44512.800000
3048.765528	47778.800000
3049.982313	51107.400000
3051.198911	53704.200000
3052.415320	54471.600000
3053.628517	55006.000000
3054.844551	55129.200000
3056.057373	54490.800000
3057.273032	54442.000000
3058.483968	54025.600000
3059.696229	53602.400000
3060.908304	52841.600000
3062.120192	51740.800000
3063.330382	50533.600000
3064.540386	48553.200000
3065.750204	46123.200000
3066.958327	43500.600000
3068.166263	40822.800000
3069.372504	38633.200000
3070.580070	36208.400000
3071.785941	34210.100000
3072.991628	32211.800000
3074.197129	30685.600000
3075.400937	29211.800000
3076.606069	28065.600000
3077.809509	27209.000000
3079.011256	26123.800000
3080.212820	25580.200000
3081.414199	24980.800000
3082.615396	24474.400000
3083.814901	24131.400000
3085.014224	23568.800000
3086.214870	23121.800000
3087.413826	22813.600000
3088.609588	22518.200000
3089.808179	22017.600000
3091.003576	21841.400000
3092.200296	21516.000000
3093.393824	21134.800000
3094.590180	21077.600000
3095.784850	20877.000000
3096.976329	20795.000000
3098.172139	20738.600000
3099.363256	20503.800000
3100.555695	20662.200000
3101.744947	20396.600000
3102.937025	20460.400000
3104.127418	20245.400000
3105.314626	20495.400000
3106.503157	20376.600000
3107.693009	20358.400000
3108.879678	20063.400000
3110.066167	20239.000000
3111.252476	19874.400000
3112.440107	19673.200000
3113.624557	19688.200000
3114.807326	19638.400000
3115.992918	19645.400000
3117.176831	19360.000000
3118.359065	19381.000000
3119.541120	19218.600000
3120.722998	19433.000000
3121.904697	19266.800000
3123.084718	19165.800000
3124.263063	19213.200000
3125.444228	19192.400000
3126.622219	19142.600000
3127.800032	19178.800000
3128.977668	19059.600000
3130.153629	19171.200000
3131.329413	19169.400000
3132.506519	19183.800000
3133.681950	18984.400000
3134.855708	18919.600000
3136.027793	19082.600000
3137.201200	19068.400000
3138.374430	19226.400000
3139.545989	19013.600000
3140.718868	19131.800000
3141.888581	19024.600000
3143.059613	19096.000000
3144.228976	19261.400000
3145.396669	19077.000000
3146.567177	19215.400000
3147.733026	19100.000000
3148.903185	19057.600000
3150.068686	19085.600000
3151.234014	19088.000000
3152.399168	19119.000000
3153.564148	19293.600000
3154.730448	19125.800000
3155.892096	19187.800000
3157.055063	19114.000000
3158.217858	19308.200000
3159.380480	19221.400000
3160.541437	19179.000000
3161.702221	19404.200000
3162.862833	19380.000000
3164.021781	19481.000000
3165.180558	19349.400000
3166.339163	19351.200000
3167.497596	19035.400000
3168.655857	19021.400000
3169.812456	18961.200000
3170.967394	18749.800000
3172.123651	18486.200000
3173.278247	18444.000000
3174.432673	18424.200000
3175.585439	18269.200000
3176.738035	18282.800000
3177.890460	18334.400000
3179.042716	18488.400000
3180.194801	18150.000000
3181.343741	18376.400000
3182.495487	18443.800000
3183.645575	18428.400000
3184.794007	18491.000000
3185.942270	18514.600000
3187.090363	18777.400000
3188.238288	18600.200000
3189.384558	18811.800000
3190.530659	18909.200000
3191.675105	19067.000000
3192.819384	19146.800000
3193.963495	19391.000000
3195.108923	19216.800000
3196.251213	19429.800000
3197.393336	19283.200000
3198.535291	19619.800000
3199.677079	19539.200000
3200.818701	19601.200000
3201.957186	19579.200000
3203.096989	19545.200000
3204.238110	19498.800000
3205.376096	19553.400000
3206.512433	19384.400000
3207.648604	19282.400000
3208.786093	19262.000000
3209.921932	19117.600000
3211.059089	18926.000000
3212.191633	18839.200000
3213.328459	18952.400000
3214.460673	18727.400000
3215.594204	18794.600000
3216.727571	18554.600000
3217.857810	18428.600000
3218.990847	18401.200000
3220.120758	18042.200000
3221.251985	17952.400000
3222.380088	17941.800000
3223.510987	17917.200000
3224.640242	17927.400000
3225.767854	17810.600000
3226.892344	17877.800000
3228.021108	17864.600000
3229.146751	17743.200000
3230.272232	17819.200000
3231.396071	17804.400000
3232.522704	17765.400000
3233.644740	17876.200000
3234.768092	17792.600000
3235.891282	17845.200000
3237.014310	17610.200000
3238.135698	17696.400000
3239.256925	17690.000000
3240.376513	17917.000000
3241.495940	17713.600000
3242.613729	17801.200000
3243.734310	17808.000000
3244.851778	18018.800000
3245.969085	18062.400000
3247.086232	18203.800000
3248.201743	18097.600000
3249.318569	18300.200000
3250.432284	18149.800000
3251.548789	18399.000000
3252.663660	18287.000000
3253.775422	18205.800000
3254.887024	18343.600000
3255.999942	18265.000000
3257.112701	18355.200000
3258.222353	18355.000000
3259.333319	18315.600000
3260.444127	18160.600000
3261.553304	18260.200000
3262.660849	18423.400000
3263.769708	18296.200000
3264.878410	18380.800000
3265.984009	18378.200000
3267.090922	18390.000000
3268.196206	18413.600000
3269.302805	18460.000000
3270.406303	18518.600000
3271.511115	18551.400000
3272.615770	18398.200000
3273.717326	18199.000000
3274.818726	18420.200000
3275.921441	18481.400000
3277.023998	18319.400000
3278.123459	18573.600000
3279.225704	18374.400000
3280.324853	18499.600000
3281.422378	18287.200000
3282.519747	18516.600000
3283.619899	18318.800000
3284.716957	18360.200000
3285.813860	18417.400000
3286.910608	18256.200000
3288.002798	18262.600000
3289.099236	18260.200000
3290.194052	18236.600000
3291.288714	18316.600000
3292.381754	18288.600000
3293.474640	18338.600000
3294.565905	18233.600000
3295.658483	18123.400000
3296.749440	18252.800000
3297.838778	18289.200000
3298.927963	18167.400000
3300.018461	18193.600000
3301.105874	18271.000000
3302.193135	18260.200000
3303.281708	18234.000000
3304.370128	18349.400000
3305.454001	18213.400000
3306.542116	18331.400000
3307.627150	18405.400000
3308.710567	18317.800000
3309.795297	18306.600000
3310.878412	18361.800000
3311.962838	18465.400000
3313.044186	18292.400000
3314.126846	18625.800000
3315.207892	18327.600000
3316.288787	18401.400000
3317.368068	18448.800000
3318.447200	18368.400000
3319.527642	18467.600000
3320.605010	18572.800000
3321.683690	18438.000000
3322.760759	18578.600000
3323.837677	18457.200000
3324.912984	18396.400000
3325.988142	18511.200000
3327.064611	18476.200000
3328.138010	18385.600000
3329.211260	18558.600000
3330.285820	18396.600000
3331.358772	18398.200000
3332.430115	18472.800000
3333.502770	18490.200000
3334.572357	18279.600000
3335.643255	18454.600000
3336.712546	18402.200000
3337.783148	18189.000000
3338.852143	18305.800000
3339.919532	18254.000000
3340.985316	18177.000000
3342.055326	18203.400000
3343.122273	18232.200000
3344.186158	18133.800000
3345.252811	18189.200000
3346.317859	18067.200000
3347.381304	18182.800000
3348.444603	18217.000000
3349.507755	18239.000000
3350.570761	18047.200000
3351.633621	18058.400000
3352.694879	18244.400000
3353.753080	18081.600000
3354.815502	18196.400000
3355.874867	18129.800000
3356.934087	18219.000000
3357.994617	18115.400000
3359.050637	18336.400000
3360.109421	18321.600000
3361.163698	18330.800000
3362.220739	18208.000000
3363.276182	18458.400000
3364.332933	18511.600000
3365.388086	18292.600000
3366.441642	18531.800000
3367.493602	18367.800000
3368.548323	18358.600000
3369.599995	18546.400000
3370.651524	18381.400000
3371.704361	18540.800000
3372.754151	18485.800000
3373.805250	18402.200000
3374.853303	18486.600000
3375.904115	18414.400000
3376.951883	18573.200000
3377.999508	18484.200000
3379.046990	18541.800000
3380.092880	18621.200000
3381.140078	18520.200000
3382.184234	18452.400000
3383.231148	18507.000000
3384.276470	18402.400000
3385.318751	18432.400000
3386.360892	18396.200000
3387.404340	18629.200000
3388.447647	18398.800000
3389.489365	18424.600000
3390.530941	18632.800000
3391.572377	18569.600000
3392.612223	18494.400000
3393.650481	18610.800000
3394.690048	18762.000000
3395.729473	18601.800000
3396.767311	18676.200000
3397.803562	18623.400000
3398.839674	18520.800000
3399.877093	18591.000000
3400.911479	18397.800000
3401.947172	18523.800000
3402.982726	18680.600000
3404.015249	18723.600000
3405.050525	18773.200000
3406.082770	18604.200000
3407.114877	18739.600000
3408.145400	18740.800000
3409.177230	18809.000000
3410.208922	18649.600000
3411.237586	18640.600000
3412.266113	18911.200000
3413.295947	18746.200000
3414.325642	18812.800000
3415.352312	18780.000000
3416.380289	18854.000000
3417.405241	18876.200000
3418.432943	18873.000000
3419.457622	18924.800000
3420.483607	18873.800000
3421.508012	18847.600000
3422.532281	18867.600000
3423.554971	19016.200000
3424.577525	18862.600000
3425.601385	18954.600000
3426.622225	18902.200000
3427.642930	18738.800000
3428.664940	18818.000000
3429.683932	18624.600000
3430.702789	18756.400000
3431.722951	18507.400000
3432.740097	18820.000000
