[Measurement conditions]
Sample identification,
Comment - 1,"Configuration=Flat Sample Stage, Owner=User-1, Creation date=25/4/2018 11:29:14 AM"
Comment - 2,"Goniometer=PW3050/60 (Theta/Theta); Minimum step size 2Theta:0.001; Minimum step size Omega:0.001"
Comment - 3,"Sample stage=PW3071/xx Bracket"
Comment - 4,"Diffractometer system=XPERT-3"
Comment - 5,"Measurement program=C:\PANalytical\Data Collector\Programs\Sample Run.xrdmp, Identifier={0DFC5F1D-C751-41BD-A630-BFBEA311671F}"
Anode material,Cu
K-Alpha1 wavelength,1.5405980
K-Alpha2 wavelength,1.5444260
Ratio K-Alpha2/K-Alpha1,0.500
Divergence slit,Fixed,1.52mm
Receiving slit,0.10
Monochromator used,NO
Generator voltage, 45
Tube current, 40
File date and time,08/Oct/2025 15:06
Unit cell,
h k l, 0 0 0
Scan axis,Gonio
Scan range,20.0000,140.0000
Scan step size,0.0200000
No. of points, 6000
Scan type,CONTINUOUS
Time per step,0.40
[Scan points]
Angle,Intensity
20.0100,73.0
20.0300,80.0
20.0500,75.0
20.0700,49.0
20.0900,66.0
20.1100,76.0
20.1300,78.0
20.1500,55.0
20.1700,61.0
20.1900,57.0
20.2100,66.0
20.2300,74.0
20.2500,59.0
20.2700,59.0
20.2900,60.0
20.3100,61.0
20.3300,77.0
20.3500,59.0
20.3700,71.0
20.3900,56.0
20.4100,56.0
20.4300,67.0
20.4500,75.0
20.4700,76.0
20.4900,64.0
20.5100,56.0
20.5300,72.0
20.5500,82.0
20.5700,67.0
20.5900,59.0
20.6100,68.0
20.6300,60.0
20.6500,65.0
20.6700,48.0
20.6900,61.0
20.7100,71.0
20.7300,50.0
20.7500,68.0
20.7700,54.0
20.7900,44.0
20.8100,50.0
20.8300,59.0
20.8500,64.0
20.8700,68.0
20.8900,68.0
20.9100,54.0
20.9300,66.0
20.9500,57.0
20.9700,68.0
20.9900,66.0
21.0100,58.0
21.0300,77.0
21.0500,53.0
21.0700,69.0
21.0900,69.0
21.1100,55.0
21.1300,73.0
21.1500,73.0
21.1700,66.0
21.1900,72.0
21.2100,57.0
21.2300,47.0
21.2500,74.0
21.2700,67.0
21.2900,72.0
21.3100,64.0
21.3300,43.0
21.3500,64.0
21.3700,59.0
21.3900,55.0
21.4100,71.0
21.4300,68.0
21.4500,59.0
21.4700,68.0
21.4900,64.0
21.5100,63.0
21.5300,67.0
21.5500,64.0
21.5700,68.0
21.5900,69.0
21.6100,67.0
21.6300,69.0
21.6500,64.0
21.6700,61.0
21.6900,56.0
21.7100,69.0
21.7300,85.0
21.7500,51.0
21.7700,71.0
21.7900,80.0
21.8100,67.0
21.8300,59.0
21.8500,74.0
21.8700,50.0
21.8900,65.0
21.9100,42.0
21.9300,68.0
21.9500,70.0
21.9700,72.0
21.9900,64.0
22.0100,79.0
22.0300,65.0
22.0500,67.0
22.0700,62.0
22.0900,70.0
22.1100,66.0
22.1300,61.0
22.1500,82.0
22.1700,66.0
22.1900,54.0
22.2100,69.0
22.2300,41.0
22.2500,57.0
22.2700,55.0
22.2900,67.0
22.3100,71.0
22.3300,59.0
22.3500,69.0
22.3700,69.0
22.3900,63.0
22.4100,64.0
22.4300,66.0
22.4500,59.0
22.4700,76.0
22.4900,64.0
22.5100,64.0
22.5300,56.0
22.5500,69.0
22.5700,72.0
22.5900,73.0
22.6100,64.0
22.6300,63.0
22.6500,86.0
22.6700,65.0
22.6900,77.0
22.7100,57.0
22.7300,71.0
22.7500,60.0
22.7700,80.0
22.7900,74.0
22.8100,69.0
22.8300,74.0
22.8500,79.0
22.8700,70.0
22.8900,68.0
22.9100,62.0
22.9300,79.0
22.9500,76.0
22.9700,68.0
22.9900,62.0
23.0100,89.0
23.0300,83.0
23.0500,60.0
23.0700,61.0
23.0900,75.0
23.1100,65.0
23.1300,83.0
23.1500,64.0
23.1700,60.0
23.1900,69.0
23.2100,92.0
23.2300,83.0
23.2500,82.0
23.2700,76.0
23.2900,76.0
23.3100,74.0
23.3300,80.0
23.3500,73.0
23.3700,86.0
23.3900,78.0
23.4100,76.0
23.4300,94.0
23.4500,87.0
23.4700,84.0
23.4900,79.0
23.5100,77.0
23.5300,66.0
23.5500,73.0
23.5700,88.0
23.5900,81.0
23.6100,74.0
23.6300,69.0
23.6500,79.0
23.6700,86.0
23.6900,78.0
23.7100,68.0
23.7300,84.0
23.7500,66.0
23.7700,80.0
23.7900,70.0
23.8100,80.0
23.8300,73.0
23.8500,65.0
23.8700,79.0
23.8900,69.0
23.9100,72.0
23.9300,74.0
23.9500,89.0
23.9700,67.0
23.9900,78.0
24.0100,79.0
24.0300,86.0
24.0500,67.0
24.0700,83.0
24.0900,91.0
24.1100,73.0
24.1300,81.0
24.1500,86.0
24.1700,66.0
24.1900,83.0
24.2100,83.0
24.2300,65.0
24.2500,76.0
24.2700,71.0
24.2900,65.0
24.3100,95.0
24.3300,87.0
24.3500,90.0
24.3700,90.0
24.3900,70.0
24.4100,91.0
24.4300,87.0
24.4500,92.0
24.4700,76.0
24.4900,62.0
24.5100,78.0
24.5300,77.0
24.5500,94.0
24.5700,76.0
24.5900,70.0
24.6100,59.0
24.6300,106.0
24.6500,84.0
24.6700,96.0
24.6900,58.0
24.7100,79.0
24.7300,79.0
24.7500,72.0
24.7700,76.0
24.7900,77.0
24.8100,57.0
24.8300,73.0
24.8500,74.0
24.8700,82.0
24.8900,65.0
24.9100,78.0
24.9300,102.0
24.9500,70.0
24.9700,75.0
24.9900,97.0
25.0100,70.0
25.0300,84.0
25.0500,79.0
25.0700,98.0
25.0900,91.0
25.1100,60.0
25.1300,88.0
25.1500,101.0
25.1700,88.0
25.1900,81.0
25.2100,78.0
25.2300,97.0
25.2500,78.0
25.2700,86.0
25.2900,105.0
25.3100,82.0
25.3300,97.0
25.3500,87.0
25.3700,88.0
25.3900,76.0
25.4100,87.0
25.4300,92.0
25.4500,83.0
25.4700,77.0
25.4900,73.0
25.5100,89.0
25.5300,80.0
25.5500,71.0
25.5700,93.0
25.5900,89.0
25.6100,84.0
25.6300,75.0
25.6500,84.0
25.6700,103.0
25.6900,90.0
25.7100,84.0
25.7300,67.0
25.7500,80.0
25.7700,77.0
25.7900,90.0
25.8100,90.0
25.8300,78.0
25.8500,90.0
25.8700,85.0
25.8900,101.0
25.9100,93.0
25.9300,76.0
25.9500,114.0
25.9700,89.0
25.9900,89.0
26.0100,86.0
26.0300,96.0
26.0500,102.0
26.0700,93.0
26.0900,84.0
26.1100,93.0
26.1300,81.0
26.1500,71.0
26.1700,87.0
26.1900,94.0
26.2100,116.0
26.2300,92.0
26.2500,98.0
26.2700,94.0
26.2900,111.0
26.3100,92.0
26.3300,84.0
26.3500,88.0
26.3700,102.0
26.3900,101.0
26.4100,89.0
26.4300,124.0
26.4500,91.0
26.4700,120.0
26.4900,98.0
26.5100,88.0
26.5300,120.0
26.5500,111.0
26.5700,99.0
26.5900,95.0
26.6100,87.0
26.6300,101.0
26.6500,112.0
26.6700,84.0
26.6900,98.0
26.7100,99.0
26.7300,81.0
26.7500,101.0
26.7700,94.0
26.7900,105.0
26.8100,83.0
26.8300,88.0
26.8500,99.0
26.8700,101.0
26.8900,92.0
26.9100,107.0
26.9300,108.0
26.9500,101.0
26.9700,83.0
26.9900,87.0
27.0100,117.0
27.0300,110.0
27.0500,102.0
27.0700,102.0
27.0900,110.0
27.1100,117.0
27.1300,108.0
27.1500,104.0
27.1700,97.0
27.1900,115.0
27.2100,112.0
27.2300,104.0
27.2500,91.0
27.2700,114.0
27.2900,92.0
27.3100,107.0
27.3300,114.0
27.3500,93.0
27.3700,97.0
27.3900,100.0
27.4100,107.0
27.4300,114.0
27.4500,104.0
27.4700,101.0
27.4900,107.0
27.5100,126.0
27.5300,118.0
27.5500,110.0
27.5700,110.0
27.5900,103.0
27.6100,108.0
27.6300,117.0
27.6500,119.0
27.6700,115.0
27.6900,97.0
27.7100,123.0
27.7300,103.0
27.7500,114.0
27.7700,107.0
27.7900,104.0
27.8100,103.0
27.8300,116.0
27.8500,106.0
27.8700,124.0
27.8900,117.0
27.9100,106.0
27.9300,137.0
27.9500,118.0
27.9700,94.0
27.9900,102.0
28.0100,106.0
28.0300,126.0
28.0500,108.0
28.0700,108.0
28.0900,99.0
28.1100,95.0
28.1300,116.0
28.1500,114.0
28.1700,103.0
28.1900,97.0
28.2100,115.0
28.2300,127.0
28.2500,130.0
28.2700,115.0
28.2900,126.0
28.3100,97.0
28.3300,117.0
28.3500,104.0
28.3700,92.0
28.3900,112.0
28.4100,105.0
28.4300,114.0
28.4500,111.0
28.4700,113.0
28.4900,108.0
28.5100,101.0
28.5300,108.0
28.5500,113.0
28.5700,105.0
28.5900,113.0
28.6100,132.0
28.6300,111.0
28.6500,142.0
28.6700,136.0
28.6900,134.0
28.7100,128.0
28.7300,141.0
28.7500,131.0
28.7700,136.0
28.7900,126.0
28.8100,123.0
28.8300,127.0
28.8500,139.0
28.8700,108.0
28.8900,130.0
28.9100,121.0
28.9300,126.0
28.9500,116.0
28.9700,118.0
28.9900,112.0
29.0100,99.0
29.0300,123.0
29.0500,116.0
29.0700,104.0
29.0900,89.0
29.1100,125.0
29.1300,105.0
29.1500,132.0
29.1700,113.0
29.1900,117.0
29.2100,118.0
29.2300,106.0
29.2500,110.0
29.2700,103.0
29.2900,109.0
29.3100,115.0
29.3300,97.0
29.3500,122.0
29.3700,112.0
29.3900,124.0
29.4100,94.0
29.4300,108.0
29.4500,121.0
29.4700,96.0
29.4900,115.0
29.5100,97.0
29.5300,118.0
29.5500,101.0
29.5700,119.0
29.5900,117.0
29.6100,122.0
29.6300,124.0
29.6500,133.0
29.6700,125.0
29.6900,101.0
29.7100,124.0
29.7300,141.0
29.7500,119.0
29.7700,127.0
29.7900,128.0
29.8100,122.0
29.8300,126.0
29.8500,110.0
29.8700,132.0
29.8900,111.0
29.9100,111.0
29.9300,105.0
29.9500,137.0
29.9700,123.0
29.9900,114.0
30.0100,108.0
30.0300,120.0
30.0500,103.0
30.0700,123.0
30.0900,94.0
30.1100,113.0
30.1300,128.0
30.1500,116.0
30.1700,105.0
30.1900,94.0
30.2100,108.0
30.2300,100.0
30.2500,86.0
30.2700,96.0
30.2900,90.0
30.3100,106.0
30.3300,104.0
30.3500,97.0
30.3700,93.0
30.3900,102.0
30.4100,102.0
30.4300,103.0
30.4500,99.0
30.4700,93.0
30.4900,92.0
30.5100,101.0
30.5300,84.0
30.5500,97.0
30.5700,97.0
30.5900,95.0
30.6100,115.0
30.6300,108.0
30.6500,117.0
30.6700,97.0
30.6900,109.0
30.7100,94.0
30.7300,99.0
30.7500,112.0
30.7700,97.0
30.7900,113.0
30.8100,85.0
30.8300,105.0
30.8500,111.0
30.8700,98.0
30.8900,104.0
30.9100,100.0
30.9300,96.0
30.9500,105.0
30.9700,78.0
30.9900,89.0
31.0100,88.0
31.0300,94.0
31.0500,96.0
31.0700,103.0
31.0900,102.0
31.1100,103.0
31.1300,98.0
31.1500,116.0
31.1700,105.0
31.1900,88.0
31.2100,105.0
31.2300,111.0
31.2500,106.0
31.2700,107.0
31.2900,95.0
31.3100,78.0
31.3300,99.0
31.3500,94.0
31.3700,100.0
31.3900,100.0
31.4100,97.0
31.4300,96.0
31.4500,101.0
31.4700,104.0
31.4900,108.0
31.5100,94.0
31.5300,103.0
31.5500,96.0
31.5700,99.0
31.5900,83.0
31.6100,92.0
31.6300,109.0
31.6500,85.0
31.6700,103.0
31.6900,93.0
31.7100,103.0
31.7300,82.0
31.7500,117.0
31.7700,97.0
31.7900,93.0
31.8100,84.0
31.8300,99.0
31.8500,95.0
31.8700,88.0
31.8900,97.0
31.9100,106.0
31.9300,96.0
31.9500,111.0
31.9700,96.0
31.9900,95.0
32.0100,102.0
32.0300,103.0
32.0500,94.0
32.0700,98.0
32.0900,87.0
32.1100,89.0
32.1300,84.0
32.1500,86.0
32.1700,96.0
32.1900,105.0
32.2100,100.0
32.2300,79.0
32.2500,82.0
32.2700,96.0
32.2900,90.0
32.3100,85.0
32.3300,97.0
32.3500,110.0
32.3700,94.0
32.3900,105.0
32.4100,99.0
32.4300,119.0
32.4500,104.0
32.4700,93.0
32.4900,103.0
32.5100,95.0
32.5300,89.0
32.5500,83.0
32.5700,92.0
32.5900,107.0
32.6100,95.0
32.6300,97.0
32.6500,102.0
32.6700,76.0
32.6900,92.0
32.7100,98.0
32.7300,90.0
32.7500,89.0
32.7700,82.0
32.7900,94.0
32.8100,97.0
32.8300,100.0
32.8500,98.0
32.8700,103.0
32.8900,85.0
32.9100,108.0
32.9300,87.0
32.9500,111.0
32.9700,81.0
32.9900,86.0
33.0100,113.0
33.0300,96.0
33.0500,78.0
33.0700,88.0
33.0900,92.0
33.1100,96.0
33.1300,93.0
33.1500,83.0
33.1700,86.0
33.1900,95.0
33.2100,94.0
33.2300,88.0
33.2500,83.0
33.2700,110.0
33.2900,122.0
33.3100,86.0
33.3300,88.0
33.3500,85.0
33.3700,106.0
33.3900,107.0
33.4100,95.0
33.4300,98.0
33.4500,90.0
33.4700,102.0
33.4900,93.0
33.5100,119.0
33.5300,92.0
33.5500,94.0
33.5700,105.0
33.5900,97.0
33.6100,95.0
33.6300,95.0
33.6500,106.0
33.6700,98.0
33.6900,98.0
33.7100,98.0
33.7300,99.0
33.7500,113.0
33.7700,88.0
33.7900,102.0
33.8100,90.0
33.8300,114.0
33.8500,118.0
33.8700,82.0
33.8900,84.0
33.9100,99.0
33.9300,102.0
33.9500,92.0
33.9700,108.0
33.9900,82.0
34.0100,86.0
34.0300,100.0
34.0500,91.0
34.0700,88.0
34.0900,112.0
34.1100,97.0
34.1300,94.0
34.1500,87.0
34.1700,79.0
34.1900,88.0
34.2100,98.0
34.2300,81.0
34.2500,90.0
34.2700,103.0
34.2900,95.0
34.3100,99.0
34.3300,96.0
34.3500,99.0
34.3700,101.0
34.3900,90.0
34.4100,78.0
34.4300,98.0
34.4500,92.0
34.4700,99.0
34.4900,67.0
34.5100,84.0
34.5300,116.0
34.5500,96.0
34.5700,90.0
34.5900,87.0
34.6100,95.0
34.6300,103.0
34.6500,96.0
34.6700,95.0
34.6900,101.0
34.7100,91.0
34.7300,99.0
34.7500,79.0
34.7700,93.0
34.7900,85.0
34.8100,89.0
34.8300,107.0
34.8500,101.0
34.8700,93.0
34.8900,83.0
34.9100,102.0
34.9300,97.0
34.9500,102.0
34.9700,89.0
34.9900,79.0
35.0100,103.0
35.0300,97.0
35.0500,83.0
35.0700,102.0
35.0900,104.0
35.1100,86.0
35.1300,104.0
35.1500,72.0
35.1700,80.0
35.1900,98.0
35.2100,85.0
35.2300,107.0
35.2500,84.0
35.2700,113.0
35.2900,104.0
35.3100,86.0
35.3300,101.0
35.3500,89.0
35.3700,87.0
35.3900,90.0
35.4100,91.0
35.4300,100.0
35.4500,94.0
35.4700,88.0
35.4900,86.0
35.5100,94.0
35.5300,101.0
35.5500,92.0
35.5700,86.0
35.5900,104.0
35.6100,83.0
35.6300,79.0
35.6500,61.0
35.6700,85.0
35.6900,87.0
35.7100,93.0
35.7300,99.0
35.7500,99.0
35.7700,94.0
35.7900,125.0
35.8100,98.0
35.8300,92.0
35.8500,98.0
35.8700,74.0
35.8900,100.0
35.9100,81.0
35.9300,90.0
35.9500,79.0
35.9700,84.0
35.9900,71.0
36.0100,96.0
36.0300,91.0
36.0500,95.0
36.0700,69.0
36.0900,79.0
36.1100,85.0
36.1300,85.0
36.1500,85.0
36.1700,93.0
36.1900,94.0
36.2100,94.0
36.2300,85.0
36.2500,88.0
36.2700,77.0
36.2900,87.0
36.3100,90.0
36.3300,80.0
36.3500,81.0
36.3700,98.0
36.3900,90.0
36.4100,66.0
36.4300,80.0
36.4500,66.0
36.4700,72.0
36.4900,93.0
36.5100,95.0
36.5300,73.0
36.5500,90.0
36.5700,93.0
36.5900,74.0
36.6100,86.0
36.6300,93.0
36.6500,96.0
36.6700,81.0
36.6900,98.0
36.7100,84.0
36.7300,80.0
36.7500,100.0
36.7700,96.0
36.7900,86.0
36.8100,97.0
36.8300,97.0
36.8500,78.0
36.8700,79.0
36.8900,91.0
36.9100,93.0
36.9300,87.0
36.9500,88.0
36.9700,79.0
36.9900,79.0
37.0100,80.0
37.0300,86.0
37.0500,82.0
37.0700,97.0
37.0900,87.0
37.1100,85.0
37.1300,76.0
37.1500,88.0
37.1700,77.0
37.1900,89.0
37.2100,85.0
37.2300,85.0
37.2500,73.0
37.2700,78.0
37.2900,86.0
37.3100,72.0
37.3300,88.0
37.3500,79.0
37.3700,79.0
37.3900,83.0
37.4100,71.0
37.4300,107.0
37.4500,83.0
37.4700,82.0
37.4900,96.0
37.5100,96.0
37.5300,81.0
37.5500,78.0
37.5700,73.0
37.5900,89.0
37.6100,72.0
37.6300,89.0
37.6500,83.0
37.6700,95.0
37.6900,76.0
37.7100,96.0
37.7300,73.0
37.7500,85.0
37.7700,75.0
37.7900,89.0
37.8100,81.0
37.8300,79.0
37.8500,87.0
37.8700,81.0
37.8900,70.0
37.9100,85.0
37.9300,71.0
37.9500,94.0
37.9700,74.0
37.9900,86.0
38.0100,69.0
38.0300,82.0
38.0500,77.0
38.0700,83.0
38.0900,72.0
38.1100,69.0
38.1300,90.0
38.1500,70.0
38.1700,74.0
38.1900,70.0
38.2100,78.0
38.2300,65.0
38.2500,94.0
38.2700,71.0
38.2900,73.0
38.3100,76.0
38.3300,80.0
38.3500,78.0
38.3700,79.0
38.3900,85.0
38.4100,70.0
38.4300,60.0
38.4500,89.0
38.4700,78.0
38.4900,77.0
38.5100,90.0
38.5300,80.0
38.5500,73.0
38.5700,84.0
38.5900,82.0
38.6100,76.0
38.6300,77.0
38.6500,88.0
38.6700,77.0
38.6900,78.0
38.7100,65.0
38.7300,64.0
38.7500,71.0
38.7700,68.0
38.7900,74.0
38.8100,75.0
38.8300,92.0
38.8500,81.0
38.8700,77.0
38.8900,80.0
38.9100,88.0
38.9300,84.0
38.9500,77.0
38.9700,75.0
38.9900,74.0
39.0100,77.0
39.0300,83.0
39.0500,79.0
39.0700,99.0
39.0900,66.0
39.1100,84.0
39.1300,76.0
39.1500,79.0
39.1700,84.0
39.1900,97.0
39.2100,67.0
39.2300,66.0
39.2500,88.0
39.2700,104.0
39.2900,70.0
39.3100,80.0
39.3300,76.0
39.3500,76.0
39.3700,80.0
39.3900,64.0
39.4100,84.0
39.4300,66.0
39.4500,80.0
39.4700,83.0
39.4900,81.0
39.5100,66.0
39.5300,67.0
39.5500,98.0
39.5700,71.0
39.5900,64.0
39.6100,71.0
39.6300,88.0
39.6500,83.0
39.6700,88.0
39.6900,76.0
39.7100,79.0
39.7300,75.0
39.7500,97.0
39.7700,76.0
39.7900,77.0
39.8100,67.0
39.8300,88.0
39.8500,84.0
39.8700,74.0
39.8900,71.0
39.9100,69.0
39.9300,87.0
39.9500,84.0
39.9700,77.0
39.9900,74.0
40.0100,87.0
40.0300,76.0
40.0500,72.0
40.0700,86.0
40.0900,84.0
40.1100,76.0
40.1300,84.0
40.1500,76.0
40.1700,97.0
40.1900,96.0
40.2100,91.0
40.2300,82.0
40.2500,102.0
40.2700,109.0
40.2900,111.0
40.3100,108.0
40.3300,109.0
40.3500,110.0
40.3700,133.0
40.3900,128.0
40.4100,158.0
40.4300,158.0
40.4500,183.0
40.4700,193.0
40.4900,215.0
40.5100,237.0
40.5300,282.0
40.5500,301.0
40.5700,306.0
40.5900,351.0
40.6100,375.0
40.6300,364.0
40.6500,421.0
40.6700,353.0
40.6900,416.0
40.7100,395.0
40.7300,379.0
40.7500,314.0
40.7700,327.0
40.7900,287.0
40.8100,279.0
40.8300,262.0
40.8500,183.0
40.8700,206.0
40.8900,199.0
40.9100,151.0
40.9300,173.0
40.9500,164.0
40.9700,130.0
40.9900,123.0
41.0100,135.0
41.0300,122.0
41.0500,114.0
41.0700,136.0
41.0900,103.0
41.1100,103.0
41.1300,99.0
41.1500,76.0
41.1700,80.0
41.1900,77.0
41.2100,87.0
41.2300,70.0
41.2500,84.0
41.2700,94.0
41.2900,78.0
41.3100,73.0
41.3300,89.0
41.3500,72.0
41.3700,84.0
41.3900,60.0
41.4100,70.0
41.4300,69.0
41.4500,72.0
41.4700,60.0
41.4900,69.0
41.5100,72.0
41.5300,81.0
41.5500,82.0
41.5700,68.0
41.5900,71.0
41.6100,84.0
41.6300,82.0
41.6500,71.0
41.6700,72.0
41.6900,77.0
41.7100,68.0
41.7300,76.0
41.7500,77.0
41.7700,62.0
41.7900,61.0
41.8100,62.0
41.8300,73.0
41.8500,67.0
41.8700,64.0
41.8900,50.0
41.9100,66.0
41.9300,60.0
41.9500,69.0
41.9700,72.0
41.9900,66.0
42.0100,82.0
42.0300,79.0
42.0500,64.0
42.0700,72.0
42.0900,79.0
42.1100,85.0
42.1300,83.0
42.1500,66.0
42.1700,66.0
42.1900,67.0
42.2100,73.0
42.2300,72.0
42.2500,68.0
42.2700,61.0
42.2900,72.0
42.3100,73.0
42.3300,64.0
42.3500,78.0
42.3700,66.0
42.3900,68.0
42.4100,78.0
42.4300,76.0
42.4500,53.0
42.4700,64.0
42.4900,67.0
42.5100,51.0
42.5300,66.0
42.5500,53.0
42.5700,75.0
42.5900,65.0
42.6100,73.0
42.6300,53.0
42.6500,78.0
42.6700,82.0
42.6900,61.0
42.7100,67.0
42.7300,60.0
42.7500,59.0
42.7700,76.0
42.7900,75.0
42.8100,59.0
42.8300,61.0
42.8500,73.0
42.8700,73.0
42.8900,66.0
42.9100,65.0
42.9300,69.0
42.9500,61.0
42.9700,63.0
42.9900,71.0
43.0100,54.0
43.0300,58.0
43.0500,54.0
43.0700,59.0
43.0900,66.0
43.1100,76.0
43.1300,56.0
43.1500,85.0
43.1700,70.0
43.1900,66.0
43.2100,71.0
43.2300,60.0
43.2500,76.0
43.2700,55.0
43.2900,71.0
43.3100,64.0
43.3300,58.0
43.3500,62.0
43.3700,64.0
43.3900,54.0
43.4100,64.0
43.4300,74.0
43.4500,73.0
43.4700,70.0
43.4900,75.0
43.5100,65.0
43.5300,63.0
43.5500,43.0
43.5700,70.0
43.5900,63.0
43.6100,65.0
43.6300,62.0
43.6500,72.0
43.6700,68.0
43.6900,72.0
43.7100,71.0
43.7300,66.0
43.7500,55.0
43.7700,56.0
43.7900,65.0
43.8100,63.0
43.8300,74.0
43.8500,64.0
43.8700,51.0
43.8900,56.0
43.9100,62.0
43.9300,64.0
43.9500,59.0
43.9700,57.0
43.9900,84.0
44.0100,67.0
44.0300,65.0
44.0500,71.0
44.0700,53.0
44.0900,58.0
44.1100,72.0
44.1300,69.0
44.1500,59.0
44.1700,84.0
44.1900,68.0
44.2100,56.0
44.2300,61.0
44.2500,70.0
44.2700,61.0
44.2900,63.0
44.3100,65.0
44.3300,58.0
44.3500,58.0
44.3700,50.0
44.3900,56.0
44.4100,67.0
44.4300,78.0
44.4500,62.0
44.4700,71.0
44.4900,61.0
44.5100,61.0
44.5300,74.0
44.5500,73.0
44.5700,69.0
44.5900,64.0
44.6100,57.0
44.6300,81.0
44.6500,68.0
44.6700,69.0
44.6900,65.0
44.7100,67.0
44.7300,57.0
44.7500,67.0
44.7700,53.0
44.7900,57.0
44.8100,71.0
44.8300,58.0
44.8500,66.0
44.8700,61.0
44.8900,78.0
44.9100,66.0
44.9300,70.0
44.9500,68.0
44.9700,56.0
44.9900,64.0
45.0100,49.0
45.0300,58.0
45.0500,60.0
45.0700,64.0
45.0900,42.0
45.1100,62.0
45.1300,65.0
45.1500,52.0
45.1700,60.0
45.1900,57.0
45.2100,68.0
45.2300,64.0
45.2500,70.0
45.2700,48.0
45.2900,62.0
45.3100,58.0
45.3300,61.0
45.3500,57.0
45.3700,57.0
45.3900,59.0
45.4100,69.0
45.4300,60.0
45.4500,70.0
45.4700,66.0
45.4900,75.0
45.5100,56.0
45.5300,75.0
45.5500,55.0
45.5700,49.0
45.5900,52.0
45.6100,59.0
45.6300,68.0
45.6500,54.0
45.6700,62.0
45.6900,55.0
45.7100,56.0
45.7300,74.0
45.7500,66.0
45.7700,54.0
45.7900,60.0
45.8100,75.0
45.8300,60.0
45.8500,59.0
45.8700,51.0
45.8900,57.0
45.9100,58.0
45.9300,62.0
45.9500,62.0
45.9700,64.0
45.9900,52.0
46.0100,57.0
46.0300,56.0
46.0500,43.0
46.0700,55.0
46.0900,71.0
46.1100,57.0
46.1300,50.0
46.1500,63.0
46.1700,72.0
46.1900,64.0
46.2100,52.0
46.2300,64.0
46.2500,44.0
46.2700,53.0
46.2900,57.0
46.3100,35.0
46.3300,69.0
46.3500,59.0
46.3700,55.0
46.3900,57.0
46.4100,75.0
46.4300,68.0
46.4500,66.0
46.4700,64.0
46.4900,69.0
46.5100,73.0
46.5300,55.0
46.5500,51.0
46.5700,71.0
46.5900,74.0
46.6100,52.0
46.6300,73.0
46.6500,73.0
46.6700,57.0
46.6900,54.0
46.7100,71.0
46.7300,71.0
46.7500,70.0
46.7700,74.0
46.7900,72.0
46.8100,72.0
46.8300,63.0
46.8500,72.0
46.8700,65.0
46.8900,54.0
46.9100,67.0
46.9300,49.0
46.9500,65.0
46.9700,62.0
46.9900,46.0
47.0100,59.0
47.0300,49.0
47.0500,55.0
47.0700,63.0
47.0900,67.0
47.1100,53.0
47.1300,59.0
47.1500,52.0
47.1700,65.0
47.1900,68.0
47.2100,69.0
47.2300,60.0
47.2500,69.0
47.2700,72.0
47.2900,51.0
47.3100,64.0
47.3300,60.0
47.3500,89.0
47.3700,64.0
47.3900,51.0
47.4100,61.0
47.4300,49.0
47.4500,56.0
47.4700,66.0
47.4900,72.0
47.5100,73.0
47.5300,65.0
47.5500,69.0
47.5700,50.0
47.5900,56.0
47.6100,75.0
47.6300,46.0
47.6500,58.0
47.6700,53.0
47.6900,59.0
47.7100,74.0
47.7300,59.0
47.7500,63.0
47.7700,50.0
47.7900,67.0
47.8100,58.0
47.8300,61.0
47.8500,57.0
47.8700,69.0
47.8900,64.0
47.9100,71.0
47.9300,71.0
47.9500,54.0
47.9700,61.0
47.9900,74.0
48.0100,61.0
48.0300,61.0
48.0500,76.0
48.0700,59.0
48.0900,66.0
48.1100,74.0
48.1300,51.0
48.1500,82.0
48.1700,64.0
48.1900,63.0
48.2100,60.0
48.2300,63.0
48.2500,73.0
48.2700,62.0
48.2900,69.0
48.3100,64.0
48.3300,81.0
48.3500,55.0
48.3700,55.0
48.3900,48.0
48.4100,75.0
48.4300,60.0
48.4500,67.0
48.4700,43.0
48.4900,67.0
48.5100,60.0
48.5300,67.0
48.5500,53.0
48.5700,64.0
48.5900,49.0
48.6100,47.0
48.6300,49.0
48.6500,49.0
48.6700,55.0
48.6900,58.0
48.7100,61.0
48.7300,65.0
48.7500,53.0
48.7700,71.0
48.7900,62.0
48.8100,54.0
48.8300,56.0
48.8500,66.0
48.8700,71.0
48.8900,49.0
48.9100,59.0
48.9300,66.0
48.9500,65.0
48.9700,67.0
48.9900,58.0
49.0100,54.0
49.0300,55.0
49.0500,63.0
49.0700,55.0
49.0900,59.0
49.1100,60.0
49.1300,57.0
49.1500,52.0
49.1700,56.0
49.1900,56.0
49.2100,45.0
49.2300,52.0
49.2500,49.0
49.2700,62.0
49.2900,54.0
49.3100,62.0
49.3300,55.0
49.3500,53.0
49.3700,60.0
49.3900,59.0
49.4100,57.0
49.4300,55.0
49.4500,51.0
49.4700,71.0
49.4900,55.0
49.5100,65.0
49.5300,72.0
49.5500,62.0
49.5700,66.0
49.5900,58.0
49.6100,66.0
49.6300,47.0
49.6500,51.0
49.6700,57.0
49.6900,63.0
49.7100,49.0
49.7300,66.0
49.7500,62.0
49.7700,62.0
49.7900,42.0
49.8100,53.0
49.8300,72.0
49.8500,65.0
49.8700,43.0
49.8900,63.0
49.9100,51.0
49.9300,50.0
49.9500,60.0
49.9700,55.0
49.9900,73.0
50.0100,57.0
50.0300,50.0
50.0500,53.0
50.0700,65.0
50.0900,48.0
50.1100,66.0
50.1300,70.0
50.1500,65.0
50.1700,50.0
50.1900,71.0
50.2100,51.0
50.2300,64.0
50.2500,41.0
50.2700,57.0
50.2900,51.0
50.3100,72.0
50.3300,53.0
50.3500,60.0
50.3700,78.0
50.3900,54.0
50.4100,61.0
50.4300,52.0
50.4500,78.0
50.4700,46.0
50.4900,56.0
50.5100,59.0
50.5300,66.0
50.5500,62.0
50.5700,53.0
50.5900,54.0
50.6100,68.0
50.6300,55.0
50.6500,55.0
50.6700,56.0
50.6900,52.0
50.7100,58.0
50.7300,60.0
50.7500,68.0
50.7700,62.0
50.7900,70.0
50.8100,68.0
50.8300,57.0
50.8500,49.0
50.8700,55.0
50.8900,67.0
50.9100,56.0
50.9300,66.0
50.9500,67.0
50.9700,68.0
50.9900,57.0
51.0100,59.0
51.0300,41.0
51.0500,65.0
51.0700,61.0
51.0900,66.0
51.1100,40.0
51.1300,57.0
51.1500,66.0
51.1700,60.0
51.1900,47.0
51.2100,57.0
51.2300,62.0
51.2500,61.0
51.2700,64.0
51.2900,66.0
51.3100,60.0
51.3300,60.0
51.3500,64.0
51.3700,71.0
51.3900,66.0
51.4100,44.0
51.4300,50.0
51.4500,68.0
51.4700,49.0
51.4900,53.0
51.5100,70.0
51.5300,69.0
51.5500,67.0
51.5700,65.0
51.5900,64.0
51.6100,67.0
51.6300,53.0
51.6500,63.0
51.6700,45.0
51.6900,56.0
51.7100,57.0
51.7300,49.0
51.7500,60.0
51.7700,63.0
51.7900,63.0
51.8100,59.0
51.8300,71.0
51.8500,52.0
51.8700,56.0
51.8900,63.0
51.9100,58.0
51.9300,60.0
51.9500,71.0
51.9700,63.0
51.9900,55.0
52.0100,68.0
52.0300,64.0
52.0500,59.0
52.0700,67.0
52.0900,52.0
52.1100,51.0
52.1300,59.0
52.1500,54.0
52.1700,67.0
52.1900,64.0
52.2100,61.0
52.2300,55.0
52.2500,41.0
52.2700,44.0
52.2900,52.0
52.3100,70.0
52.3300,55.0
52.3500,62.0
52.3700,51.0
52.3900,63.0
52.4100,57.0
52.4300,58.0
52.4500,63.0
52.4700,64.0
52.4900,59.0
52.5100,61.0
52.5300,52.0
52.5500,67.0
52.5700,73.0
52.5900,65.0
52.6100,72.0
52.6300,68.0
52.6500,70.0
52.6700,82.0
52.6900,77.0
52.7100,81.0
52.7300,71.0
52.7500,76.0
52.7700,85.0
52.7900,77.0
52.8100,59.0
52.8300,68.0
52.8500,67.0
52.8700,72.0
52.8900,62.0
52.9100,52.0
52.9300,63.0
52.9500,66.0
52.9700,35.0
52.9900,68.0
53.0100,68.0
53.0300,47.0
53.0500,62.0
53.0700,58.0
53.0900,52.0
53.1100,49.0
53.1300,57.0
53.1500,74.0
53.1700,55.0
53.1900,51.0
53.2100,71.0
53.2300,64.0
53.2500,52.0
53.2700,73.0
53.2900,51.0
53.3100,55.0
53.3300,65.0
53.3500,53.0
53.3700,51.0
53.3900,58.0
53.4100,49.0
53.4300,58.0
53.4500,53.0
53.4700,60.0
53.4900,63.0
53.5100,48.0
53.5300,55.0
53.5500,58.0
53.5700,61.0
53.5900,65.0
53.6100,64.0
53.6300,55.0
53.6500,73.0
53.6700,68.0
53.6900,68.0
53.7100,49.0
53.7300,67.0
53.7500,67.0
53.7700,51.0
53.7900,52.0
53.8100,74.0
53.8300,66.0
53.8500,68.0
53.8700,57.0
53.8900,72.0
53.9100,56.0
53.9300,69.0
53.9500,59.0
53.9700,61.0
53.9900,50.0
54.0100,54.0
54.0300,66.0
54.0500,57.0
54.0700,65.0
54.0900,61.0
54.1100,66.0
54.1300,71.0
54.1500,56.0
54.1700,59.0
54.1900,62.0
54.2100,50.0
54.2300,45.0
54.2500,62.0
54.2700,58.0
54.2900,55.0
54.3100,51.0
54.3300,56.0
54.3500,51.0
54.3700,62.0
54.3900,57.0
54.4100,68.0
54.4300,75.0
54.4500,64.0
54.4700,56.0
54.4900,55.0
54.5100,51.0
54.5300,53.0
54.5500,66.0
54.5700,61.0
54.5900,61.0
54.6100,54.0
54.6300,44.0
54.6500,70.0
54.6700,47.0
54.6900,62.0
54.7100,58.0
54.7300,76.0
54.7500,50.0
54.7700,66.0
54.7900,59.0
54.8100,56.0
54.8300,53.0
54.8500,68.0
54.8700,60.0
54.8900,55.0
54.9100,71.0
54.9300,67.0
54.9500,38.0
54.9700,55.0
54.9900,54.0
55.0100,56.0
55.0300,62.0
55.0500,53.0
55.0700,54.0
55.0900,68.0
55.1100,64.0
55.1300,52.0
55.1500,74.0
55.1700,70.0
55.1900,44.0
55.2100,53.0
55.2300,61.0
55.2500,53.0
55.2700,73.0
55.2900,59.0
55.3100,51.0
55.3300,54.0
55.3500,53.0
55.3700,53.0
55.3900,63.0
55.4100,54.0
55.4300,63.0
55.4500,70.0
55.4700,48.0
55.4900,57.0
55.5100,48.0
55.5300,58.0
55.5500,69.0
55.5700,56.0
55.5900,45.0
55.6100,68.0
55.6300,73.0
55.6500,57.0
55.6700,60.0
55.6900,57.0
55.7100,50.0
55.7300,58.0
55.7500,55.0
55.7700,67.0
55.7900,64.0
55.8100,64.0
55.8300,57.0
55.8500,57.0
55.8700,55.0
55.8900,59.0
55.9100,50.0
55.9300,58.0
55.9500,57.0
55.9700,64.0
55.9900,60.0
56.0100,53.0
56.0300,62.0
56.0500,58.0
56.0700,73.0
56.0900,73.0
56.1100,61.0
56.1300,41.0
56.1500,74.0
56.1700,63.0
56.1900,62.0
56.2100,66.0
56.2300,51.0
56.2500,73.0
56.2700,47.0
56.2900,61.0
56.3100,49.0
56.3300,55.0
56.3500,57.0
56.3700,60.0
56.3900,69.0
56.4100,64.0
56.4300,60.0
56.4500,70.0
56.4700,58.0
56.4900,58.0
56.5100,78.0
56.5300,68.0
56.5500,65.0
56.5700,84.0
56.5900,80.0
56.6100,79.0
56.6300,80.0
56.6500,69.0
56.6700,104.0
56.6900,91.0
56.7100,80.0
56.7300,88.0
56.7500,69.0
56.7700,97.0
56.7900,92.0
56.8100,86.0
56.8300,87.0
56.8500,72.0
56.8700,107.0
56.8900,95.0
56.9100,73.0
56.9300,89.0
56.9500,91.0
56.9700,89.0
56.9900,75.0
57.0100,83.0
57.0300,90.0
57.0500,91.0
57.0700,88.0
57.0900,94.0
57.1100,85.0
57.1300,98.0
57.1500,82.0
57.1700,100.0
57.1900,83.0
57.2100,100.0
57.2300,85.0
57.2500,79.0
57.2700,87.0
57.2900,79.0
57.3100,77.0
57.3300,88.0
57.3500,94.0
57.3700,99.0
57.3900,80.0
57.4100,73.0
57.4300,84.0
57.4500,97.0
57.4700,81.0
57.4900,96.0
57.5100,91.0
57.5300,79.0
57.5500,82.0
57.5700,100.0
57.5900,81.0
57.6100,89.0
57.6300,99.0
57.6500,88.0
57.6700,99.0
57.6900,81.0
57.7100,77.0
57.7300,98.0
57.7500,99.0
57.7700,89.0
57.7900,74.0
57.8100,87.0
57.8300,80.0
57.8500,95.0
57.8700,102.0
57.8900,102.0
57.9100,118.0
57.9300,89.0
57.9500,105.0
57.9700,101.0
57.9900,88.0
58.0100,116.0
58.0300,129.0
58.0500,93.0
58.0700,123.0
58.0900,125.0
58.1100,112.0
58.1300,109.0
58.1500,136.0
58.1700,118.0
58.1900,155.0
58.2100,119.0
58.2300,144.0
58.2500,122.0
58.2700,146.0
58.2900,161.0
58.3100,197.0
58.3300,193.0
58.3500,221.0
58.3700,202.0
58.3900,219.0
58.4100,307.0
58.4300,324.0
58.4500,330.0
58.4700,399.0
58.4900,421.0
58.5100,496.0
58.5300,546.0
58.5500,661.0
58.5700,800.0
58.5900,908.0
58.6100,1074.0
58.6300,1398.0
58.6500,1846.0
58.6700,2357.0
58.6900,3057.0
58.7100,3855.0
58.7300,4789.0
58.7500,5689.0
58.7700,6409.0
58.7900,6669.0
58.8100,6318.0
58.8300,5739.0
58.8500,5052.0
58.8700,4603.0
58.8900,4287.0
58.9100,4220.0
58.9300,4026.0
58.9500,3840.0
58.9700,3281.0
58.9900,2729.0
59.0100,2229.0
59.0300,1752.0
59.0500,1403.0
59.0700,1050.0
59.0900,854.0
59.1100,655.0
59.1300,516.0
59.1500,431.0
59.1700,358.0
59.1900,289.0
59.2100,282.0
59.2300,250.0
59.2500,255.0
59.2700,193.0
59.2900,181.0
59.3100,201.0
59.3300,174.0
59.3500,144.0
59.3700,138.0
59.3900,136.0
59.4100,152.0
59.4300,120.0
59.4500,125.0
59.4700,124.0
59.4900,111.0
59.5100,129.0
59.5300,109.0
59.5500,99.0
59.5700,117.0
59.5900,107.0
59.6100,117.0
59.6300,97.0
59.6500,96.0
59.6700,126.0
59.6900,110.0
59.7100,96.0
59.7300,98.0
59.7500,90.0
59.7700,88.0
59.7900,97.0
59.8100,103.0
59.8300,109.0
59.8500,90.0
59.8700,83.0
59.8900,86.0
59.9100,81.0
59.9300,85.0
59.9500,94.0
59.9700,84.0
59.9900,84.0
60.0100,102.0
60.0300,79.0
60.0500,78.0
60.0700,79.0
60.0900,87.0
60.1100,85.0
60.1300,77.0
60.1500,69.0
60.1700,77.0
60.1900,75.0
60.2100,102.0
60.2300,72.0
60.2500,74.0
60.2700,95.0
60.2900,87.0
60.3100,86.0
60.3300,68.0
60.3500,87.0
60.3700,86.0
60.3900,85.0
60.4100,88.0
60.4300,85.0
60.4500,74.0
60.4700,77.0
60.4900,66.0
60.5100,81.0
60.5300,76.0
60.5500,78.0
60.5700,66.0
60.5900,87.0
60.6100,68.0
60.6300,92.0
60.6500,82.0
60.6700,80.0
60.6900,67.0
60.7100,79.0
60.7300,80.0
60.7500,89.0
60.7700,69.0
60.7900,72.0
60.8100,78.0
60.8300,64.0
60.8500,82.0
60.8700,76.0
60.8900,83.0
60.9100,78.0
60.9300,96.0
60.9500,87.0
60.9700,69.0
60.9900,79.0
61.0100,73.0
61.0300,75.0
61.0500,74.0
61.0700,76.0
61.0900,92.0
61.1100,58.0
61.1300,73.0
61.1500,74.0
61.1700,78.0
61.1900,64.0
61.2100,84.0
61.2300,80.0
61.2500,69.0
61.2700,71.0
61.2900,82.0
61.3100,66.0
61.3300,73.0
61.3500,83.0
61.3700,78.0
61.3900,65.0
61.4100,65.0
61.4300,86.0
61.4500,63.0
61.4700,90.0
61.4900,79.0
61.5100,88.0
61.5300,56.0
61.5500,69.0
61.5700,89.0
61.5900,91.0
61.6100,64.0
61.6300,67.0
61.6500,61.0
61.6700,62.0
61.6900,87.0
61.7100,80.0
61.7300,78.0
61.7500,66.0
61.7700,51.0
61.7900,73.0
61.8100,71.0
61.8300,88.0
61.8500,70.0
61.8700,64.0
61.8900,70.0
61.9100,67.0
61.9300,86.0
61.9500,68.0
61.9700,78.0
61.9900,68.0
62.0100,66.0
62.0300,65.0
62.0500,78.0
62.0700,60.0
62.0900,65.0
62.1100,73.0
62.1300,71.0
62.1500,77.0
62.1700,64.0
62.1900,77.0
62.2100,66.0
62.2300,67.0
62.2500,75.0
62.2700,77.0
62.2900,60.0
62.3100,75.0
62.3300,51.0
62.3500,66.0
62.3700,75.0
62.3900,71.0
62.4100,73.0
62.4300,65.0
62.4500,78.0
62.4700,50.0
62.4900,63.0
62.5100,71.0
62.5300,76.0
62.5500,38.0
62.5700,67.0
62.5900,82.0
62.6100,57.0
62.6300,69.0
62.6500,68.0
62.6700,58.0
62.6900,69.0
62.7100,63.0
62.7300,58.0
62.7500,64.0
62.7700,70.0
62.7900,68.0
62.8100,57.0
62.8300,83.0
62.8500,76.0
62.8700,58.0
62.8900,63.0
62.9100,73.0
62.9300,74.0
62.9500,71.0
62.9700,69.0
62.9900,70.0
63.0100,68.0
63.0300,67.0
63.0500,76.0
63.0700,57.0
63.0900,61.0
63.1100,70.0
63.1300,63.0
63.1500,70.0
63.1700,71.0
63.1900,83.0
63.2100,62.0
63.2300,76.0
63.2500,60.0
63.2700,79.0
63.2900,55.0
63.3100,46.0
63.3300,71.0
63.3500,65.0
63.3700,63.0
63.3900,77.0
63.4100,68.0
63.4300,60.0
63.4500,65.0
63.4700,76.0
63.4900,64.0
63.5100,67.0
63.5300,62.0
63.5500,79.0
63.5700,72.0
63.5900,60.0
63.6100,63.0
63.6300,62.0
63.6500,77.0
63.6700,74.0
63.6900,48.0
63.7100,55.0
63.7300,64.0
63.7500,60.0
63.7700,75.0
63.7900,71.0
63.8100,78.0
63.8300,67.0
63.8500,67.0
63.8700,69.0
63.8900,58.0
63.9100,76.0
63.9300,70.0
63.9500,72.0
63.9700,69.0
63.9900,70.0
64.0100,73.0
64.0300,76.0
64.0500,80.0
64.0700,64.0
64.0900,62.0
64.1100,70.0
64.1300,74.0
64.1500,64.0
64.1700,65.0
64.1900,64.0
64.2100,67.0
64.2300,77.0
64.2500,79.0
64.2700,82.0
64.2900,81.0
64.3100,64.0
64.3300,62.0
64.3500,68.0
64.3700,76.0
64.3900,63.0
64.4100,76.0
64.4300,79.0
64.4500,62.0
64.4700,56.0
64.4900,65.0
64.5100,56.0
64.5300,70.0
64.5500,55.0
64.5700,57.0
64.5900,70.0
64.6100,66.0
64.6300,64.0
64.6500,68.0
64.6700,57.0
64.6900,57.0
64.7100,68.0
64.7300,58.0
64.7500,79.0
64.7700,62.0
64.7900,77.0
64.8100,51.0
64.8300,65.0
64.8500,72.0
64.8700,66.0
64.8900,60.0
64.9100,76.0
64.9300,69.0
64.9500,66.0
64.9700,68.0
64.9900,69.0
65.0100,75.0
65.0300,57.0
65.0500,58.0
65.0700,52.0
65.0900,67.0
65.1100,61.0
65.1300,67.0
65.1500,59.0
65.1700,66.0
65.1900,68.0
65.2100,39.0
65.2300,62.0
65.2500,56.0
65.2700,67.0
65.2900,77.0
65.3100,56.0
65.3300,65.0
65.3500,65.0
65.3700,50.0
65.3900,59.0
65.4100,69.0
65.4300,49.0
65.4500,61.0
65.4700,77.0
65.4900,72.0
65.5100,66.0
65.5300,71.0
65.5500,48.0
65.5700,63.0
65.5900,64.0
65.6100,54.0
65.6300,54.0
65.6500,66.0
65.6700,66.0
65.6900,59.0
65.7100,76.0
65.7300,62.0
65.7500,77.0
65.7700,63.0
65.7900,73.0
65.8100,76.0
65.8300,77.0
65.8500,56.0
65.8700,73.0
65.8900,54.0
65.9100,56.0
65.9300,84.0
65.9500,59.0
65.9700,74.0
65.9900,57.0
66.0100,62.0
66.0300,51.0
66.0500,71.0
66.0700,68.0
66.0900,56.0
66.1100,67.0
66.1300,52.0
66.1500,54.0
66.1700,63.0
66.1900,56.0
66.2100,65.0
66.2300,56.0
66.2500,63.0
66.2700,62.0
66.2900,74.0
66.3100,55.0
66.3300,70.0
66.3500,59.0
66.3700,48.0
66.3900,67.0
66.4100,80.0
66.4300,64.0
66.4500,77.0
66.4700,69.0
66.4900,63.0
66.5100,68.0
66.5300,65.0
66.5500,62.0
66.5700,70.0
66.5900,53.0
66.6100,55.0
66.6300,58.0
66.6500,66.0
66.6700,64.0
66.6900,58.0
66.7100,62.0
66.7300,64.0
66.7500,65.0
66.7700,62.0
66.7900,58.0
66.8100,63.0
66.8300,65.0
66.8500,51.0
66.8700,64.0
66.8900,55.0
66.9100,56.0
66.9300,55.0
66.9500,66.0
66.9700,54.0
66.9900,73.0
67.0100,76.0
67.0300,56.0
67.0500,60.0
67.0700,62.0
67.0900,76.0
67.1100,63.0
67.1300,66.0
67.1500,57.0
67.1700,67.0
67.1900,61.0
67.2100,63.0
67.2300,62.0
67.2500,68.0
67.2700,72.0
67.2900,76.0
67.3100,48.0
67.3300,66.0
67.3500,62.0
67.3700,65.0
67.3900,53.0
67.4100,66.0
67.4300,59.0
67.4500,64.0
67.4700,62.0
67.4900,65.0
67.5100,60.0
67.5300,58.0
67.5500,69.0
67.5700,64.0
67.5900,64.0
67.6100,71.0
67.6300,48.0
67.6500,68.0
67.6700,51.0
67.6900,57.0
67.7100,58.0
67.7300,74.0
67.7500,66.0
67.7700,50.0
67.7900,56.0
67.8100,66.0
67.8300,57.0
67.8500,65.0
67.8700,59.0
67.8900,71.0
67.9100,50.0
67.9300,50.0
67.9500,60.0
67.9700,60.0
67.9900,58.0
68.0100,41.0
68.0300,59.0
68.0500,69.0
68.0700,66.0
68.0900,60.0
68.1100,62.0
68.1300,60.0
68.1500,81.0
68.1700,67.0
68.1900,68.0
68.2100,60.0
68.2300,68.0
68.2500,60.0
68.2700,75.0
68.2900,63.0
68.3100,56.0
68.3300,51.0
68.3500,50.0
68.3700,58.0
68.3900,60.0
68.4100,52.0
68.4300,69.0
68.4500,55.0
68.4700,52.0
68.4900,57.0
68.5100,64.0
68.5300,66.0
68.5500,69.0
68.5700,45.0
68.5900,48.0
68.6100,69.0
68.6300,63.0
68.6500,61.0
68.6700,54.0
68.6900,56.0
68.7100,70.0
68.7300,54.0
68.7500,47.0
68.7700,65.0
68.7900,66.0
68.8100,58.0
68.8300,55.0
68.8500,70.0
68.8700,66.0
68.8900,56.0
68.9100,48.0
68.9300,64.0
68.9500,70.0
68.9700,54.0
68.9900,46.0
69.0100,67.0
69.0300,72.0
69.0500,59.0
69.0700,59.0
69.0900,83.0
69.1100,57.0
69.1300,57.0
69.1500,55.0
69.1700,46.0
69.1900,69.0
69.2100,57.0
69.2300,69.0
69.2500,58.0
69.2700,53.0
69.2900,66.0
69.3100,50.0
69.3300,68.0
69.3500,54.0
69.3700,58.0
69.3900,56.0
69.4100,60.0
69.4300,59.0
69.4500,64.0
69.4700,67.0
69.4900,60.0
69.5100,54.0
69.5300,61.0
69.5500,68.0
69.5700,45.0
69.5900,52.0
69.6100,65.0
69.6300,57.0
69.6500,56.0
69.6700,67.0
69.6900,48.0
69.7100,72.0
69.7300,50.0
69.7500,70.0
69.7700,63.0
69.7900,57.0
69.8100,51.0
69.8300,60.0
69.8500,64.0
69.8700,65.0
69.8900,70.0
69.9100,46.0
69.9300,53.0
69.9500,75.0
69.9700,57.0
69.9900,55.0
70.0100,61.0
70.0300,77.0
70.0500,41.0
70.0700,54.0
70.0900,65.0
70.1100,62.0
70.1300,63.0
70.1500,53.0
70.1700,58.0
70.1900,58.0
70.2100,87.0
70.2300,77.0
70.2500,62.0
70.2700,63.0
70.2900,63.0
70.3100,58.0
70.3300,53.0
70.3500,61.0
70.3700,56.0
70.3900,64.0
70.4100,61.0
70.4300,65.0
70.4500,58.0
70.4700,47.0
70.4900,68.0
70.5100,35.0
70.5300,59.0
70.5500,58.0
70.5700,63.0
70.5900,46.0
70.6100,58.0
70.6300,46.0
70.6500,52.0
70.6700,48.0
70.6900,71.0
70.7100,64.0
70.7300,69.0
70.7500,67.0
70.7700,59.0
70.7900,66.0
70.8100,54.0
70.8300,78.0
70.8500,57.0
70.8700,54.0
70.8900,59.0
70.9100,62.0
70.9300,58.0
70.9500,63.0
70.9700,65.0
70.9900,65.0
71.0100,72.0
71.0300,58.0
71.0500,69.0
71.0700,60.0
71.0900,69.0
71.1100,62.0
71.1300,77.0
71.1500,77.0
71.1700,73.0
71.1900,62.0
71.2100,54.0
71.2300,64.0
71.2500,70.0
71.2700,60.0
71.2900,70.0
71.3100,64.0
71.3300,71.0
71.3500,56.0
71.3700,68.0
71.3900,68.0
71.4100,84.0
71.4300,78.0
71.4500,76.0
71.4700,69.0
71.4900,67.0
71.5100,73.0
71.5300,66.0
71.5500,55.0
71.5700,67.0
71.5900,83.0
71.6100,74.0
71.6300,70.0
71.6500,80.0
71.6700,77.0
71.6900,70.0
71.7100,66.0
71.7300,64.0
71.7500,52.0
71.7700,60.0
71.7900,68.0
71.8100,71.0
71.8300,73.0
71.8500,65.0
71.8700,76.0
71.8900,69.0
71.9100,57.0
71.9300,75.0
71.9500,73.0
71.9700,64.0
71.9900,61.0
72.0100,76.0
72.0300,57.0
72.0500,60.0
72.0700,67.0
72.0900,72.0
72.1100,64.0
72.1300,61.0
72.1500,74.0
72.1700,62.0
72.1900,68.0
72.2100,69.0
72.2300,74.0
72.2500,68.0
72.2700,61.0
72.2900,54.0
72.3100,66.0
72.3300,67.0
72.3500,71.0
72.3700,73.0
72.3900,78.0
72.4100,85.0
72.4300,71.0
72.4500,73.0
72.4700,85.0
72.4900,65.0
72.5100,81.0
72.5300,71.0
72.5500,65.0
72.5700,68.0
72.5900,55.0
72.6100,78.0
72.6300,66.0
72.6500,69.0
72.6700,77.0
72.6900,76.0
72.7100,58.0
72.7300,69.0
72.7500,77.0
72.7700,81.0
72.7900,85.0
72.8100,63.0
72.8300,85.0
72.8500,67.0
72.8700,82.0
72.8900,71.0
72.9100,77.0
72.9300,81.0
72.9500,88.0
72.9700,99.0
72.9900,87.0
73.0100,79.0
73.0300,91.0
73.0500,72.0
73.0700,84.0
73.0900,70.0
73.1100,74.0
73.1300,91.0
73.1500,99.0
73.1700,93.0
73.1900,96.0
73.2100,109.0
73.2300,112.0
73.2500,112.0
73.2700,116.0
73.2900,109.0
73.3100,119.0
73.3300,150.0
73.3500,155.0
73.3700,166.0
73.3900,191.0
73.4100,176.0
73.4300,199.0
73.4500,190.0
73.4700,221.0
73.4900,263.0
73.5100,306.0
73.5300,300.0
73.5500,398.0
73.5700,373.0
73.5900,495.0
73.6100,567.0
73.6300,635.0
73.6500,798.0
73.6700,867.0
73.6900,1098.0
73.7100,1223.0
73.7300,1571.0
73.7500,1799.0
73.7700,1989.0
73.7900,2186.0
73.8100,2360.0
73.8300,2238.0
73.8500,2201.0
73.8700,2135.0
73.8900,1963.0
73.9100,1764.0
73.9300,1550.0
73.9500,1523.0
73.9700,1392.0
73.9900,1395.0
74.0100,1342.0
74.0300,1313.0
74.0500,1285.0
74.0700,1138.0
74.0900,1027.0
74.1100,835.0
74.1300,640.0
74.1500,577.0
74.1700,454.0
74.1900,367.0
74.2100,285.0
74.2300,258.0
74.2500,227.0
74.2700,223.0
74.2900,177.0
74.3100,182.0
74.3300,153.0
74.3500,138.0
74.3700,127.0
74.3900,127.0
74.4100,134.0
74.4300,115.0
74.4500,117.0
74.4700,102.0
74.4900,108.0
74.5100,99.0
74.5300,84.0
74.5500,87.0
74.5700,92.0
74.5900,103.0
74.6100,78.0
74.6300,75.0
74.6500,75.0
74.6700,92.0
74.6900,88.0
74.7100,80.0
74.7300,72.0
74.7500,70.0
74.7700,62.0
74.7900,64.0
74.8100,76.0
74.8300,90.0
74.8500,69.0
74.8700,82.0
74.8900,74.0
74.9100,71.0
74.9300,73.0
74.9500,89.0
74.9700,75.0
74.9900,82.0
75.0100,76.0
75.0300,58.0
75.0500,73.0
75.0700,73.0
75.0900,76.0
75.1100,72.0
75.1300,54.0
75.1500,76.0
75.1700,69.0
75.1900,70.0
75.2100,65.0
75.2300,74.0
75.2500,90.0
75.2700,69.0
75.2900,77.0
75.3100,77.0
75.3300,61.0
75.3500,74.0
75.3700,56.0
75.3900,76.0
75.4100,54.0
75.4300,68.0
75.4500,72.0
75.4700,55.0
75.4900,62.0
75.5100,49.0
75.5300,51.0
75.5500,63.0
75.5700,63.0
75.5900,57.0
75.6100,64.0
75.6300,52.0
75.6500,61.0
75.6700,63.0
75.6900,71.0
75.7100,66.0
75.7300,57.0
75.7500,68.0
75.7700,65.0
75.7900,56.0
75.8100,68.0
75.8300,74.0
75.8500,70.0
75.8700,57.0
75.8900,63.0
75.9100,55.0
75.9300,51.0
75.9500,56.0
75.9700,64.0
75.9900,69.0
76.0100,59.0
76.0300,73.0
76.0500,58.0
76.0700,65.0
76.0900,63.0
76.1100,63.0
76.1300,66.0
76.1500,61.0
76.1700,60.0
76.1900,57.0
76.2100,63.0
76.2300,61.0
76.2500,59.0
76.2700,59.0
76.2900,65.0
76.3100,66.0
76.3300,63.0
76.3500,69.0
76.3700,63.0
76.3900,72.0
76.4100,58.0
76.4300,51.0
76.4500,61.0
76.4700,65.0
76.4900,68.0
76.5100,48.0
76.5300,57.0
76.5500,65.0
76.5700,66.0
76.5900,52.0
76.6100,64.0
76.6300,53.0
76.6500,82.0
76.6700,59.0
76.6900,60.0
76.7100,52.0
76.7300,51.0
76.7500,56.0
76.7700,55.0
76.7900,62.0
76.8100,48.0
76.8300,55.0
76.8500,58.0
76.8700,59.0
76.8900,46.0
76.9100,72.0
76.9300,78.0
76.9500,59.0
76.9700,60.0
76.9900,62.0
77.0100,53.0
77.0300,72.0
77.0500,57.0
77.0700,69.0
77.0900,66.0
77.1100,59.0
77.1300,52.0
77.1500,78.0
77.1700,62.0
77.1900,50.0
77.2100,44.0
77.2300,60.0
77.2500,59.0
77.2700,56.0
77.2900,66.0
77.3100,73.0
77.3300,55.0
77.3500,59.0
77.3700,59.0
77.3900,69.0
77.4100,64.0
77.4300,57.0
77.4500,57.0
77.4700,55.0
77.4900,49.0
77.5100,79.0
77.5300,60.0
77.5500,58.0
77.5700,51.0
77.5900,66.0
77.6100,61.0
77.6300,68.0
77.6500,71.0
77.6700,53.0
77.6900,67.0
77.7100,45.0
77.7300,44.0
77.7500,50.0
77.7700,50.0
77.7900,55.0
77.8100,56.0
77.8300,61.0
77.8500,57.0
77.8700,55.0
77.8900,55.0
77.9100,72.0
77.9300,58.0
77.9500,66.0
77.9700,64.0
77.9900,60.0
78.0100,55.0
78.0300,51.0
78.0500,66.0
78.0700,60.0
78.0900,57.0
78.1100,58.0
78.1300,46.0
78.1500,44.0
78.1700,60.0
78.1900,68.0
78.2100,46.0
78.2300,60.0
78.2500,56.0
78.2700,55.0
78.2900,57.0
78.3100,51.0
78.3300,64.0
78.3500,58.0
78.3700,56.0
78.3900,54.0
78.4100,60.0
78.4300,51.0
78.4500,65.0
78.4700,63.0
78.4900,64.0
78.5100,66.0
78.5300,65.0
78.5500,53.0
78.5700,53.0
78.5900,36.0
78.6100,52.0
78.6300,55.0
78.6500,50.0
78.6700,49.0
78.6900,51.0
78.7100,57.0
78.7300,46.0
78.7500,73.0
78.7700,60.0
78.7900,73.0
78.8100,58.0
78.8300,56.0
78.8500,70.0
78.8700,48.0
78.8900,64.0
78.9100,61.0
78.9300,47.0
78.9500,69.0
78.9700,54.0
78.9900,56.0
79.0100,52.0
79.0300,65.0
79.0500,68.0
79.0700,66.0
79.0900,57.0
79.1100,73.0
79.1300,67.0
79.1500,67.0
79.1700,67.0
79.1900,56.0
79.2100,71.0
79.2300,41.0
79.2500,62.0
79.2700,51.0
79.2900,52.0
79.3100,54.0
79.3300,53.0
79.3500,63.0
79.3700,62.0
79.3900,58.0
79.4100,65.0
79.4300,71.0
79.4500,65.0
79.4700,52.0
79.4900,56.0
79.5100,70.0
79.5300,47.0
79.5500,54.0
79.5700,62.0
79.5900,57.0
79.6100,59.0
79.6300,60.0
79.6500,51.0
79.6700,65.0
79.6900,69.0
79.7100,72.0
79.7300,50.0
79.7500,61.0
79.7700,64.0
79.7900,56.0
79.8100,56.0
79.8300,63.0
79.8500,57.0
79.8700,55.0
79.8900,58.0
79.9100,67.0
79.9300,39.0
79.9500,67.0
79.9700,56.0
79.9900,57.0
80.0100,63.0
80.0300,54.0
80.0500,66.0
80.0700,60.0
80.0900,48.0
80.1100,36.0
80.1300,68.0
80.1500,60.0
80.1700,62.0
80.1900,55.0
80.2100,59.0
80.2300,58.0
80.2500,71.0
80.2700,69.0
80.2900,62.0
80.3100,50.0
80.3300,62.0
80.3500,43.0
80.3700,58.0
80.3900,54.0
80.4100,56.0
80.4300,53.0
80.4500,58.0
80.4700,57.0
80.4900,57.0
80.5100,56.0
80.5300,53.0
80.5500,57.0
80.5700,63.0
80.5900,58.0
80.6100,60.0
80.6300,76.0
80.6500,61.0
80.6700,58.0
80.6900,49.0
80.7100,73.0
80.7300,66.0
80.7500,60.0
80.7700,51.0
80.7900,57.0
80.8100,46.0
80.8300,65.0
80.8500,64.0
80.8700,58.0
80.8900,67.0
80.9100,62.0
80.9300,56.0
80.9500,64.0
80.9700,62.0
80.9900,65.0
81.0100,66.0
81.0300,59.0
81.0500,62.0
81.0700,52.0
81.0900,63.0
81.1100,71.0
81.1300,54.0
81.1500,61.0
81.1700,52.0
81.1900,48.0
81.2100,59.0
81.2300,64.0
81.2500,45.0
81.2700,57.0
81.2900,61.0
81.3100,59.0
81.3300,68.0
81.3500,63.0
81.3700,63.0
81.3900,58.0
81.4100,60.0
81.4300,55.0
81.4500,60.0
81.4700,69.0
81.4900,55.0
81.5100,61.0
81.5300,59.0
81.5500,50.0
81.5700,61.0
81.5900,53.0
81.6100,63.0
81.6300,48.0
81.6500,64.0
81.6700,44.0
81.6900,65.0
81.7100,74.0
81.7300,59.0
81.7500,61.0
81.7700,61.0
81.7900,60.0
81.8100,60.0
81.8300,57.0
81.8500,53.0
81.8700,53.0
81.8900,51.0
81.9100,61.0
81.9300,63.0
81.9500,51.0
81.9700,56.0
81.9900,57.0
82.0100,57.0
82.0300,55.0
82.0500,51.0
82.0700,58.0
82.0900,49.0
82.1100,75.0
82.1300,63.0
82.1500,59.0
82.1700,50.0
82.1900,52.0
82.2100,60.0
82.2300,47.0
82.2500,62.0
82.2700,62.0
82.2900,53.0
82.3100,57.0
82.3300,61.0
82.3500,57.0
82.3700,58.0
82.3900,60.0
82.4100,49.0
82.4300,76.0
82.4500,68.0
82.4700,57.0
82.4900,67.0
82.5100,49.0
82.5300,52.0
82.5500,58.0
82.5700,49.0
82.5900,54.0
82.6100,45.0
82.6300,62.0
82.6500,54.0
82.6700,58.0
82.6900,69.0
82.7100,80.0
82.7300,58.0
82.7500,49.0
82.7700,59.0
82.7900,47.0
82.8100,46.0
82.8300,49.0
82.8500,41.0
82.8700,43.0
82.8900,52.0
82.9100,63.0
82.9300,65.0
82.9500,55.0
82.9700,54.0
82.9900,53.0
83.0100,51.0
83.0300,55.0
83.0500,52.0
83.0700,53.0
83.0900,54.0
83.1100,63.0
83.1300,52.0
83.1500,54.0
83.1700,56.0
83.1900,62.0
83.2100,51.0
83.2300,54.0
83.2500,60.0
83.2700,62.0
83.2900,54.0
83.3100,58.0
83.3300,64.0
83.3500,51.0
83.3700,59.0
83.3900,63.0
83.4100,60.0
83.4300,62.0
83.4500,52.0
83.4700,59.0
83.4900,63.0
83.5100,46.0
83.5300,59.0
83.5500,68.0
83.5700,65.0
83.5900,59.0
83.6100,55.0
83.6300,55.0
83.6500,65.0
83.6700,56.0
83.6900,58.0
83.7100,45.0
83.7300,56.0
83.7500,61.0
83.7700,62.0
83.7900,44.0
83.8100,70.0
83.8300,69.0
83.8500,66.0
83.8700,53.0
83.8900,57.0
83.9100,51.0
83.9300,62.0
83.9500,57.0
83.9700,55.0
83.9900,50.0
84.0100,54.0
84.0300,50.0
84.0500,56.0
84.0700,58.0
84.0900,51.0
84.1100,58.0
84.1300,51.0
84.1500,49.0
84.1700,71.0
84.1900,51.0
84.2100,62.0
84.2300,46.0
84.2500,54.0
84.2700,55.0
84.2900,48.0
84.3100,54.0
84.3300,64.0
84.3500,50.0
84.3700,50.0
84.3900,53.0
84.4100,51.0
84.4300,53.0
84.4500,62.0
84.4700,56.0
84.4900,52.0
84.5100,56.0
84.5300,64.0
84.5500,53.0
84.5700,55.0
84.5900,52.0
84.6100,52.0
84.6300,48.0
84.6500,53.0
84.6700,55.0
84.6900,62.0
84.7100,51.0
84.7300,54.0
84.7500,56.0
84.7700,58.0
84.7900,53.0
84.8100,62.0
84.8300,49.0
84.8500,49.0
84.8700,63.0
84.8900,51.0
84.9100,69.0
84.9300,52.0
84.9500,41.0
84.9700,59.0
84.9900,60.0
85.0100,61.0
85.0300,55.0
85.0500,59.0
85.0700,63.0
85.0900,44.0
85.1100,63.0
85.1300,72.0
85.1500,58.0
85.1700,48.0
85.1900,60.0
85.2100,62.0
85.2300,64.0
85.2500,50.0
85.2700,58.0
85.2900,63.0
85.3100,57.0
85.3300,50.0
85.3500,54.0
85.3700,62.0
85.3900,57.0
85.4100,63.0
85.4300,54.0
85.4500,57.0
85.4700,54.0
85.4900,55.0
85.5100,51.0
85.5300,71.0
85.5500,54.0
85.5700,51.0
85.5900,54.0
85.6100,49.0
85.6300,51.0
85.6500,60.0
85.6700,46.0
85.6900,45.0
85.7100,47.0
85.7300,50.0
85.7500,55.0
85.7700,44.0
85.7900,50.0
85.8100,53.0
85.8300,54.0
85.8500,50.0
85.8700,58.0
85.8900,43.0
85.9100,53.0
85.9300,73.0
85.9500,54.0
85.9700,48.0
85.9900,51.0
86.0100,51.0
86.0300,60.0
86.0500,52.0
86.0700,53.0
86.0900,70.0
86.1100,63.0
86.1300,49.0
86.1500,45.0
86.1700,53.0
86.1900,60.0
86.2100,54.0
86.2300,53.0
86.2500,64.0
86.2700,67.0
86.2900,47.0
86.3100,64.0
86.3300,60.0
86.3500,70.0
86.3700,53.0
86.3900,50.0
86.4100,60.0
86.4300,62.0
86.4500,56.0
86.4700,55.0
86.4900,54.0
86.5100,50.0
86.5300,56.0
86.5500,57.0
86.5700,57.0
86.5900,56.0
86.6100,49.0
86.6300,72.0
86.6500,49.0
86.6700,57.0
86.6900,70.0
86.7100,52.0
86.7300,54.0
86.7500,61.0
86.7700,47.0
86.7900,50.0
86.8100,45.0
86.8300,51.0
86.8500,42.0
86.8700,59.0
86.8900,52.0
86.9100,42.0
86.9300,59.0
86.9500,62.0
86.9700,56.0
86.9900,65.0
87.0100,56.0
87.0300,64.0
87.0500,52.0
87.0700,51.0
87.0900,54.0
87.1100,43.0
87.1300,56.0
87.1500,65.0
87.1700,54.0
87.1900,57.0
87.2100,56.0
87.2300,70.0
87.2500,76.0
87.2700,59.0
87.2900,56.0
87.3100,47.0
87.3300,65.0
87.3500,70.0
87.3700,57.0
87.3900,51.0
87.4100,65.0
87.4300,73.0
87.4500,68.0
87.4700,62.0
87.4900,64.0
87.5100,77.0
87.5300,76.0
87.5500,65.0
87.5700,56.0
87.5900,70.0
87.6100,49.0
87.6300,69.0
87.6500,55.0
87.6700,79.0
87.6900,57.0
87.7100,69.0
87.7300,62.0
87.7500,78.0
87.7700,74.0
87.7900,69.0
87.8100,69.0
87.8300,62.0
87.8500,68.0
87.8700,62.0
87.8900,71.0
87.9100,71.0
87.9300,60.0
87.9500,64.0
87.9700,73.0
87.9900,67.0
88.0100,61.0
88.0300,56.0
88.0500,62.0
88.0700,58.0
88.0900,58.0
88.1100,58.0
88.1300,64.0
88.1500,42.0
88.1700,54.0
88.1900,58.0
88.2100,65.0
88.2300,49.0
88.2500,53.0
88.2700,57.0
88.2900,47.0
88.3100,66.0
88.3300,61.0
88.3500,59.0
88.3700,63.0
88.3900,44.0
88.4100,52.0
88.4300,44.0
88.4500,52.0
88.4700,48.0
88.4900,49.0
88.5100,58.0
88.5300,45.0
88.5500,54.0
88.5700,51.0
88.5900,41.0
88.6100,51.0
88.6300,55.0
88.6500,50.0
88.6700,60.0
88.6900,49.0
88.7100,59.0
88.7300,56.0
88.7500,44.0
88.7700,65.0
88.7900,65.0
88.8100,63.0
88.8300,59.0
88.8500,62.0
88.8700,71.0
88.8900,63.0
88.9100,33.0
88.9300,56.0
88.9500,59.0
88.9700,54.0
88.9900,54.0
89.0100,50.0
89.0300,55.0
89.0500,53.0
89.0700,70.0
89.0900,56.0
89.1100,63.0
89.1300,42.0
89.1500,51.0
89.1700,44.0
89.1900,64.0
89.2100,62.0
89.2300,40.0
89.2500,48.0
89.2700,44.0
89.2900,78.0
89.3100,55.0
89.3300,59.0
89.3500,47.0
89.3700,51.0
89.3900,58.0
89.4100,60.0
89.4300,52.0
89.4500,63.0
89.4700,49.0
89.4900,50.0
89.5100,67.0
89.5300,54.0
89.5500,59.0
89.5700,56.0
89.5900,44.0
89.6100,66.0
89.6300,53.0
89.6500,65.0
89.6700,57.0
89.6900,60.0
89.7100,60.0
89.7300,48.0
89.7500,67.0
89.7700,65.0
89.7900,60.0
89.8100,63.0
89.8300,55.0
89.8500,50.0
89.8700,75.0
89.8900,43.0
89.9100,47.0
89.9300,46.0
89.9500,52.0
89.9700,57.0
89.9900,58.0
90.0100,45.0
90.0300,62.0
90.0500,54.0
90.0700,51.0
90.0900,63.0
90.1100,57.0
90.1300,52.0
90.1500,50.0
90.1700,43.0
90.1900,52.0
90.2100,56.0
90.2300,42.0
90.2500,49.0
90.2700,61.0
90.2900,54.0
90.3100,63.0
90.3300,46.0
90.3500,38.0
90.3700,60.0
90.3900,72.0
90.4100,71.0
90.4300,69.0
90.4500,49.0
90.4700,48.0
90.4900,57.0
90.5100,54.0
90.5300,45.0
90.5500,48.0
90.5700,42.0
90.5900,56.0
90.6100,51.0
90.6300,58.0
90.6500,66.0
90.6700,53.0
90.6900,51.0
90.7100,56.0
90.7300,58.0
90.7500,64.0
90.7700,56.0
90.7900,55.0
90.8100,62.0
90.8300,65.0
90.8500,60.0
90.8700,46.0
90.8900,61.0
90.9100,58.0
90.9300,56.0
90.9500,48.0
90.9700,58.0
90.9900,57.0
91.0100,48.0
91.0300,58.0
91.0500,55.0
91.0700,60.0
91.0900,40.0
91.1100,54.0
91.1300,49.0
91.1500,57.0
91.1700,60.0
91.1900,47.0
91.2100,54.0
91.2300,59.0
91.2500,58.0
91.2700,50.0
91.2900,43.0
91.3100,55.0
91.3300,51.0
91.3500,43.0
91.3700,63.0
91.3900,60.0
91.4100,65.0
91.4300,66.0
91.4500,67.0
91.4700,60.0
91.4900,50.0
91.5100,62.0
91.5300,51.0
91.5500,57.0
91.5700,53.0
91.5900,54.0
91.6100,51.0
91.6300,57.0
91.6500,56.0
91.6700,58.0
91.6900,51.0
91.7100,60.0
91.7300,65.0
91.7500,64.0
91.7700,53.0
91.7900,58.0
91.8100,57.0
91.8300,54.0
91.8500,46.0
91.8700,53.0
91.8900,49.0
91.9100,62.0
91.9300,50.0
91.9500,53.0
91.9700,52.0
91.9900,58.0
92.0100,61.0
92.0300,55.0
92.0500,52.0
92.0700,52.0
92.0900,57.0
92.1100,53.0
92.1300,66.0
92.1500,58.0
92.1700,61.0
92.1900,48.0
92.2100,45.0
92.2300,36.0
92.2500,54.0
92.2700,60.0
92.2900,45.0
92.3100,42.0
92.3300,52.0
92.3500,65.0
92.3700,63.0
92.3900,58.0
92.4100,57.0
92.4300,61.0
92.4500,53.0
92.4700,57.0
92.4900,45.0
92.5100,64.0
92.5300,61.0
92.5500,60.0
92.5700,53.0
92.5900,39.0
92.6100,54.0
92.6300,53.0
92.6500,64.0
92.6700,49.0
92.6900,43.0
92.7100,66.0
92.7300,45.0
92.7500,52.0
92.7700,52.0
92.7900,55.0
92.8100,51.0
92.8300,42.0
92.8500,63.0
92.8700,55.0
92.8900,58.0
92.9100,50.0
92.9300,72.0
92.9500,57.0
92.9700,50.0
92.9900,57.0
93.0100,52.0
93.0300,63.0
93.0500,39.0
93.0700,66.0
93.0900,60.0
93.1100,56.0
93.1300,54.0
93.1500,52.0
93.1700,54.0
93.1900,46.0
93.2100,61.0
93.2300,44.0
93.2500,55.0
93.2700,54.0
93.2900,73.0
93.3100,55.0
93.3300,39.0
93.3500,53.0
93.3700,65.0
93.3900,62.0
93.4100,48.0
93.4300,54.0
93.4500,37.0
93.4700,64.0
93.4900,53.0
93.5100,76.0
93.5300,48.0
93.5500,55.0
93.5700,59.0
93.5900,45.0
93.6100,48.0
93.6300,53.0
93.6500,55.0
93.6700,46.0
93.6900,51.0
93.7100,60.0
93.7300,62.0
93.7500,37.0
93.7700,60.0
93.7900,70.0
93.8100,49.0
93.8300,58.0
93.8500,41.0
93.8700,54.0
93.8900,41.0
93.9100,53.0
93.9300,53.0
93.9500,59.0
93.9700,63.0
93.9900,60.0
94.0100,64.0
94.0300,67.0
94.0500,46.0
94.0700,45.0
94.0900,65.0
94.1100,50.0
94.1300,57.0
94.1500,56.0
94.1700,56.0
94.1900,42.0
94.2100,45.0
94.2300,60.0
94.2500,53.0
94.2700,48.0
94.2900,54.0
94.3100,63.0
94.3300,60.0
94.3500,60.0
94.3700,75.0
94.3900,60.0
94.4100,45.0
94.4300,62.0
94.4500,67.0
94.4700,50.0
94.4900,54.0
94.5100,50.0
94.5300,55.0
94.5500,40.0
94.5700,65.0
94.5900,51.0
94.6100,47.0
94.6300,54.0
94.6500,52.0
94.6700,52.0
94.6900,67.0
94.7100,53.0
94.7300,48.0
94.7500,65.0
94.7700,63.0
94.7900,61.0
94.8100,55.0
94.8300,56.0
94.8500,51.0
94.8700,62.0
94.8900,57.0
94.9100,49.0
94.9300,53.0
94.9500,47.0
94.9700,42.0
94.9900,45.0
95.0100,45.0
95.0300,49.0
95.0500,48.0
95.0700,47.0
95.0900,56.0
95.1100,39.0
95.1300,47.0
95.1500,50.0
95.1700,51.0
95.1900,47.0
95.2100,58.0
95.2300,53.0
95.2500,43.0
95.2700,56.0
95.2900,51.0
95.3100,69.0
95.3300,68.0
95.3500,50.0
95.3700,42.0
95.3900,53.0
95.4100,55.0
95.4300,50.0
95.4500,57.0
95.4700,63.0
95.4900,61.0
95.5100,40.0
95.5300,55.0
95.5500,61.0
95.5700,52.0
95.5900,65.0
95.6100,60.0
95.6300,45.0
95.6500,57.0
95.6700,57.0
95.6900,56.0
95.7100,53.0
95.7300,62.0
95.7500,57.0
95.7700,57.0
95.7900,51.0
95.8100,50.0
95.8300,54.0
95.8500,55.0
95.8700,57.0
95.8900,55.0
95.9100,51.0
95.9300,63.0
95.9500,49.0
95.9700,61.0
95.9900,59.0
96.0100,53.0
96.0300,67.0
96.0500,56.0
96.0700,52.0
96.0900,71.0
96.1100,46.0
96.1300,64.0
96.1500,53.0
96.1700,55.0
96.1900,55.0
96.2100,61.0
96.2300,59.0
96.2500,61.0
96.2700,44.0
96.2900,60.0
96.3100,52.0
96.3300,65.0
96.3500,55.0
96.3700,62.0
96.3900,53.0
96.4100,56.0
96.4300,58.0
96.4500,50.0
96.4700,60.0
96.4900,49.0
96.5100,66.0
96.5300,50.0
96.5500,49.0
96.5700,49.0
96.5900,52.0
96.6100,51.0
96.6300,51.0
96.6500,60.0
96.6700,51.0
96.6900,36.0
96.7100,52.0
96.7300,51.0
96.7500,53.0
96.7700,44.0
96.7900,53.0
96.8100,39.0
96.8300,59.0
96.8500,41.0
96.8700,60.0
96.8900,50.0
96.9100,48.0
96.9300,39.0
96.9500,57.0
96.9700,42.0
96.9900,71.0
97.0100,53.0
97.0300,62.0
97.0500,55.0
97.0700,49.0
97.0900,58.0
97.1100,58.0
97.1300,67.0
97.1500,52.0
97.1700,66.0
97.1900,45.0
97.2100,63.0
97.2300,65.0
97.2500,57.0
97.2700,56.0
97.2900,40.0
97.3100,59.0
97.3300,54.0
97.3500,57.0
97.3700,55.0
97.3900,52.0
97.4100,60.0
97.4300,56.0
97.4500,57.0
97.4700,45.0
97.4900,51.0
97.5100,61.0
97.5300,47.0
97.5500,51.0
97.5700,69.0
97.5900,51.0
97.6100,63.0
97.6300,57.0
97.6500,70.0
97.6700,53.0
97.6900,44.0
97.7100,62.0
97.7300,73.0
97.7500,50.0
97.7700,65.0
97.7900,60.0
97.8100,76.0
97.8300,48.0
97.8500,54.0
97.8700,60.0
97.8900,65.0
97.9100,56.0
97.9300,30.0
97.9500,58.0
97.9700,49.0
97.9900,61.0
98.0100,61.0
98.0300,57.0
98.0500,59.0
98.0700,51.0
98.0900,56.0
98.1100,50.0
98.1300,66.0
98.1500,64.0
98.1700,56.0
98.1900,53.0
98.2100,59.0
98.2300,51.0
98.2500,63.0
98.2700,69.0
98.2900,66.0
98.3100,47.0
98.3300,57.0
98.3500,46.0
98.3700,75.0
98.3900,65.0
98.4100,56.0
98.4300,59.0
98.4500,78.0
98.4700,54.0
98.4900,43.0
98.5100,63.0
98.5300,49.0
98.5500,55.0
98.5700,43.0
98.5900,47.0
98.6100,59.0
98.6300,76.0
98.6500,53.0
98.6700,66.0
98.6900,60.0
98.7100,43.0
98.7300,49.0
98.7500,58.0
98.7700,54.0
98.7900,54.0
98.8100,60.0
98.8300,76.0
98.8500,56.0
98.8700,59.0
98.8900,61.0
98.9100,53.0
98.9300,53.0
98.9500,48.0
98.9700,47.0
98.9900,66.0
99.0100,47.0
99.0300,58.0
99.0500,59.0
99.0700,56.0
99.0900,63.0
99.1100,60.0
99.1300,63.0
99.1500,62.0
99.1700,55.0
99.1900,52.0
99.2100,68.0
99.2300,48.0
99.2500,61.0
99.2700,63.0
99.2900,54.0
99.3100,57.0
99.3300,49.0
99.3500,54.0
99.3700,51.0
99.3900,59.0
99.4100,57.0
99.4300,75.0
99.4500,56.0
99.4700,46.0
99.4900,64.0
99.5100,58.0
99.5300,61.0
99.5500,56.0
99.5700,64.0
99.5900,60.0
99.6100,44.0
99.6300,60.0
99.6500,62.0
99.6700,52.0
99.6900,50.0
99.7100,57.0
99.7300,64.0
99.7500,46.0
99.7700,56.0
99.7900,62.0
99.8100,51.0
99.8300,67.0
99.8500,47.0
99.8700,49.0
99.8900,45.0
99.9100,60.0
99.9300,53.0
99.9500,51.0
99.9700,63.0
99.9900,56.0
100.0100,56.0
100.0300,59.0
100.0500,59.0
100.0700,65.0
100.0900,45.0
100.1100,55.0
100.1300,41.0
100.1500,49.0
100.1700,48.0
100.1900,51.0
100.2100,61.0
100.2300,60.0
100.2500,55.0
100.2700,53.0
100.2900,66.0
100.3100,48.0
100.3300,55.0
100.3500,67.0
100.3700,48.0
100.3900,46.0
100.4100,54.0
100.4300,77.0
100.4500,63.0
100.4700,49.0
100.4900,56.0
100.5100,78.0
100.5300,50.0
100.5500,61.0
100.5700,69.0
100.5900,61.0
100.6100,59.0
100.6300,59.0
100.6500,54.0
100.6700,69.0
100.6900,68.0
100.7100,64.0
100.7300,56.0
100.7500,57.0
100.7700,49.0
100.7900,64.0
100.8100,61.0
100.8300,65.0
100.8500,58.0
100.8700,63.0
100.8900,62.0
100.9100,65.0
100.9300,63.0
100.9500,57.0
100.9700,66.0
100.9900,63.0
101.0100,71.0
101.0300,73.0
101.0500,58.0
101.0700,67.0
101.0900,77.0
101.1100,82.0
101.1300,79.0
101.1500,68.0
101.1700,62.0
101.1900,81.0
101.2100,75.0
101.2300,92.0
101.2500,71.0
101.2700,88.0
101.2900,97.0
101.3100,98.0
101.3300,97.0
101.3500,106.0
101.3700,101.0
101.3900,77.0
101.4100,111.0
101.4300,89.0
101.4500,99.0
101.4700,85.0
101.4900,86.0
101.5100,87.0
101.5300,113.0
101.5500,87.0
101.5700,79.0
101.5900,94.0
101.6100,88.0
101.6300,90.0
101.6500,100.0
101.6700,89.0
101.6900,90.0
101.7100,79.0
101.7300,91.0
101.7500,91.0
101.7700,82.0
101.7900,92.0
101.8100,64.0
101.8300,81.0
101.8500,87.0
101.8700,81.0
101.8900,80.0
101.9100,95.0
101.9300,97.0
101.9500,75.0
101.9700,75.0
101.9900,72.0
102.0100,74.0
102.0300,71.0
102.0500,78.0
102.0700,67.0
102.0900,77.0
102.1100,61.0
102.1300,58.0
102.1500,61.0
102.1700,71.0
102.1900,58.0
102.2100,59.0
102.2300,68.0
102.2500,70.0
102.2700,72.0
102.2900,70.0
102.3100,70.0
102.3300,60.0
102.3500,59.0
102.3700,76.0
102.3900,72.0
102.4100,62.0
102.4300,71.0
102.4500,65.0
102.4700,58.0
102.4900,68.0
102.5100,47.0
102.5300,50.0
102.5500,50.0
102.5700,54.0
102.5900,55.0
102.6100,69.0
102.6300,51.0
102.6500,57.0
102.6700,62.0
102.6900,66.0
102.7100,59.0
102.7300,54.0
102.7500,58.0
102.7700,59.0
102.7900,68.0
102.8100,56.0
102.8300,52.0
102.8500,54.0
102.8700,64.0
102.8900,68.0
102.9100,54.0
102.9300,60.0
102.9500,48.0
102.9700,54.0
102.9900,62.0
103.0100,68.0
103.0300,52.0
103.0500,49.0
103.0700,53.0
103.0900,49.0
103.1100,73.0
103.1300,58.0
103.1500,61.0
103.1700,58.0
103.1900,45.0
103.2100,57.0
103.2300,49.0
103.2500,72.0
103.2700,37.0
103.2900,51.0
103.3100,55.0
103.3300,61.0
103.3500,61.0
103.3700,49.0
103.3900,51.0
103.4100,57.0
103.4300,63.0
103.4500,54.0
103.4700,51.0
103.4900,52.0
103.5100,51.0
103.5300,53.0
103.5500,49.0
103.5700,58.0
103.5900,71.0
103.6100,64.0
103.6300,57.0
103.6500,46.0
103.6700,56.0
103.6900,59.0
103.7100,53.0
103.7300,39.0
103.7500,65.0
103.7700,47.0
103.7900,48.0
103.8100,55.0
103.8300,68.0
103.8500,62.0
103.8700,56.0
103.8900,66.0
103.9100,45.0
103.9300,57.0
103.9500,53.0
103.9700,52.0
103.9900,63.0
104.0100,57.0
104.0300,57.0
104.0500,65.0
104.0700,56.0
104.0900,57.0
104.1100,61.0
104.1300,64.0
104.1500,56.0
104.1700,56.0
104.1900,65.0
104.2100,56.0
104.2300,59.0
104.2500,63.0
104.2700,57.0
104.2900,53.0
104.3100,59.0
104.3300,66.0
104.3500,51.0
104.3700,52.0
104.3900,49.0
104.4100,62.0
104.4300,59.0
104.4500,62.0
104.4700,60.0
104.4900,56.0
104.5100,64.0
104.5300,58.0
104.5500,44.0
104.5700,52.0
104.5900,68.0
104.6100,53.0
104.6300,46.0
104.6500,56.0
104.6700,62.0
104.6900,43.0
104.7100,57.0
104.7300,54.0
104.7500,58.0
104.7700,57.0
104.7900,60.0
104.8100,60.0
104.8300,43.0
104.8500,62.0
104.8700,55.0
104.8900,52.0
104.9100,68.0
104.9300,63.0
104.9500,48.0
104.9700,54.0
104.9900,43.0
105.0100,52.0
105.0300,40.0
105.0500,50.0
105.0700,53.0
105.0900,62.0
105.1100,48.0
105.1300,65.0
105.1500,53.0
105.1700,37.0
105.1900,53.0
105.2100,45.0
105.2300,52.0
105.2500,50.0
105.2700,65.0
105.2900,63.0
105.3100,62.0
105.3300,63.0
105.3500,51.0
105.3700,49.0
105.3900,52.0
105.4100,61.0
105.4300,59.0
105.4500,51.0
105.4700,51.0
105.4900,60.0
105.5100,56.0
105.5300,57.0
105.5500,59.0
105.5700,62.0
105.5900,50.0
105.6100,61.0
105.6300,67.0
105.6500,45.0
105.6700,48.0
105.6900,65.0
105.7100,52.0
105.7300,67.0
105.7500,58.0
105.7700,51.0
105.7900,67.0
105.8100,64.0
105.8300,49.0
105.8500,64.0
105.8700,58.0
105.8900,46.0
105.9100,55.0
105.9300,58.0
105.9500,56.0
105.9700,59.0
105.9900,63.0
106.0100,51.0
106.0300,49.0
106.0500,51.0
106.0700,57.0
106.0900,69.0
106.1100,58.0
106.1300,65.0
106.1500,59.0
106.1700,73.0
106.1900,67.0
106.2100,47.0
106.2300,60.0
106.2500,52.0
106.2700,43.0
106.2900,49.0
106.3100,50.0
106.3300,50.0
106.3500,57.0
106.3700,46.0
106.3900,53.0
106.4100,52.0
106.4300,46.0
106.4500,50.0
106.4700,54.0
106.4900,59.0
106.5100,64.0
106.5300,50.0
106.5500,57.0
106.5700,44.0
106.5900,49.0
106.6100,44.0
106.6300,60.0
106.6500,70.0
106.6700,64.0
106.6900,76.0
106.7100,62.0
106.7300,46.0
106.7500,60.0
106.7700,67.0
106.7900,55.0
106.8100,58.0
106.8300,51.0
106.8500,58.0
106.8700,60.0
106.8900,59.0
106.9100,50.0
106.9300,64.0
106.9500,57.0
106.9700,59.0
106.9900,42.0
107.0100,43.0
107.0300,54.0
107.0500,58.0
107.0700,61.0
107.0900,52.0
107.1100,66.0
107.1300,51.0
107.1500,49.0
107.1700,43.0
107.1900,59.0
107.2100,45.0
107.2300,61.0
107.2500,51.0
107.2700,60.0
107.2900,43.0
107.3100,46.0
107.3300,61.0
107.3500,54.0
107.3700,55.0
107.3900,54.0
107.4100,65.0
107.4300,59.0
107.4500,48.0
107.4700,56.0
107.4900,51.0
107.5100,55.0
107.5300,50.0
107.5500,42.0
107.5700,54.0
107.5900,58.0
107.6100,47.0
107.6300,57.0
107.6500,70.0
107.6700,61.0
107.6900,52.0
107.7100,44.0
107.7300,52.0
107.7500,63.0
107.7700,44.0
107.7900,50.0
107.8100,59.0
107.8300,58.0
107.8500,50.0
107.8700,62.0
107.8900,64.0
107.9100,58.0
107.9300,49.0
107.9500,62.0
107.9700,66.0
107.9900,53.0
108.0100,68.0
108.0300,38.0
108.0500,58.0
108.0700,56.0
108.0900,64.0
108.1100,44.0
108.1300,73.0
108.1500,63.0
108.1700,63.0
108.1900,52.0
108.2100,61.0
108.2300,48.0
108.2500,67.0
108.2700,50.0
108.2900,67.0
108.3100,45.0
108.3300,53.0
108.3500,58.0
108.3700,74.0
108.3900,46.0
108.4100,71.0
108.4300,60.0
108.4500,63.0
108.4700,53.0
108.4900,56.0
108.5100,52.0
108.5300,64.0
108.5500,63.0
108.5700,49.0
108.5900,45.0
108.6100,72.0
108.6300,63.0
108.6500,58.0
108.6700,60.0
108.6900,65.0
108.7100,57.0
108.7300,62.0
108.7500,53.0
108.7700,71.0
108.7900,50.0
108.8100,59.0
108.8300,60.0
108.8500,86.0
108.8700,48.0
108.8900,64.0
108.9100,54.0
108.9300,51.0
108.9500,58.0
108.9700,50.0
108.9900,59.0
109.0100,49.0
109.0300,67.0
109.0500,52.0
109.0700,50.0
109.0900,59.0
109.1100,53.0
109.1300,68.0
109.1500,44.0
109.1700,55.0
109.1900,64.0
109.2100,44.0
109.2300,67.0
109.2500,57.0
109.2700,52.0
109.2900,54.0
109.3100,57.0
109.3300,63.0
109.3500,56.0
109.3700,55.0
109.3900,59.0
109.4100,57.0
109.4300,57.0
109.4500,58.0
109.4700,59.0
109.4900,46.0
109.5100,70.0
109.5300,62.0
109.5500,67.0
109.5700,49.0
109.5900,52.0
109.6100,59.0
109.6300,46.0
109.6500,61.0
109.6700,60.0
109.6900,56.0
109.7100,58.0
109.7300,63.0
109.7500,49.0
109.7700,61.0
109.7900,48.0
109.8100,54.0
109.8300,48.0
109.8500,51.0
109.8700,62.0
109.8900,55.0
109.9100,65.0
109.9300,47.0
109.9500,62.0
109.9700,59.0
109.9900,50.0
110.0100,58.0
110.0300,44.0
110.0500,55.0
110.0700,44.0
110.0900,55.0
110.1100,52.0
110.1300,61.0
110.1500,62.0
110.1700,54.0
110.1900,52.0
110.2100,61.0
110.2300,56.0
110.2500,59.0
110.2700,56.0
110.2900,52.0
110.3100,60.0
110.3300,65.0
110.3500,70.0
110.3700,39.0
110.3900,47.0
110.4100,56.0
110.4300,62.0
110.4500,70.0
110.4700,53.0
110.4900,45.0
110.5100,56.0
110.5300,51.0
110.5500,47.0
110.5700,67.0
110.5900,58.0
110.6100,51.0
110.6300,58.0
110.6500,65.0
110.6700,61.0
110.6900,48.0
110.7100,55.0
110.7300,63.0
110.7500,63.0
110.7700,53.0
110.7900,47.0
110.8100,60.0
110.8300,55.0
110.8500,49.0
110.8700,44.0
110.8900,67.0
110.9100,66.0
110.9300,54.0
110.9500,49.0
110.9700,54.0
110.9900,55.0
111.0100,54.0
111.0300,64.0
111.0500,46.0
111.0700,55.0
111.0900,61.0
111.1100,52.0
111.1300,57.0
111.1500,49.0
111.1700,55.0
111.1900,53.0
111.2100,45.0
111.2300,64.0
111.2500,51.0
111.2700,64.0
111.2900,58.0
111.3100,66.0
111.3300,50.0
111.3500,56.0
111.3700,68.0
111.3900,57.0
111.4100,42.0
111.4300,54.0
111.4500,58.0
111.4700,52.0
111.4900,60.0
111.5100,55.0
111.5300,54.0
111.5500,64.0
111.5700,69.0
111.5900,59.0
111.6100,60.0
111.6300,60.0
111.6500,63.0
111.6700,55.0
111.6900,44.0
111.7100,58.0
111.7300,55.0
111.7500,56.0
111.7700,49.0
111.7900,44.0
111.8100,49.0
111.8300,55.0
111.8500,42.0
111.8700,37.0
111.8900,67.0
111.9100,65.0
111.9300,53.0
111.9500,63.0
111.9700,59.0
111.9900,62.0
112.0100,56.0
112.0300,49.0
112.0500,61.0
112.0700,72.0
112.0900,65.0
112.1100,51.0
112.1300,44.0
112.1500,56.0
112.1700,62.0
112.1900,59.0
112.2100,61.0
112.2300,60.0
112.2500,52.0
112.2700,59.0
112.2900,60.0
112.3100,59.0
112.3300,49.0
112.3500,68.0
112.3700,55.0
112.3900,41.0
112.4100,60.0
112.4300,47.0
112.4500,56.0
112.4700,56.0
112.4900,65.0
112.5100,65.0
112.5300,54.0
112.5500,56.0
112.5700,59.0
112.5900,59.0
112.6100,52.0
112.6300,55.0
112.6500,54.0
112.6700,56.0
112.6900,67.0
112.7100,47.0
112.7300,66.0
112.7500,52.0
112.7700,35.0
112.7900,51.0
112.8100,45.0
112.8300,64.0
112.8500,52.0
112.8700,56.0
112.8900,74.0
112.9100,63.0
112.9300,62.0
112.9500,63.0
112.9700,64.0
112.9900,57.0
113.0100,62.0
113.0300,60.0
113.0500,51.0
113.0700,53.0
113.0900,57.0
113.1100,47.0
113.1300,43.0
113.1500,51.0
113.1700,74.0
113.1900,48.0
113.2100,62.0
113.2300,64.0
113.2500,58.0
113.2700,57.0
113.2900,76.0
113.3100,49.0
113.3300,52.0
113.3500,63.0
113.3700,59.0
113.3900,54.0
113.4100,47.0
113.4300,59.0
113.4500,59.0
113.4700,67.0
113.4900,47.0
113.5100,57.0
113.5300,61.0
113.5500,59.0
113.5700,54.0
113.5900,70.0
113.6100,51.0
113.6300,45.0
113.6500,57.0
113.6700,51.0
113.6900,58.0
113.7100,61.0
113.7300,60.0
113.7500,54.0
113.7700,56.0
113.7900,72.0
113.8100,53.0
113.8300,67.0
113.8500,61.0
113.8700,70.0
113.8900,61.0
113.9100,56.0
113.9300,48.0
113.9500,57.0
113.9700,57.0
113.9900,61.0
114.0100,59.0
114.0300,48.0
114.0500,53.0
114.0700,60.0
114.0900,56.0
114.1100,58.0
114.1300,71.0
114.1500,67.0
114.1700,59.0
114.1900,60.0
114.2100,71.0
114.2300,59.0
114.2500,53.0
114.2700,48.0
114.2900,56.0
114.3100,59.0
114.3300,54.0
114.3500,55.0
114.3700,48.0
114.3900,47.0
114.4100,58.0
114.4300,54.0
114.4500,68.0
114.4700,57.0
114.4900,60.0
114.5100,53.0
114.5300,58.0
114.5500,48.0
114.5700,60.0
114.5900,58.0
114.6100,59.0
114.6300,56.0
114.6500,57.0
114.6700,64.0
114.6900,51.0
114.7100,48.0
114.7300,47.0
114.7500,78.0
114.7700,69.0
114.7900,61.0
114.8100,58.0
114.8300,58.0
114.8500,56.0
114.8700,53.0
114.8900,49.0
114.9100,52.0
114.9300,51.0
114.9500,73.0
114.9700,70.0
114.9900,62.0
115.0100,68.0
115.0300,60.0
115.0500,59.0
115.0700,65.0
115.0900,70.0
115.1100,71.0
115.1300,55.0
115.1500,63.0
115.1700,71.0
115.1900,44.0
115.2100,81.0
115.2300,54.0
115.2500,67.0
115.2700,84.0
115.2900,62.0
115.3100,71.0
115.3300,58.0
115.3500,80.0
115.3700,67.0
115.3900,60.0
115.4100,71.0
115.4300,77.0
115.4500,77.0
115.4700,66.0
115.4900,74.0
115.5100,87.0
115.5300,89.0
115.5500,92.0
115.5700,87.0
115.5900,92.0
115.6100,68.0
115.6300,101.0
115.6500,102.0
115.6700,90.0
115.6900,125.0
115.7100,117.0
115.7300,109.0
115.7500,123.0
115.7700,151.0
115.7900,124.0
115.8100,169.0
115.8300,154.0
115.8500,164.0
115.8700,187.0
115.8900,193.0
115.9100,210.0
115.9300,205.0
115.9500,220.0
115.9700,229.0
115.9900,215.0
116.0100,247.0
116.0300,254.0
116.0500,238.0
116.0700,292.0
116.0900,255.0
116.1100,274.0
116.1300,238.0
116.1500,249.0
116.1700,208.0
116.1900,231.0
116.2100,183.0
116.2300,164.0
116.2500,185.0
116.2700,173.0
116.2900,189.0
116.3100,181.0
116.3300,154.0
116.3500,147.0
116.3700,166.0
116.3900,152.0
116.4100,155.0
116.4300,171.0
116.4500,178.0
116.4700,146.0
116.4900,167.0
116.5100,172.0
116.5300,149.0
116.5500,148.0
116.5700,135.0
116.5900,155.0
116.6100,125.0
116.6300,122.0
116.6500,127.0
116.6700,117.0
116.6900,111.0
116.7100,96.0
116.7300,92.0
116.7500,107.0
116.7700,93.0
116.7900,65.0
116.8100,79.0
116.8300,80.0
116.8500,77.0
116.8700,56.0
116.8900,64.0
116.9100,67.0
116.9300,57.0
116.9500,57.0
116.9700,77.0
116.9900,68.0
117.0100,63.0
117.0300,55.0
117.0500,66.0
117.0700,64.0
117.0900,57.0
117.1100,55.0
117.1300,60.0
117.1500,66.0
117.1700,68.0
117.1900,82.0
117.2100,61.0
117.2300,63.0
117.2500,49.0
117.2700,42.0
117.2900,65.0
117.3100,68.0
117.3300,64.0
117.3500,61.0
117.3700,64.0
117.3900,68.0
117.4100,57.0
117.4300,56.0
117.4500,62.0
117.4700,50.0
117.4900,61.0
117.5100,53.0
117.5300,41.0
117.5500,59.0
117.5700,52.0
117.5900,66.0
117.6100,53.0
117.6300,60.0
117.6500,50.0
117.6700,51.0
117.6900,79.0
117.7100,67.0
117.7300,59.0
117.7500,48.0
117.7700,58.0
117.7900,70.0
117.8100,55.0
117.8300,54.0
117.8500,57.0
117.8700,48.0
117.8900,45.0
117.9100,66.0
117.9300,66.0
117.9500,63.0
117.9700,82.0
117.9900,55.0
118.0100,60.0
118.0300,63.0
118.0500,55.0
118.0700,63.0
118.0900,65.0
118.1100,50.0
118.1300,60.0
118.1500,45.0
118.1700,55.0
118.1900,59.0
118.2100,52.0
118.2300,58.0
118.2500,52.0
118.2700,44.0
118.2900,67.0
118.3100,65.0
118.3300,43.0
118.3500,65.0
118.3700,51.0
118.3900,44.0
118.4100,60.0
118.4300,53.0
118.4500,65.0
118.4700,56.0
118.4900,62.0
118.5100,51.0
118.5300,58.0
118.5500,60.0
118.5700,48.0
118.5900,56.0
118.6100,68.0
118.6300,47.0
118.6500,54.0
118.6700,53.0
118.6900,54.0
118.7100,57.0
118.7300,49.0
118.7500,51.0
118.7700,54.0
118.7900,59.0
118.8100,48.0
118.8300,63.0
118.8500,60.0
118.8700,66.0
118.8900,67.0
118.9100,56.0
118.9300,68.0
118.9500,64.0
118.9700,54.0
118.9900,52.0
119.0100,59.0
119.0300,53.0
119.0500,61.0
119.0700,55.0
119.0900,59.0
119.1100,62.0
119.1300,59.0
119.1500,45.0
119.1700,54.0
119.1900,52.0
119.2100,53.0
119.2300,43.0
119.2500,65.0
119.2700,63.0
119.2900,70.0
119.3100,54.0
119.3300,42.0
119.3500,51.0
119.3700,60.0
119.3900,67.0
119.4100,66.0
119.4300,60.0
119.4500,61.0
119.4700,52.0
119.4900,57.0
119.5100,58.0
119.5300,53.0
119.5500,55.0
119.5700,59.0
119.5900,61.0
119.6100,63.0
119.6300,52.0
119.6500,50.0
119.6700,55.0
119.6900,58.0
119.7100,71.0
119.7300,64.0
119.7500,44.0
119.7700,62.0
119.7900,54.0
119.8100,61.0
119.8300,56.0
119.8500,52.0
119.8700,65.0
119.8900,69.0
119.9100,61.0
119.9300,60.0
119.9500,72.0
119.9700,45.0
119.9900,51.0
120.0100,46.0
120.0300,54.0
120.0500,69.0
120.0700,52.0
120.0900,53.0
120.1100,65.0
120.1300,60.0
120.1500,48.0
120.1700,65.0
120.1900,65.0
120.2100,57.0
120.2300,55.0
120.2500,46.0
120.2700,57.0
120.2900,48.0
120.3100,53.0
120.3300,51.0
120.3500,66.0
120.3700,52.0
120.3900,56.0
120.4100,55.0
120.4300,47.0
120.4500,70.0
120.4700,61.0
120.4900,66.0
120.5100,69.0
120.5300,52.0
120.5500,59.0
120.5700,51.0
120.5900,52.0
120.6100,52.0
120.6300,55.0
120.6500,62.0
120.6700,47.0
120.6900,59.0
120.7100,64.0
120.7300,57.0
120.7500,57.0
120.7700,50.0
120.7900,73.0
120.8100,54.0
120.8300,66.0
120.8500,50.0
120.8700,54.0
120.8900,50.0
120.9100,67.0
120.9300,60.0
120.9500,72.0
120.9700,50.0
120.9900,58.0
121.0100,49.0
121.0300,64.0
121.0500,48.0
121.0700,56.0
121.0900,58.0
121.1100,70.0
121.1300,74.0
121.1500,62.0
121.1700,62.0
121.1900,58.0
121.2100,55.0
121.2300,49.0
121.2500,61.0
121.2700,54.0
121.2900,55.0
121.3100,74.0
121.3300,56.0
121.3500,58.0
121.3700,53.0
121.3900,57.0
121.4100,52.0
121.4300,55.0
121.4500,64.0
121.4700,63.0
121.4900,65.0
121.5100,59.0
121.5300,57.0
121.5500,47.0
121.5700,56.0
121.5900,57.0
121.6100,50.0
121.6300,54.0
121.6500,72.0
121.6700,56.0
121.6900,65.0
121.7100,52.0
121.7300,50.0
121.7500,63.0
121.7700,61.0
121.7900,57.0
121.8100,71.0
121.8300,54.0
121.8500,56.0
121.8700,60.0
121.8900,63.0
121.9100,57.0
121.9300,37.0
121.9500,62.0
121.9700,57.0
121.9900,53.0
122.0100,51.0
122.0300,52.0
122.0500,62.0
122.0700,50.0
122.0900,71.0
122.1100,56.0
122.1300,64.0
122.1500,40.0
122.1700,48.0
122.1900,61.0
122.2100,63.0
122.2300,57.0
122.2500,64.0
122.2700,47.0
122.2900,64.0
122.3100,58.0
122.3300,54.0
122.3500,58.0
122.3700,54.0
122.3900,51.0
122.4100,52.0
122.4300,51.0
122.4500,67.0
122.4700,59.0
122.4900,51.0
122.5100,54.0
122.5300,62.0
122.5500,45.0
122.5700,49.0
122.5900,44.0
122.6100,49.0
122.6300,63.0
122.6500,64.0
122.6700,67.0
122.6900,63.0
122.7100,60.0
122.7300,62.0
122.7500,75.0
122.7700,46.0
122.7900,67.0
122.8100,48.0
122.8300,59.0
122.8500,45.0
122.8700,58.0
122.8900,62.0
122.9100,55.0
122.9300,54.0
122.9500,65.0
122.9700,56.0
122.9900,50.0
123.0100,72.0
123.0300,60.0
123.0500,69.0
123.0700,58.0
123.0900,64.0
123.1100,68.0
123.1300,56.0
123.1500,49.0
123.1700,57.0
123.1900,55.0
123.2100,63.0
123.2300,61.0
123.2500,54.0
123.2700,55.0
123.2900,54.0
123.3100,53.0
123.3300,69.0
123.3500,63.0
123.3700,46.0
123.3900,55.0
123.4100,53.0
123.4300,55.0
123.4500,67.0
123.4700,72.0
123.4900,54.0
123.5100,60.0
123.5300,55.0
123.5500,38.0
123.5700,45.0
123.5900,61.0
123.6100,49.0
123.6300,61.0
123.6500,63.0
123.6700,63.0
123.6900,47.0
123.7100,68.0
123.7300,69.0
123.7500,46.0
123.7700,58.0
123.7900,47.0
123.8100,48.0
123.8300,59.0
123.8500,51.0
123.8700,63.0
123.8900,38.0
123.9100,56.0
123.9300,48.0
123.9500,62.0
123.9700,52.0
123.9900,59.0
124.0100,44.0
124.0300,50.0
124.0500,53.0
124.0700,62.0
124.0900,53.0
124.1100,38.0
124.1300,52.0
124.1500,59.0
124.1700,49.0
124.1900,61.0
124.2100,43.0
124.2300,68.0
124.2500,50.0
124.2700,56.0
124.2900,61.0
124.3100,45.0
124.3300,53.0
124.3500,68.0
124.3700,58.0
124.3900,69.0
124.4100,62.0
124.4300,53.0
124.4500,38.0
124.4700,62.0
124.4900,68.0
124.5100,57.0
124.5300,63.0
124.5500,69.0
124.5700,57.0
124.5900,42.0
124.6100,63.0
124.6300,48.0
124.6500,60.0
124.6700,56.0
124.6900,43.0
124.7100,57.0
124.7300,47.0
124.7500,55.0
124.7700,59.0
124.7900,48.0
124.8100,48.0
124.8300,61.0
124.8500,62.0
124.8700,70.0
124.8900,63.0
124.9100,61.0
124.9300,37.0
124.9500,58.0
124.9700,55.0
124.9900,57.0
125.0100,63.0
125.0300,60.0
125.0500,75.0
125.0700,66.0
125.0900,42.0
125.1100,65.0
125.1300,43.0
125.1500,46.0
125.1700,63.0
125.1900,51.0
125.2100,50.0
125.2300,54.0
125.2500,53.0
125.2700,49.0
125.2900,66.0
125.3100,59.0
125.3300,63.0
125.3500,57.0
125.3700,65.0
125.3900,63.0
125.4100,48.0
125.4300,69.0
125.4500,56.0
125.4700,53.0
125.4900,40.0
125.5100,47.0
125.5300,69.0
125.5500,57.0
125.5700,54.0
125.5900,65.0
125.6100,51.0
125.6300,62.0
125.6500,49.0
125.6700,53.0
125.6900,66.0
125.7100,51.0
125.7300,61.0
125.7500,60.0
125.7700,64.0
125.7900,53.0
125.8100,52.0
125.8300,50.0
125.8500,55.0
125.8700,63.0
125.8900,58.0
125.9100,64.0
125.9300,51.0
125.9500,45.0
125.9700,59.0
125.9900,53.0
126.0100,58.0
126.0300,62.0
126.0500,57.0
126.0700,56.0
126.0900,49.0
126.1100,56.0
126.1300,63.0
126.1500,54.0
126.1700,66.0
126.1900,61.0
126.2100,68.0
126.2300,60.0
126.2500,49.0
126.2700,61.0
126.2900,48.0
126.3100,66.0
126.3300,79.0
126.3500,55.0
126.3700,55.0
126.3900,53.0
126.4100,62.0
126.4300,69.0
126.4500,63.0
126.4700,50.0
126.4900,57.0
126.5100,66.0
126.5300,59.0
126.5500,51.0
126.5700,45.0
126.5900,54.0
126.6100,71.0
126.6300,55.0
126.6500,42.0
126.6700,64.0
126.6900,54.0
126.7100,61.0
126.7300,53.0
126.7500,60.0
126.7700,58.0
126.7900,53.0
126.8100,50.0
126.8300,56.0
126.8500,76.0
126.8700,61.0
126.8900,71.0
126.9100,43.0
126.9300,61.0
126.9500,56.0
126.9700,54.0
126.9900,67.0
127.0100,52.0
127.0300,53.0
127.0500,54.0
127.0700,65.0
127.0900,57.0
127.1100,56.0
127.1300,59.0
127.1500,62.0
127.1700,67.0
127.1900,54.0
127.2100,42.0
127.2300,55.0
127.2500,64.0
127.2700,47.0
127.2900,61.0
127.3100,56.0
127.3300,45.0
127.3500,50.0
127.3700,65.0
127.3900,39.0
127.4100,51.0
127.4300,70.0
127.4500,58.0
127.4700,66.0
127.4900,63.0
127.5100,53.0
127.5300,52.0
127.5500,69.0
127.5700,59.0
127.5900,55.0
127.6100,63.0
127.6300,54.0
127.6500,62.0
127.6700,57.0
127.6900,55.0
127.7100,54.0
127.7300,45.0
127.7500,43.0
127.7700,64.0
127.7900,57.0
127.8100,56.0
127.8300,54.0
127.8500,41.0
127.8700,56.0
127.8900,42.0
127.9100,57.0
127.9300,44.0
127.9500,57.0
127.9700,56.0
127.9900,50.0
128.0100,61.0
128.0300,51.0
128.0500,66.0
128.0700,55.0
128.0900,56.0
128.1100,62.0
128.1300,51.0
128.1500,67.0
128.1700,47.0
128.1900,59.0
128.2100,53.0
128.2300,48.0
128.2500,66.0
128.2700,67.0
128.2900,48.0
128.3100,61.0
128.3300,62.0
128.3500,54.0
128.3700,54.0
128.3900,59.0
128.4100,56.0
128.4300,50.0
128.4500,55.0
128.4700,56.0
128.4900,59.0
128.5100,45.0
128.5300,61.0
128.5500,56.0
128.5700,48.0
128.5900,53.0
128.6100,52.0
128.6300,50.0
128.6500,63.0
128.6700,58.0
128.6900,50.0
128.7100,61.0
128.7300,48.0
128.7500,58.0
128.7700,51.0
128.7900,60.0
128.8100,56.0
128.8300,67.0
128.8500,71.0
128.8700,65.0
128.8900,59.0
128.9100,75.0
128.9300,48.0
128.9500,57.0
128.9700,64.0
128.9900,53.0
129.0100,79.0
129.0300,55.0
129.0500,52.0
129.0700,68.0
129.0900,61.0
129.1100,65.0
129.1300,63.0
129.1500,71.0
129.1700,50.0
129.1900,71.0
129.2100,65.0
129.2300,50.0
129.2500,60.0
129.2700,48.0
129.2900,65.0
129.3100,47.0
129.3300,59.0
129.3500,53.0
129.3700,51.0
129.3900,46.0
129.4100,60.0
129.4300,60.0
129.4500,52.0
129.4700,49.0
129.4900,55.0
129.5100,52.0
129.5300,51.0
129.5500,41.0
129.5700,49.0
129.5900,51.0
129.6100,55.0
129.6300,60.0
129.6500,64.0
129.6700,55.0
129.6900,53.0
129.7100,57.0
129.7300,54.0
129.7500,62.0
129.7700,58.0
129.7900,48.0
129.8100,60.0
129.8300,60.0
129.8500,62.0
129.8700,60.0
129.8900,71.0
129.9100,62.0
129.9300,55.0
129.9500,62.0
129.9700,58.0
129.9900,55.0
130.0100,67.0
130.0300,77.0
130.0500,66.0
130.0700,49.0
130.0900,52.0
130.1100,55.0
130.1300,64.0
130.1500,51.0
130.1700,63.0
130.1900,62.0
130.2100,59.0
130.2300,50.0
130.2500,66.0
130.2700,48.0
130.2900,61.0
130.3100,49.0
130.3300,62.0
130.3500,65.0
130.3700,49.0
130.3900,59.0
130.4100,51.0
130.4300,71.0
130.4500,54.0
130.4700,53.0
130.4900,52.0
130.5100,64.0
130.5300,76.0
130.5500,70.0
130.5700,67.0
130.5900,58.0
130.6100,58.0
130.6300,59.0
130.6500,59.0
130.6700,46.0
130.6900,50.0
130.7100,60.0
130.7300,69.0
130.7500,56.0
130.7700,53.0
130.7900,65.0
130.8100,53.0
130.8300,54.0
130.8500,60.0
130.8700,63.0
130.8900,53.0
130.9100,64.0
130.9300,50.0
130.9500,50.0
130.9700,55.0
130.9900,53.0
131.0100,43.0
131.0300,60.0
131.0500,68.0
131.0700,59.0
131.0900,47.0
131.1100,59.0
131.1300,58.0
131.1500,64.0
131.1700,76.0
131.1900,69.0
131.2100,68.0
131.2300,53.0
131.2500,57.0
131.2700,58.0
131.2900,67.0
131.3100,63.0
131.3300,60.0
131.3500,47.0
131.3700,56.0
131.3900,70.0
131.4100,69.0
131.4300,59.0
131.4500,74.0
131.4700,67.0
131.4900,63.0
131.5100,64.0
131.5300,66.0
131.5500,69.0
131.5700,69.0
131.5900,71.0
131.6100,63.0
131.6300,70.0
131.6500,57.0
131.6700,74.0
131.6900,63.0
131.7100,75.0
131.7300,70.0
131.7500,64.0
131.7700,76.0
131.7900,77.0
131.8100,63.0
131.8300,71.0
131.8500,61.0
131.8700,86.0
131.8900,74.0
131.9100,65.0
131.9300,68.0
131.9500,74.0
131.9700,70.0
131.9900,63.0
132.0100,78.0
132.0300,87.0
132.0500,69.0
132.0700,75.0
132.0900,74.0
132.1100,89.0
132.1300,75.0
132.1500,73.0
132.1700,86.0
132.1900,75.0
132.2100,92.0
132.2300,78.0
132.2500,84.0
132.2700,78.0
132.2900,66.0
132.3100,91.0
132.3300,72.0
132.3500,76.0
132.3700,77.0
132.3900,79.0
132.4100,74.0
132.4300,51.0
132.4500,71.0
132.4700,72.0
132.4900,84.0
132.5100,94.0
132.5300,84.0
132.5500,100.0
132.5700,89.0
132.5900,76.0
132.6100,84.0
132.6300,66.0
132.6500,74.0
132.6700,87.0
132.6900,76.0
132.7100,69.0
132.7300,84.0
132.7500,80.0
132.7700,72.0
132.7900,72.0
132.8100,63.0
132.8300,89.0
132.8500,86.0
132.8700,78.0
132.8900,90.0
132.9100,89.0
132.9300,78.0
132.9500,100.0
132.9700,79.0
132.9900,73.0
133.0100,79.0
133.0300,63.0
133.0500,68.0
133.0700,69.0
133.0900,79.0
133.1100,74.0
133.1300,83.0
133.1500,78.0
133.1700,87.0
133.1900,67.0
133.2100,67.0
133.2300,62.0
133.2500,77.0
133.2700,59.0
133.2900,49.0
133.3100,57.0
133.3300,72.0
133.3500,65.0
133.3700,79.0
133.3900,58.0
133.4100,70.0
133.4300,71.0
133.4500,76.0
133.4700,73.0
133.4900,70.0
133.5100,70.0
133.5300,59.0
133.5500,79.0
133.5700,68.0
133.5900,60.0
133.6100,57.0
133.6300,52.0
133.6500,70.0
133.6700,64.0
133.6900,63.0
133.7100,51.0
133.7300,65.0
133.7500,64.0
133.7700,59.0
133.7900,57.0
133.8100,67.0
133.8300,60.0
133.8500,60.0
133.8700,56.0
133.8900,69.0
133.9100,66.0
133.9300,60.0
133.9500,67.0
133.9700,65.0
133.9900,67.0
134.0100,69.0
134.0300,55.0
134.0500,62.0
134.0700,53.0
134.0900,61.0
134.1100,77.0
134.1300,55.0
134.1500,55.0
134.1700,69.0
134.1900,64.0
134.2100,73.0
134.2300,67.0
134.2500,69.0
134.2700,54.0
134.2900,60.0
134.3100,60.0
134.3300,75.0
134.3500,73.0
134.3700,63.0
134.3900,63.0
134.4100,54.0
134.4300,62.0
134.4500,48.0
134.4700,65.0
134.4900,58.0
134.5100,57.0
134.5300,53.0
134.5500,70.0
134.5700,63.0
134.5900,63.0
134.6100,70.0
134.6300,61.0
134.6500,64.0
134.6700,62.0
134.6900,52.0
134.7100,50.0
134.7300,62.0
134.7500,53.0
134.7700,77.0
134.7900,65.0
134.8100,50.0
134.8300,65.0
134.8500,77.0
134.8700,55.0
134.8900,54.0
134.9100,64.0
134.9300,50.0
134.9500,55.0
134.9700,57.0
134.9900,58.0
135.0100,59.0
135.0300,64.0
135.0500,64.0
135.0700,53.0
135.0900,76.0
135.1100,50.0
135.1300,47.0
135.1500,61.0
135.1700,69.0
135.1900,64.0
135.2100,66.0
135.2300,57.0
135.2500,73.0
135.2700,54.0
135.2900,68.0
135.3100,65.0
135.3300,48.0
135.3500,50.0
135.3700,50.0
135.3900,71.0
135.4100,43.0
135.4300,45.0
135.4500,48.0
135.4700,61.0
135.4900,64.0
135.5100,51.0
135.5300,65.0
135.5500,50.0
135.5700,73.0
135.5900,47.0
135.6100,60.0
135.6300,70.0
135.6500,50.0
135.6700,59.0
135.6900,55.0
135.7100,62.0
135.7300,51.0
135.7500,68.0
135.7700,66.0
135.7900,61.0
135.8100,60.0
135.8300,57.0
135.8500,51.0
135.8700,65.0
135.8900,61.0
135.9100,64.0
135.9300,58.0
135.9500,65.0
135.9700,58.0
135.9900,56.0
136.0100,46.0
136.0300,62.0
136.0500,53.0
136.0700,60.0
136.0900,59.0
136.1100,49.0
136.1300,59.0
136.1500,53.0
136.1700,61.0
136.1900,60.0
136.2100,76.0
136.2300,52.0
136.2500,60.0
136.2700,46.0
136.2900,57.0
136.3100,56.0
136.3300,50.0
136.3500,64.0
136.3700,72.0
136.3900,60.0
136.4100,55.0
136.4300,55.0
136.4500,55.0
136.4700,64.0
136.4900,51.0
136.5100,52.0
136.5300,60.0
136.5500,58.0
136.5700,72.0
136.5900,59.0
136.6100,56.0
136.6300,64.0
136.6500,59.0
136.6700,58.0
136.6900,50.0
136.7100,43.0
136.7300,69.0
136.7500,57.0
136.7700,62.0
136.7900,66.0
136.8100,56.0
136.8300,55.0
136.8500,49.0
136.8700,51.0
136.8900,51.0
136.9100,59.0
136.9300,67.0
136.9500,55.0
136.9700,59.0
136.9900,47.0
137.0100,66.0
137.0300,55.0
137.0500,60.0
137.0700,55.0
137.0900,47.0
137.1100,52.0
137.1300,56.0
137.1500,48.0
137.1700,62.0
137.1900,55.0
137.2100,49.0
137.2300,65.0
137.2500,50.0
137.2700,67.0
137.2900,52.0
137.3100,67.0
137.3300,69.0
137.3500,56.0
137.3700,57.0
137.3900,55.0
137.4100,85.0
137.4300,48.0
137.4500,66.0
137.4700,69.0
137.4900,71.0
137.5100,50.0
137.5300,60.0
137.5500,70.0
137.5700,60.0
137.5900,65.0
137.6100,67.0
137.6300,57.0
137.6500,63.0
137.6700,60.0
137.6900,55.0
137.7100,61.0
137.7300,41.0
137.7500,59.0
137.7700,54.0
137.7900,59.0
137.8100,69.0
137.8300,68.0
137.8500,42.0
137.8700,64.0
137.8900,44.0
137.9100,65.0
137.9300,55.0
137.9500,61.0
137.9700,54.0
137.9900,60.0
138.0100,69.0
138.0300,53.0
138.0500,56.0
138.0700,65.0
138.0900,57.0
138.1100,45.0
138.1300,54.0
138.1500,62.0
138.1700,64.0
138.1900,72.0
138.2100,50.0
138.2300,51.0
138.2500,59.0
138.2700,55.0
138.2900,62.0
138.3100,42.0
138.3300,58.0
138.3500,56.0
138.3700,53.0
138.3900,47.0
138.4100,66.0
138.4300,50.0
138.4500,61.0
138.4700,54.0
138.4900,65.0
138.5100,59.0
138.5300,49.0
138.5500,54.0
138.5700,60.0
138.5900,66.0
138.6100,48.0
138.6300,55.0
138.6500,57.0
138.6700,60.0
138.6900,65.0
138.7100,69.0
138.7300,51.0
138.7500,52.0
138.7700,71.0
138.7900,54.0
138.8100,52.0
138.8300,58.0
138.8500,67.0
138.8700,52.0
138.8900,53.0
138.9100,55.0
138.9300,46.0
138.9500,59.0
138.9700,59.0
138.9900,67.0
139.0100,62.0
139.0300,48.0
139.0500,57.0
139.0700,57.0
139.0900,67.0
139.1100,57.0
139.1300,53.0
139.1500,56.0
139.1700,73.0
139.1900,66.0
139.2100,50.0
139.2300,58.0
139.2500,54.0
139.2700,72.0
139.2900,61.0
139.3100,63.0
139.3300,63.0
139.3500,50.0
139.3700,56.0
139.3900,56.0
139.4100,62.0
139.4300,47.0
139.4500,60.0
139.4700,70.0
139.4900,61.0
139.5100,51.0
139.5300,69.0
139.5500,55.0
139.5700,71.0
139.5900,62.0
139.6100,57.0
139.6300,58.0
139.6500,59.0
139.6700,63.0
139.6900,58.0
139.7100,51.0
139.7300,64.0
139.7500,64.0
139.7700,56.0
139.7900,63.0
139.8100,61.0
139.8300,63.0
139.8500,53.0
139.8700,60.0
139.8900,53.0
139.9100,69.0
139.9300,62.0
139.9500,57.0
139.9700,57.0
139.9900,76.0
