-165.528079	7.503297
-162.858479	-2.802198
-160.191814	-6.868931
-157.525901	-6.046553
-154.862921	-1.684715
-152.198510	4.866933
-149.537030	12.258741
-146.874121	21.994406
-144.216318	19.316084
-141.557086	15.156643
-138.898602	11.927273
-136.243043	14.728671
-133.586054	8.983217
-130.934164	8.258741
-128.280844	-3.815385
-125.630443	-3.669930
-122.978614	-9.304895
-120.331874	-5.008392
-117.683706	-2.876923
-115.036280	-0.427972
-112.391769	2.531469
-109.745828	4.718881
-107.104969	7.346853
-104.462681	13.758042
-101.823302	12.068531
-99.182493	9.057343
-96.542425	6.160839
-93.907430	8.773427
-91.271005	8.864336
-88.637483	13.730070
-86.002533	20.394406
-83.372648	30.283916
-80.739171	39.303497
-78.110756	46.667133
-75.483075	53.759441
-72.853965	37.306294
-70.229912	-88.465734
-67.602270	-551.023776
-64.979681	-1326.050350
-62.357824	-1040.469930
-59.736697	1942.163636
-57.116301	6448.520280
-54.498792	10194.902098
-51.879855	12754.053147
-49.263803	14110.952448
-46.648480	14261.023776
-44.033885	13216.709091
-41.422171	10997.462937
-38.809029	7671.541259
-36.200921	3571.265734
-33.589231	-257.076923
-30.982572	-1998.334266
-28.374485	-1248.695105
-25.767122	-148.702098
-23.164784	39.240559
-20.558868	42.774825
-17.957974	39.262937
-15.355652	35.948252
-12.758347	29.121678
-10.157467	28.476923
-7.561602	20.889510
-4.964308	22.897902
-2.367734	20.130070
0.223831	21.400000
2.816824	17.911888
5.406956	16.503497
7.998515	16.918881
10.587216	18.651748
13.177343	18.983217
15.762471	26.735664
18.349027	25.065734
20.934869	34.034965
23.517857	31.619580
26.102271	31.043357
28.679557	23.124476
31.260409	19.497902
33.838412	17.269930
36.415705	15.317483
38.994424	17.405594
41.568161	16.820979
44.143326	20.727273
46.715647	26.664336
49.287260	28.362238
51.856033	31.296503
54.426233	31.163636
56.993594	31.846154
59.562382	31.061538
62.128333	32.976224
64.691449	35.723077
67.258121	39.921678
69.815572	54.029371
72.378708	73.102098
74.936884	106.072727
77.498615	160.216783
80.055389	254.159441
82.613589	395.005594
85.166837	584.127273
87.719387	806.601399
90.275487	1059.275524
92.826639	1320.840559
95.377094	1577.818182
97.926851	1807.297902
100.473789	1994.542657
103.020032	2126.513287
105.567700	2204.044755
108.114672	2234.864336
110.656709	2245.190210
113.198052	2243.468531
115.738702	2222.794406
118.280778	2196.966434
120.820042	2169.297902
123.356498	2146.008392
125.892262	2138.275524
128.429452	2133.953846
130.965951	2130.604196
133.499644	2124.583217
136.030533	2121.046154
138.560735	2114.165035
141.092361	2112.386014
143.621186	2118.244755
146.147212	2111.744056
148.672552	2114.776224
151.199317	2114.509091
153.723286	2116.054545
156.246570	2120.773427
158.769169	2125.907692
161.288975	2126.646154
163.808098	2128.994406
166.326538	2125.832168
168.846402	2127.528671
171.359265	2126.274126
173.875659	2125.027972
176.391371	2124.844755
178.902193	2134.837762
181.414440	2134.878322
183.923905	2127.820979
186.432690	2129.488112
188.940798	2139.836364
191.450330	2147.690909
193.954981	2164.071329
196.458956	2172.188811
198.964355	2183.619580
201.464879	2189.548252
203.968926	2198.019580
206.466003	2217.453147
208.966603	2232.471329
211.464431	2241.311888
213.961586	2247.562238
216.458068	2256.398601
218.949687	2271.179021
221.444826	2273.393007
223.937198	2281.244755
226.428900	2285.576224
228.917839	2287.577622
231.408201	2286.138462
233.895802	2299.848951
236.380643	2311.897902
238.868999	2319.853147
241.350415	2322.566434
243.835345	2327.253147
246.315430	2334.325874
248.799027	2347.219580
251.277781	2348.816783
253.757958	2355.510490
256.235384	2364.990210
258.712146	2394.179021
261.188244	2461.349650
263.661595	2588.558042
266.134283	2728.002797
268.606310	2851.405594
271.077676	2955.135664
273.546297	3013.443357
276.014260	3027.318881
278.483644	2993.088112
280.948206	2907.555245
283.416272	2797.019580
285.879518	2679.864336
288.342106	2585.655944
290.804038	2531.853147
293.265313	2522.211189
295.723854	2523.472727
298.183817	2525.946853
300.641047	2531.432168
303.097623	2526.363636
305.553545	2526.492308
308.006737	2524.374825
310.461352	2512.106294
312.911165	2519.327273
315.364474	2525.223776
317.812984	2523.141259
320.260844	2518.274126
322.710126	2524.860140
325.154614	2517.170629
327.600524	2516.158042
330.045784	2512.800000
332.488326	2509.900699
334.930220	2508.634965
337.371467	2503.939860
339.809998	2495.257343
342.249951	2505.257343
344.687190	2504.151049
347.121717	2498.549650
349.559732	2493.565035
351.992970	2490.534266
354.427629	2484.801399
356.857516	2496.545455
359.290888	2506.234965
361.719490	2508.227972
364.147450	2513.846154
366.576832	2518.920280
369.001448	2522.255944
371.427486	2537.137063
373.852883	2540.820979
376.277640	2542.902098
378.697639	2545.338462
381.119058	2547.437762
383.537782	2559.690909
385.957926	2575.590210
388.375375	2587.097902
390.794244	2582.612587
393.210420	2581.675524
395.621848	2583.885315
398.036753	2567.800000
400.448969	2562.300699
402.860550	2538.629371
405.271497	2528.239161
407.679758	2514.159441
410.087386	2496.293706
412.494382	2481.725874
414.900747	2464.068531
417.304429	2452.156643
419.707481	2430.639161
422.109903	2422.173427
424.511695	2412.114685
426.910809	2395.858741
429.311343	2402.572028
431.711248	2401.563636
434.106431	2415.300699
436.505080	2409.331469
438.899009	2396.132867
441.292311	2373.394406
443.684989	2337.745455
446.077041	2295.212587
448.470511	2232.229371
450.859269	2161.215385
453.245361	2082.229371
455.632873	1997.295105
458.019762	1930.149650
460.403987	1857.682517
462.789630	1787.945455
465.172612	1727.374825
467.552933	1673.172028
469.934673	1639.896503
472.313754	1615.560839
474.694254	1594.236364
477.072096	1577.900699
479.447282	1552.802797
481.821852	1534.290909
484.197839	1515.748252
486.571174	1511.015385
488.945926	1487.372028
491.315993	1467.337063
493.685444	1452.888112
496.056313	1435.447552
498.422501	1431.809790
500.790108	1421.046154
503.155070	1419.293706
505.519418	1412.145455
507.883153	1395.241958
510.248306	1394.160839
512.608787	1390.904895
514.970686	1380.629371
517.329944	1361.832168
519.686564	1357.641958
522.046630	1344.367832
524.400004	1330.766434
526.756823	1319.629371
529.111007	1311.261538
531.464582	1312.346853
533.817550	1304.341259
536.167885	1298.538462
538.519638	1299.937063
540.864714	1299.990210
543.215254	1301.109091
545.559120	1307.693706
547.908448	1307.727273
550.253127	1298.632168
552.595182	1284.307692
554.938654	1274.732867
557.279503	1272.882517
559.619750	1265.510490
561.957376	1254.032168
564.298437	1240.359441
566.634860	1239.302098
568.972700	1241.598601
571.307923	1238.612587
573.640530	1237.212587
575.974553	1223.618182
578.305962	1215.131469
580.636773	1200.282517
582.966987	1193.074126
585.296602	1188.458741
587.621594	1171.047552
589.952028	1164.632168
592.277841	1158.725874
594.601046	1161.662937
596.925668	1155.896503
599.247684	1149.492308
601.569106	1151.979021
603.887926	1153.577622
606.208161	1149.145455
608.527803	1143.348252
610.844844	1135.163636
613.161293	1127.510490
615.475144	1119.952448
617.790411	1122.193007
620.103081	1114.646154
622.417166	1108.016783
624.726651	1096.332867
627.037552	1089.998601
629.345860	1084.963636
631.653580	1076.520280
633.962714	1065.274126
636.267256	1056.486713
638.571212	1043.492308
640.874582	1035.002797
643.179366	1033.892308
645.479563	1031.061538
647.781176	1025.048951
650.082203	1021.296503
652.378649	1016.260140
654.676510	1014.264336
656.973787	1012.044755
659.270481	1011.144056
661.562599	1011.541259
663.858128	1014.229371
666.149083	1018.696503
668.441453	1010.507692
670.731248	1013.851748
673.020462	1016.247552
675.309097	1018.167832
677.595159	1019.367832
679.882636	1020.812587
682.167541	1022.057343
684.451869	1026.027972
686.733628	1034.981818
689.016801	1043.738462
691.299397	1062.074126
693.577437	1073.223776
695.856892	1063.816783
698.135770	1072.667133
700.414074	1082.160839
702.687828	1088.104895
704.962995	1087.885315
707.237589	1090.661538
709.509624	1086.549650
711.783072	1086.001399
714.053962	1088.239161
716.322296	1097.174825
718.592043	1105.471329
720.859236	1110.942657
723.125858	1115.669930
725.391910	1133.565035
727.655411	1144.395804
729.920325	1153.804196
732.184669	1162.911888
734.444484	1170.064336
736.705711	1169.311888
738.966371	1169.765035
741.224485	1164.676923
743.480054	1162.292308
745.739014	1153.531469
747.991475	1144.855944
750.249302	1141.520280
752.502611	1136.170629
754.753380	1124.707692
757.005561	1121.569231
759.255203	1120.504895
761.506258	1112.476923
763.752801	1106.132867
766.000756	1102.530070
768.246177	1092.646154
770.493009	1081.565035
772.739280	1076.538462
774.981046	1060.885315
777.226196	1052.495105
779.464873	1040.260140
781.706932	1032.928671
783.944493	1024.219580
786.183466	1020.527273
788.419912	1008.710490
790.657769	1005.000000
792.893101	1009.181818
795.125910	1011.093706
797.360130	1010.162238
799.591827	1013.271329
801.822970	1001.931469
804.053558	992.644755
806.283592	983.839161
808.513072	985.160839
810.738070	981.576224
812.966443	985.840559
815.190336	982.386014
817.415641	988.858741
819.636470	997.443357
821.860671	1011.931469
824.080399	1022.051748
826.301537	1027.555245
828.522125	1024.351049
830.740204	1026.288112
832.959692	1023.833566
835.174714	1028.551049
837.389188	1029.356643
839.603115	1026.418182
841.816495	1018.380420
844.029327	1013.170629
846.241613	1007.475524
848.451396	1014.124476
850.660634	1011.307692
852.869327	1009.622378
855.075520	1005.890909
857.283124	1010.917483
859.488229	1002.735664
861.692791	1005.902098
863.894858	1005.818182
866.098334	995.569231
868.299316	995.798601
870.499756	993.731469
872.701605	988.963636
874.897063	990.949650
877.095880	985.037762
879.290258	992.690909
881.487994	998.034965
883.681294	1004.430769
885.876003	1010.338462
888.068226	1016.762238
890.259910	1019.647552
892.451057	1025.594406
894.639721	1041.362238
896.827849	1046.551049
899.013496	1057.345455
901.202495	1074.979021
903.387071	1088.023776
905.571112	1109.591608
907.758503	1133.334266
909.937590	1154.393007
912.120028	1174.190210
914.301932	1194.759441
916.481361	1217.560839
918.658318	1238.244755
920.836683	1250.359441
923.016455	1262.984615
925.189878	1280.590210
927.366647	1295.401399
929.539009	1297.233566
931.712779	1301.676923
933.882145	1316.027972
936.054855	1317.688112
938.225100	1315.127273
940.394815	1329.055944
942.564003	1344.370629
944.728793	1355.064336
946.896924	1363.647552
949.060660	1386.563636
951.225804	1408.952448
953.388488	1426.960839
955.550647	1438.383217
957.710349	1447.419580
959.869526	1464.075524
962.030110	1475.935664
964.188239	1482.530070
966.345845	1495.096503
968.502927	1505.406993
970.659485	1515.413986
972.811664	1528.345455
974.965250	1546.883916
977.118314	1557.409790
979.268929	1565.149650
981.420951	1576.861538
983.568599	1585.921678
985.719579	1602.958042
987.866188	1620.735664
990.012278	1623.420979
992.157850	1636.000000
994.304827	1648.983217
996.445515	1671.257343
998.589533	1690.632168
1000.731110	1697.689510
1002.872171	1704.051748
1005.014636	1710.009790
1007.150821	1725.271329
1009.290333	1733.959441
1011.425490	1739.941259
1013.563971	1735.248951
1015.698098	1735.446154
1017.831712	1735.246154
1019.966731	1728.026573
1022.097400	1720.116084
1024.229474	1704.538462
1026.359119	1682.506294
1028.488252	1661.306294
1030.616873	1638.893706
1032.744983	1625.981818
1034.870667	1610.213986
1036.995841	1594.808392
1039.122419	1583.110490
1041.244659	1576.572028
1043.368304	1561.211189
1045.487614	1542.204196
1047.612153	1525.608392
1049.730448	1515.720280
1051.850147	1502.548252
1053.967427	1477.120280
1056.084200	1463.274126
1058.200468	1447.310490
1060.314319	1435.928671
1062.429575	1426.155245
1064.540507	1418.447552
1066.654752	1408.836364
1068.764676	1403.499301
1070.876004	1396.850350
1072.986827	1398.570629
1075.093334	1397.411189
1077.203150	1395.285315
1079.308653	1385.928671
1081.415558	1384.872727
1083.516248	1373.025175
1085.622150	1362.237762
1087.723743	1350.439161
1089.826739	1342.037762
1091.929234	1336.844755
1094.025522	1329.124476
1096.127017	1321.297902
1098.224210	1309.455944
1100.320905	1308.765035
1102.417101	1304.805594
1104.512800	1299.763636
1106.608000	1298.068531
1108.700804	1294.758042
1110.795011	1296.413986
1112.883025	1300.608392
1114.976239	1311.641958
1117.063264	1320.492308
1119.153588	1323.128671
1121.239624	1318.465734
1123.328959	1314.458741
1125.412112	1317.562238
1127.496667	1306.111888
1129.582624	1309.960839
1131.664299	1312.041958
1133.747376	1314.467133
1135.828066	1319.453147
1137.908266	1317.969231
1139.987974	1316.734266
1142.067191	1317.220979
1144.144026	1315.132867
1146.218479	1308.530070
1148.296225	1307.055944
1150.369701	1306.970629
1152.444577	1301.425175
1154.515186	1309.991608
1156.587196	1306.962238
1158.656831	1310.069930
1160.727865	1312.023776
1162.798413	1304.858741
1164.864699	1296.488112
1166.932386	1300.236364
1168.997701	1297.061538
1171.064416	1292.232168
1173.126875	1291.194406
1175.192619	1293.057343
1177.254109	1287.060140
1179.317000	1286.819580
1181.377523	1287.026573
1183.437562	1291.983217
1185.497118	1296.959441
1187.554310	1295.882517
1189.611020	1295.195804
1191.665366	1297.916084
1193.722994	1297.344056
1195.778259	1297.588811
1197.829283	1305.808392
1199.881707	1309.690909
1201.933651	1310.437762
1203.983237	1323.156643
1206.032344	1337.200000
1208.080973	1346.551049
1210.129122	1357.149650
1212.176794	1371.538462
1214.220235	1372.324476
1216.266952	1372.530070
1218.311315	1375.876923
1220.355202	1383.819580
1222.396737	1392.602797
1224.435923	1399.846154
1226.478382	1412.006993
1228.516618	1435.809790
1230.556253	1463.858741
1232.595413	1491.200000
1234.630354	1514.509091
1236.666694	1548.702098
1238.700690	1562.802797
1240.736083	1591.360839
1242.767264	1617.197203
1244.799842	1648.811189
1246.831949	1677.720280
1248.861715	1710.509091
1250.892878	1760.416783
1252.919835	1813.248951
1254.948189	1874.892308
1256.972338	1930.000000
1258.999753	1989.008392
1261.022965	2053.503497
1263.047575	2114.166434
1265.069851	2187.469930
1267.093524	2255.752448
1269.114863	2335.630769
1271.135736	2418.300699
1273.156141	2497.000000
1275.172353	2589.622378
1277.189962	2660.731469
1279.205243	2730.572028
1281.223783	2786.675524
1283.238134	2842.779021
1285.250158	2875.397203
1287.265441	2903.827972
1289.276538	2914.103497
1291.289032	2916.299301
1293.297343	2898.372028
1295.308909	2866.787413
1297.314437	2821.279720
1299.323220	2763.875524
1301.327825	2689.806993
1303.335684	2611.324476
1305.343081	2523.120280
1307.344447	2446.489510
1309.347209	2366.391608
1311.349512	2284.896503
1313.351355	2203.254545
1315.352738	2130.991608
1317.351808	2060.531469
1319.350419	1996.524476
1321.348572	1938.355245
1323.346266	1891.128671
1325.339798	1844.619580
1327.334725	1797.732867
1329.329196	1748.405594
1331.323210	1709.377622
1333.314917	1673.752448
1335.306168	1626.276923
1337.295114	1590.082517
1339.285456	1558.593007
1341.275342	1531.464336
1343.262924	1501.888112
1345.250053	1484.239161
1347.234880	1473.240559
1349.221102	1455.619580
1351.205023	1433.688112
1353.188492	1414.781818
1355.171509	1402.124476
1357.152228	1387.718881
1359.134341	1372.419580
1361.114158	1364.048951
1363.093523	1355.514685
1365.068750	1348.241958
1367.047215	1346.503497
1369.023387	1345.798601
1370.999110	1343.051748
1372.974383	1335.123077
1374.947365	1328.871329
1376.919899	1328.209790
1378.891985	1323.797203
1380.863624	1318.525874
1382.831134	1319.381818
1384.803718	1315.097902
1386.768496	1310.967832
1388.738347	1304.255944
1390.704074	1299.629371
1392.671193	1293.963636
1394.636029	1292.012587
1396.596745	1289.004196
1398.562529	1287.149650
1400.522358	1284.813986
1402.483581	1281.395804
1404.446195	1279.146853
1406.404695	1273.783217
1408.362753	1270.723077
1410.320369	1270.170629
1412.277542	1268.622378
1414.232440	1270.514685
1416.188731	1273.296503
1418.142747	1276.100699
1420.096322	1272.128671
1422.047625	1271.758042
1424.000321	1270.241958
1425.950744	1266.325874
1427.900729	1257.420979
1429.850275	1257.707692
1431.797552	1260.932867
1433.742561	1258.944056
1435.688963	1260.374825
1437.634927	1267.836364
1439.580454	1275.002797
1441.523715	1283.027972
1443.466541	1289.159441
1445.407103	1297.153846
1447.349056	1298.953846
1449.288747	1301.818182
1451.228004	1301.288112
1453.166825	1309.257343
1455.103387	1303.935664
1457.041340	1300.797203
1458.977034	1295.299301
1460.912295	1307.555245
1462.845299	1311.258741
1464.777872	1321.662937
1466.710012	1333.142657
1468.641720	1340.458741
1470.571174	1353.928671
1472.502019	1368.258741
1474.432432	1375.653147
1476.358773	1393.479720
1478.286504	1407.304895
1480.211986	1425.875524
1482.137038	1435.868531
1484.061661	1458.643357
1485.985854	1472.478322
1487.907801	1500.158042
1489.831138	1519.313287
1491.752228	1551.644755
1493.671074	1588.565035
1495.591310	1628.514685
1497.509303	1674.170629
1499.426869	1741.986014
1501.342193	1807.969231
1503.258907	1868.510490
1505.171566	1917.697902
1507.087429	1973.193007
1509.001052	2031.604196
1510.912437	2093.576224
1512.825212	2147.004196
1514.733937	2205.819580
1516.644051	2254.005594
1518.553742	2307.485315
1520.463010	2353.541259
1522.370044	2394.492308
1524.274845	2415.180420
1526.181035	2419.597203
1528.084993	2404.513287
1529.988530	2379.843357
1531.891647	2345.254545
1533.792534	2310.110490
1535.694810	2269.274126
1537.594858	2221.949650
1539.496293	2187.118881
1541.393695	2155.674126
1543.290678	2123.717483
1545.187243	2093.462937
1547.085196	2071.264336
1548.977313	2054.819580
1550.872625	2029.348252
1552.767519	2002.271329
1554.660191	1973.176224
1556.552446	1950.202797
1558.442482	1920.779021
1560.332102	1882.661538
1562.221307	1843.534266
1564.110097	1796.032168
1565.996669	1748.990210
1567.884629	1700.569231
1569.768572	1650.608392
1571.653902	1600.977622
1573.538819	1552.104895
1575.421522	1501.716084
1577.305612	1452.588811
1579.185690	1408.643357
1581.067156	1368.384615
1582.946411	1326.871329
1584.827052	1293.107692
1586.701889	1272.969231
1588.581707	1256.667133
1590.457521	1248.085315
1592.332924	1232.257343
1594.209713	1219.951049
1596.080706	1201.528671
1597.954880	1184.967832
1599.825055	1161.690909
1601.698411	1141.702098
1603.569564	1126.142657
1605.438516	1105.268531
1607.308852	1093.993007
1609.175196	1091.523077
1611.042925	1080.601399
1612.908455	1074.872727
1614.775371	1069.169231
1616.638298	1064.418182
1618.502610	1055.815385
1620.364726	1052.965035
1622.226437	1043.518881
1624.089534	1039.601399
1625.950435	1030.363636
1627.809144	1022.572028
1629.667449	1015.924476
1631.527138	1011.208392
1633.381061	1004.443357
1635.238157	1001.830769
1637.094849	995.938462
1638.947566	994.787413
1640.803454	993.437762
1642.655368	994.471329
1644.506881	992.702098
1646.357993	994.874126
1648.208705	990.486713
1650.059015	988.142657
1651.907142	978.829371
1653.756653	977.683916
1655.600414	982.365035
1657.449126	979.860140
1659.292091	974.579021
1661.138223	978.295105
1662.980392	980.499301
1664.825727	982.360839
1666.665321	982.081119
1668.506299	986.727273
1670.348660	982.784615
1672.187065	980.258741
1674.026853	976.455944
1675.864465	978.131469
1677.701683	978.262937
1679.536727	968.597203
1681.373154	967.173427
1683.207409	963.806993
1685.041269	959.987413
1686.874735	958.081119
1688.704256	956.387413
1690.536935	952.345455
1692.365670	949.605594
1694.197562	944.085315
1696.025512	935.475524
1697.853071	934.990210
1699.680237	930.808392
1701.507012	931.786014
1703.333395	937.679720
1705.155842	932.932867
1706.981444	931.990210
1708.803111	938.965035
1710.626160	938.616783
1712.447047	932.914685
1714.267546	929.197203
1716.089425	919.186014
1717.905606	917.800000
1719.724938	925.320280
1721.540342	931.234965
1723.358898	941.648951
1725.173528	935.960839
1726.987771	930.209790
1728.801628	932.734266
1730.615098	935.520280
1732.426415	932.391608
1734.239112	929.500699
1736.051424	925.868531
1737.859817	915.730070
1739.669592	923.321678
1741.475452	923.688112
1743.284457	922.118881
1745.089549	919.826573
1746.896022	912.302098
1748.702111	912.730070
1750.504289	922.330070
1752.309612	924.735664
1754.111026	933.054545
1755.913820	934.786014
1757.712708	935.738462
1759.512977	932.572028
1761.312864	938.958042
1763.110609	932.625175
1764.907974	934.511888
1766.704959	928.190210
1768.501563	923.057343
1770.296028	925.104895
1772.091872	928.945455
1773.882061	920.518881
1775.677147	922.510490
1777.466581	919.362238
1779.259151	913.046154
1781.049586	910.092308
1782.837887	913.079720
1784.629323	917.141259
1786.415113	925.486713
1788.202283	919.986014
1789.987321	923.138462
1791.775493	931.660140
1793.559779	934.179021
1795.341935	933.665734
1797.125471	935.727273
1798.906878	934.973427
1800.689664	925.716084
1802.468569	924.390210
1804.248853	921.808392
1806.027012	916.316084
1807.806549	914.127273
1809.583961	911.730070
1811.359249	916.332867
1813.135915	923.955245
1814.910459	925.693706
1816.686381	929.234965
1818.456682	931.086713
1820.230111	931.510490
1822.001420	926.587413
1823.772358	926.339860
1825.544674	925.562238
1827.311376	917.973427
1829.081203	917.734266
1830.847167	916.717483
1832.616255	915.104895
1834.381481	915.376224
1836.146339	910.693706
1837.912574	912.060140
1839.674950	911.191608
1841.436959	910.381818
1843.198600	909.651748
1844.959875	908.002797
1846.720782	906.685315
1848.481323	893.302098
1850.239754	896.525874
1851.997819	895.767832
1853.753777	895.311888
1855.511111	900.151049
1857.268080	900.524476
1859.022942	902.808392
1860.775700	905.486713
1862.528093	901.923077
1864.281863	898.969231
1866.033529	893.907692
1867.783093	889.576224
1869.534032	882.555245
1871.284609	889.660140
1873.031346	894.924476
1874.779460	898.820979
1876.525474	907.138462
1878.272863	904.713287
1880.018155	901.709091
1881.761349	899.401399
1883.505918	890.994406
1885.248391	887.836364
1886.990505	888.826573
1888.732258	887.948252
1890.473651	887.629371
1892.212951	891.219580
1893.951892	892.060140
1895.690474	894.313287
1897.426965	898.627972
1899.163098	896.128671
1900.900605	900.524476
1902.634290	903.174825
1904.369350	908.861538
1906.102321	912.269930
1907.834936	921.075524
1909.567195	923.197203
1911.299097	921.525874
1913.028913	918.805594
1914.756644	914.198601
1916.485750	907.274126
1918.214500	906.925874
1919.941168	907.513287
1921.667481	909.986014
1923.395167	911.786014
1925.117317	919.037762
1926.842568	916.633566
1928.564012	921.391608
1930.288557	922.184615
1932.011021	923.544056
1933.729683	925.331469
1935.451443	927.064336
1937.169401	922.917483
1938.888732	928.258741
1940.604264	930.951049
1942.324616	934.215385
1944.041170	937.058741
1945.753927	939.881119
1947.469780	938.955245
1949.183561	938.844755
1950.896992	935.204196
1952.608352	939.974825
1954.321084	941.700699
1956.030026	942.767832
1957.742060	943.762238
1959.448585	943.437762
1961.158203	945.696503
1962.865754	943.153846
1964.572956	940.342657
1966.278093	940.932867
1967.982884	936.995804
1969.689046	927.907692
1971.391426	926.443357
1973.095177	929.434965
1974.796866	930.816783
1976.498210	934.839161
1978.199208	935.883916
1979.898145	936.541259
1981.598454	934.036364
1983.294987	933.862937
1984.992893	933.433566
1986.688739	936.344056
1988.387671	937.174825
1990.081117	938.290909
1991.775934	940.900699
1993.470409	938.868531
1995.161115	943.169231
1996.854905	941.534266
1998.544928	939.574825
2000.236322	938.584615
2001.925663	936.700699
2003.616374	938.267133
2005.303322	930.443357
2006.989931	932.075524
2008.677909	929.208392
2010.362128	928.037762
2012.047718	923.297902
2013.732968	917.012587
2015.416169	915.606993
2017.100741	904.237762
2018.779849	905.661538
2020.463744	909.222378
2022.142177	909.160839
2023.823688	911.044755
2025.501447	908.660140
2027.178870	909.247552
2028.857662	909.261538
2030.534412	914.302098
2032.209120	921.446154
2033.885197	918.405594
2035.559233	906.202797
2037.232935	900.166434
2038.906301	903.829371
2040.577628	904.279720
2042.248621	900.393007
2043.919280	901.001399
2045.589605	894.418182
2047.259596	893.492308
2048.927551	896.128671
2050.595173	901.165035
2052.260760	905.345455
2053.927716	904.860140
2055.592639	901.588811
2057.257230	909.577622
2058.919789	916.805594
2060.583716	920.179021
2062.245612	923.418182
2063.907178	922.158042
2065.568412	919.632168
2067.227618	924.899301
2068.886493	925.765035
2070.545039	922.096503
2072.203254	922.823776
2073.857747	925.927273
2075.515304	923.485315
2077.172531	922.699301
2078.826038	925.619580
2080.480912	924.706294
2082.132067	920.020979
2083.786285	919.794406
2085.436785	913.890909
2087.088653	916.874126
2088.735112	917.662937
2090.386326	918.344056
2092.033826	925.850350
2093.682693	923.827972
2095.329541	928.848951
2096.976064	929.352448
2098.622261	929.023776
2100.264750	928.517483
2101.910297	928.619580
2103.552137	932.142657
2105.197034	930.348252
2106.838225	930.043357
2108.479094	932.260140
2110.119638	935.822378
2111.758170	936.213986
2113.398068	927.809790
2115.034266	925.672727
2116.671830	920.332867
2118.309072	910.692308
2119.944304	900.366434
2121.579214	899.027972
2123.213803	897.374825
2124.848071	900.276923
2126.478645	909.047552
2128.112271	916.341259
2129.742205	918.762238
2131.373504	920.406993
2133.002798	922.186014
2134.631773	925.626573
2136.260428	931.208392
2137.888764	922.338462
2139.515098	912.655944
2141.141113	907.976224
2142.765126	904.065734
2144.390505	903.885315
2146.013883	907.802797
2147.638626	899.647552
2149.259688	897.615385
2150.880433	896.292308
2152.502543	899.440559
2154.122655	901.109091
2155.740770	904.104895
2157.358570	907.839161
2158.976055	908.893706
2160.593224	911.574825
2162.210078	915.142657
2163.826616	919.962238
2165.441162	922.075524
2167.053715	917.960839
2168.667632	914.509091
2170.279558	908.025175
2171.892847	908.693706
2173.504146	906.946853
2175.113455	904.241958
2176.724128	903.679720
2178.332812	897.745455
2179.941183	905.153846
2181.547568	909.741259
2183.155315	913.548252
2184.761077	914.439161
2186.366527	912.422378
2187.969992	909.349650
2189.574820	909.323077
2191.177664	913.911888
2192.778525	905.584615
2194.380749	903.623776
2195.980991	900.345455
2197.582595	895.400000
2199.180546	900.609790
2200.779860	900.518881
2202.377194	900.834965
2203.974220	913.074126
2205.572608	919.723077
2207.167347	923.623776
2208.760109	926.300699
2210.354234	934.486713
2211.949720	927.400000
2213.541561	929.697902
2215.133096	923.023776
2216.725993	914.191608
2218.313580	907.405594
2219.905863	902.089510
2221.492840	898.639161
2223.082844	903.405594
2224.667544	900.618182
2226.256938	900.053147
2227.841030	901.057343
2229.426482	904.360839
2231.009966	898.562238
2232.596475	897.718881
2234.179351	899.920280
2235.761924	899.318881
2237.344193	895.544056
2238.922832	896.927273
2240.504496	887.170629
2242.082531	885.036364
2243.663589	882.806993
2245.241020	880.888112
2246.816488	884.506294
2248.394978	883.356643
2249.969844	888.237762
2251.544409	892.815385
2253.118673	901.327273
2254.692638	903.791608
2256.266301	904.461538
2257.839665	904.365035
2259.409410	894.190210
2260.978856	890.917483
2262.551320	889.774825
2264.118510	888.342657
2265.688718	884.425175
2267.255311	881.230769
2268.823264	884.149650
2270.389261	887.558042
2271.954961	902.806993
2273.520363	924.090909
2275.083812	951.639161
2276.648620	977.283916
2278.209820	993.219580
2279.774034	1003.195804
2281.332986	1000.848951
2282.894952	992.187413
2284.454968	971.142657
2286.014689	952.139860
2287.572460	930.230769
2289.129936	912.651748
2290.687118	898.572028
2292.242352	897.304895
2293.797293	902.558042
2295.351939	900.479720
2296.906292	899.476923
2298.460351	898.565035
2300.014117	886.349650
2301.565938	888.159441
2303.115817	890.640559
2304.668703	893.660140
2306.216346	901.097902
2307.766998	902.949650
2309.314058	899.079720
2310.862476	903.239161
2312.410603	902.958042
2313.955141	898.640559
2315.501037	906.479720
2317.044995	909.120280
2318.590309	902.965035
2320.132040	912.016783
2321.675127	917.909091
2323.216278	918.041958
2324.757140	921.254545
2326.297713	918.546853
2327.837997	912.448951
2329.377992	913.883916
2330.914409	913.738462
2332.453827	908.030769
2333.989667	907.005594
2335.526865	908.756643
2337.060487	909.353846
2338.597109	910.671329
2340.131801	906.723077
2341.664563	907.700699
2343.197038	907.906294
2344.727585	912.307692
2346.261130	914.408392
2347.789464	924.647552
2349.319154	928.034965
2350.848559	928.090909
2352.377679	928.229371
2353.906513	929.018182
2355.430143	924.928671
2356.958408	921.260140
2358.481471	920.412587
2360.009167	920.577622
2361.530024	918.381818
2363.055513	920.904895
2364.577443	921.379021
2366.100727	927.723077
2367.622091	935.806993
2369.141535	942.267133
2370.662334	944.374825
2372.181214	944.355245
2373.699813	944.620979
2375.216494	951.990210
2376.734529	949.159441
2378.252283	950.262937
2379.766485	948.125874
2381.280408	941.559441
2382.794050	937.959441
2384.309047	933.955245
2385.820495	936.127273
2387.333298	931.840559
2388.844187	924.974825
2390.354798	916.581818
2391.863497	915.601399
2393.375182	917.337063
2394.883324	912.288112
2396.391188	916.250350
2397.898774	916.958042
2399.402819	917.160839
2400.909849	918.636364
2402.414971	920.755245
2403.919816	924.391608
2405.422754	919.995804
2406.925416	910.099301
2408.427801	904.794406
2409.928281	904.339860
2411.430114	898.183217
2412.930042	888.683916
2414.429695	887.791608
2415.929073	884.566434
2417.426548	887.103497
2418.922121	892.523077
2420.420674	900.469930
2421.915699	903.310490
2423.412076	904.053147
2424.904927	898.544056
2426.399131	896.833566
2427.893061	895.711888
2429.383467	896.006993
2430.876851	891.092308
2432.368337	897.153846
2433.857926	894.318881
2435.347243	906.786014
2436.834664	917.093706
2438.325061	922.029371
2439.811940	920.857343
2441.300170	920.784615
2442.784883	907.882517
2444.269327	905.248951
2445.755121	897.934266
2447.239024	896.462937
2448.724277	896.867133
2450.204397	903.718881
2451.687490	901.965035
2453.168692	913.714685
2454.649625	920.064336
2456.128669	922.986014
2457.607444	924.303497
2459.085951	927.454545
2460.564190	915.857343
2462.042160	913.002797
2463.516625	902.485315
2464.994060	897.110490
2466.467991	893.965035
2467.943272	898.453147
2469.418286	898.871329
2470.889799	906.397203
2472.362663	908.026573
2473.833644	910.455944
2475.305975	913.909091
2476.773192	916.009790
2478.243376	912.606993
2479.711679	914.674126
2481.179717	910.040559
2482.647490	906.065734
2484.114998	906.156643
2485.582241	905.995804
2487.045992	906.756643
2488.511093	910.261538
2489.974317	905.338462
2491.438890	905.928671
2492.899975	906.415385
2494.362409	909.330070
2495.824580	913.430769
2497.283265	917.979021
2498.746521	920.741259
2500.204682	927.303497
2501.664191	927.472727
2503.118606	925.465734
2504.577592	930.815385
2506.034706	932.204196
2507.489948	920.960839
2508.944930	912.748252
2510.398043	912.861538
2511.852504	911.756643
2513.305095	912.827972
2514.757427	916.290909
2516.207892	923.720280
2517.661312	933.212587
2519.109650	939.222378
2520.560943	946.377622
2522.010371	949.532867
2523.456326	948.482517
2524.905236	933.600000
2526.350676	927.559441
2527.797463	929.457343
2529.242387	924.502098
2530.687054	924.306294
2532.133068	925.756643
2533.575616	927.667133
2535.019511	933.299301
2536.459941	936.541259
2537.901718	939.563636
2539.341636	945.307692
2540.782901	947.349650
2542.220704	945.888112
2543.661457	948.618182
2545.097148	955.106294
2546.535788	957.886713
2547.972570	959.208392
2549.407497	965.667133
2550.845371	965.535664
2552.278188	969.841958
2553.712352	974.465734
2555.144662	982.565035
2556.578318	990.836364
2558.010121	991.955245
2559.441670	987.786014
2560.872967	990.397203
2562.302411	997.675524
2563.731603	993.581818
2565.158945	994.837762
2566.587632	999.514685
2568.016068	996.569231
2569.441056	1003.047552
2570.867391	1004.019580
2572.291877	1009.760839
2573.717709	1008.187413
2575.140097	1010.058741
2576.563831	1012.646154
2577.985718	1019.918881
2579.407356	1021.759441
2580.827148	1023.703497
2582.248286	1031.478322
2583.669174	1033.314685
2585.086623	1039.780420
2586.507013	1050.317483
2587.923965	1046.043357
2589.340668	1051.639161
2590.757123	1052.216783
2592.173330	1062.309091
2593.589289	1075.675524
2595.003407	1088.289510
2596.417277	1095.755245
2597.829309	1104.766434
2599.242684	1113.882517
2600.652630	1123.128671
2602.065512	1136.770629
2603.474965	1141.808392
2604.884172	1128.552448
2606.291543	1128.941259
2607.701848	1121.892308
2609.110318	1129.282517
2610.516952	1136.623776
2611.923341	1142.130070
2613.327896	1145.579021
2614.733795	1152.678322
2616.137861	1166.362238
2617.541682	1173.341259
2618.945259	1182.904895
2620.347005	1183.200000
2621.750094	1179.082517
2623.149765	1177.620979
2624.550780	1171.790210
2625.948379	1170.032168
2627.348907	1166.486713
2628.746021	1164.423776
2630.144478	1166.916084
2631.541108	1167.288112
2632.937495	1170.600000
2634.333640	1168.206993
2635.727959	1173.373427
2637.123621	1171.151049
2638.515874	1166.724476
2639.909469	1155.976224
2641.301240	1141.825175
2642.694354	1123.209790
2644.085644	1112.646154
2645.475111	1101.633566
2646.864338	1091.633566
2648.253326	1086.574825
2649.643655	1087.216783
2651.029001	1088.976224
2652.417270	1090.759441
2653.803719	1086.493706
2655.189929	1083.188811
2656.575900	1074.931469
2657.958473	1063.693706
2659.342388	1051.681119
2660.726065	1040.802797
2662.109503	1032.276923
2663.489546	1025.541259
2664.870931	1020.444755
2666.250501	1014.037762
2667.631411	1002.734266
2669.010507	995.773427
2670.387789	985.398601
2671.766412	983.686713
2673.143222	975.202797
2674.519795	969.486713
2675.896133	965.370629
2677.270660	963.500699
2678.646527	960.352448
2680.019007	962.973427
2681.394403	959.075524
2682.764839	952.732867
2684.136616	946.702098
2685.508158	942.813986
2686.877892	932.752448
2688.248967	931.868531
2689.618233	924.826573
2690.987266	917.809790
2692.354493	909.524476
2693.721486	901.225175
2695.088247	890.281119
2696.454776	891.917483
2697.819499	889.717483
2699.183990	891.991608
2700.548250	892.727273
2701.912277	892.306294
2703.276073	893.752448
2704.636495	902.395804
2705.999827	905.100699
2707.358217	903.380420
2708.719517	896.358042
2710.077447	887.317483
2711.438285	883.539860
2712.797324	884.011189
2714.152994	873.906294
2715.511572	873.050350
2716.866783	865.604196
2718.221765	868.906294
2719.574950	869.373427
2720.931042	867.890909
2722.283770	865.439161
2723.636270	868.205594
2724.988541	863.107692
2726.342150	860.387413
2727.692399	868.146853
2729.040853	865.503497
2730.392212	855.233566
2731.740213	858.342657
2733.089551	855.102098
2734.437097	861.970629
2735.784417	851.928671
2737.131510	841.681119
2738.476812	838.755245
2739.821887	835.993007
2741.166737	824.311888
2742.511361	824.103497
2743.852633	824.162238
2745.195243	819.269930
2746.537627	820.495105
2747.879786	830.504895
2749.218596	837.938462
2750.560306	847.951049
2751.898667	844.030769
2753.238366	841.704895
2754.576280	839.128671
2755.912409	834.945455
2757.248314	827.590210
2758.585557	832.183217
2759.921016	834.601399
2761.256252	829.669930
2762.589705	828.755245
2763.924495	834.448951
2765.255945	839.005594
2766.590290	844.548252
2767.919737	845.591608
2769.250520	842.318881
2770.581083	836.212587
2771.909866	840.439161
2773.239985	837.104895
2774.568326	842.969231
2775.896446	842.337063
2777.222788	834.353846
2778.550467	828.141259
2779.874812	834.393007
2781.200494	830.827972
2782.524400	830.303497
2783.848086	829.254545
2785.173109	824.000000
2786.494801	818.795804
2787.816275	815.723077
2789.137530	814.636364
2790.458566	819.363636
2791.777829	814.581818
2793.098428	815.095105
2794.417256	813.737063
2795.735865	817.622378
2797.052703	814.469930
2798.369324	814.538462
2799.685728	823.411189
2801.000362	826.464336
2802.316332	821.786014
2803.628981	821.648951
2804.942965	832.825175
2806.256733	830.809790
2807.570284	828.211189
2808.882069	829.071329
2810.192087	827.683916
2811.503440	826.506294
2812.811478	827.676923
2814.120850	831.241958
2815.430008	837.081119
2816.738950	835.117483
2818.046128	829.006993
2819.351544	833.843357
2820.658293	836.107692
2821.963281	834.651748
2823.268054	837.823776
2824.571067	837.641958
2825.876960	835.647552
2827.177999	829.271329
2828.480372	830.867133
2829.780985	834.386014
2831.082932	838.988811
2832.384665	841.088112
2833.683095	834.373427
2834.982858	828.279720
2836.280864	826.471329
2837.578658	827.499301
2838.874696	823.728671
2840.172067	819.100699
2841.467682	810.525874
2842.763086	806.100699
2844.058279	814.657343
2845.350175	817.980420
2846.644947	823.316084
2847.936422	821.355245
2849.229230	817.358042
2850.521828	816.190210
2851.811132	824.496503
2853.101768	822.457343
2854.390653	820.549650
2855.680870	818.804196
2856.967796	823.567832
2858.256054	828.022378
2859.542563	833.478322
2860.828863	829.944056
2862.114956	832.058741
2863.399300	837.976224
2864.686515	842.696503
2865.968904	843.643357
2867.252625	844.765035
2868.534600	838.763636
2869.816367	839.469930
2871.096390	841.216783
2872.379282	846.271329
2873.660429	848.044755
2874.938294	846.290909
2876.219028	837.458741
2877.496481	833.868531
2878.773728	828.233566
2880.049233	816.121678
2881.327606	804.850350
2882.601165	800.648951
2883.877591	793.798601
2885.152276	793.802797
2886.425220	799.030769
2887.699496	814.068531
2888.972032	823.551049
2890.244363	823.928671
2891.513422	822.573427
2892.785346	824.127273
2894.055532	821.464336
2895.325514	813.570629
2896.595293	808.976224
2897.863336	800.046154
2899.129642	791.209790
2900.395747	786.876923
2901.663181	788.837762
2902.928880	792.658741
2904.194378	784.731469
2905.459673	779.000000
2906.721703	776.709091
2907.985063	776.121678
2909.248222	776.170629
2910.509649	777.141259
2911.772405	781.620979
2913.033429	779.530070
2914.292723	784.152448
2915.551817	783.558042
2916.810710	786.976224
2918.069403	781.033566
2919.327896	776.717483
2920.584660	768.636364
2921.841224	764.290909
2923.096061	758.260140
2924.352226	758.390210
2925.605137	760.837762
2926.859377	765.269930
2928.113417	758.897902
2929.365732	755.988811
2930.617849	750.714685
2931.868241	744.363636
2933.121488	738.991608
2934.369958	735.186014
2935.621283	730.406993
2936.869358	728.057343
2938.117237	723.650350
2939.364918	728.634965
2940.612402	733.553846
2941.858165	737.201399
2943.103732	735.222378
2944.350626	730.167832
2945.594276	725.615385
2946.839254	722.720280
2948.080988	723.247552
2949.325574	714.647552
2950.568441	716.344056
2951.808067	712.579021
2953.050543	712.316084
2954.289779	714.053147
2955.530343	717.960839
2956.769190	722.720280
2958.007843	728.075524
2959.244780	722.234965
2960.483045	726.153846
2961.719594	721.179021
2962.955950	716.875524
2964.192112	715.502098
2965.426560	717.355245
2966.660816	711.030769
2967.894878	709.827972
2969.127227	700.627972
2970.357866	701.850350
2971.591350	702.521678
2972.823122	708.963636
2974.053184	704.765035
2975.283053	712.490909
2976.511213	706.464336
2977.740700	712.293706
2978.968477	719.130070
2980.196063	720.405594
2981.424975	715.977622
2982.649146	720.695105
2983.876159	713.461538
2985.099948	713.430769
2986.325064	704.620979
2987.548473	705.283916
2988.771692	700.362238
2989.993206	702.054545
2991.217561	697.588811
2992.437181	703.019580
2993.658127	705.416783
2994.878884	703.675524
2996.097937	702.427972
2997.318315	710.020979
2998.535477	701.711888
2999.753965	698.532867
3000.970750	684.651748
3002.187348	686.225175
3003.403757	690.186014
3004.616953	693.532867
3005.832988	694.697902
3007.045810	697.783217
3008.261469	698.402797
3009.472405	697.183217
3010.684666	698.314685
3011.896741	697.057343
3013.108628	693.097902
3014.318819	688.900699
3015.528823	681.391608
3016.738641	684.425175
3017.946763	689.114685
3019.154700	686.009790
3020.360941	680.586014
3021.568507	674.314685
3022.774378	671.309091
3023.980065	667.290909
3025.185566	665.973427
3026.389374	668.953846
3027.594506	671.879720
3028.797945	670.525874
3029.999693	674.395804
3031.201256	680.630769
3032.402636	684.855944
3033.603832	685.951049
3034.803338	681.331469
3036.002661	681.393007
3037.203307	686.632168
3038.402263	685.187413
3039.598025	679.489510
3040.796616	674.187413
3041.992013	667.848951
3043.188733	669.837762
3044.382261	666.707692
3045.578617	663.974825
3046.773286	663.415385
3047.964765	663.398601
3049.160576	658.520280
3050.351692	663.510490
3051.544132	667.128671
3052.733384	663.071329
3053.925461	654.853147
3055.115855	653.341259
3056.303063	655.311888
3057.491593	660.211189
3058.681446	658.948252
3059.868115	660.559441
3061.054603	668.544056
3062.240913	672.544056
3063.428544	671.615385
3064.612993	674.830769
3065.795763	673.531469
3066.981355	670.518881
3068.165268	658.667133
3069.347502	655.359441
3070.529557	650.064336
3071.711434	647.758042
3072.893133	643.980420
3074.073155	644.823776
3075.251500	645.980420
3076.432665	647.878322
3077.610655	647.976224
3078.788468	651.573427
3079.966104	648.022378
3081.142066	647.008392
3082.317850	636.156643
3083.494956	645.306294
3084.670387	649.995804
3085.844145	651.413986
3087.016230	650.453147
3088.189637	654.011189
3089.362867	649.738462
3090.534426	655.409790
3091.707305	658.439161
3092.877017	659.061538
3094.048050	657.111888
3095.217413	652.391608
3096.385105	650.362238
3097.555613	659.279720
3098.721463	658.500699
3099.891621	647.826573
3101.057123	643.103497
3102.222450	632.324476
3103.387604	624.509091
3104.552585	626.914685
3105.718885	628.286713
3106.880533	630.974825
3108.043500	630.118881
3109.206295	624.689510
3110.368917	628.791608
3111.529873	629.488112
3112.690658	626.830769
3113.851270	620.324476
3115.010218	613.462937
3116.168995	608.457343
3117.327599	609.857343
3118.486032	613.878322
3119.644294	613.332867
3120.800893	617.173427
3121.955831	617.524476
3123.112088	616.664336
3124.266684	617.790210
3125.421110	620.321678
3126.573876	615.647552
3127.726471	611.556643
3128.878897	607.135664
3130.031153	607.876923
3131.183238	603.374825
3132.332177	604.360839
3133.483924	600.127273
3134.634012	599.987413
3135.782444	599.819580
3136.930706	595.359441
3138.078800	600.104895
3139.226725	604.664336
3140.372994	609.127273
3141.519095	617.938462
3142.663542	624.682517
3143.807821	632.598601
3144.951932	639.227972
3146.097360	645.759441
3147.239650	640.899301
3148.381773	633.760839
3149.523728	629.246154
3150.665516	619.461538
3151.807137	618.490909
3152.945623	612.713287
3154.085426	618.744056
3155.226546	620.846154
3156.364533	625.955245
3157.500870	630.868531
3158.637041	632.580420
3159.774529	628.655944
3160.910369	621.654545
3162.047526	617.160839
3163.180070	610.830769
3164.316896	603.738462
3165.449110	603.675524
3166.582641	604.279720
3167.716008	606.090909
3168.846247	599.937063
3169.979284	598.984615
3171.109195	591.117483
3172.240422	586.057343
3173.368525	579.054545
3174.499424	575.883916
3175.628679	576.605594
3176.756291	573.247552
3177.880780	575.907692
3179.009545	576.829371
3180.135188	582.051748
3181.260669	579.720280
3182.384507	579.930070
3183.511141	582.537063
3184.633177	578.562238
3185.756529	574.791608
3186.879719	574.142657
3188.002746	576.823776
3189.124135	580.286713
3190.245361	579.323077
3191.364950	580.916084
3192.484377	586.408392
3193.602166	600.386014
3194.722747	600.302098
3195.840215	603.959441
3196.957522	600.914685
3198.074669	597.923077
3199.190179	591.868531
3200.307005	586.826573
3201.420721	577.465734
3202.537226	576.713287
3203.652097	569.060140
3204.763858	566.878322
3205.875461	572.455944
3206.988379	578.058741
3208.101137	566.420979
3209.210789	564.944056
3210.321756	563.390210
3211.432564	569.545455
3212.541740	576.197203
3213.649285	572.170629
3214.758145	571.692308
3215.866847	585.486713
3216.972446	585.909091
3218.079359	595.906294
3219.184643	599.067133
3220.291241	602.520280
3221.394739	598.005594
3222.499552	599.549650
3223.604206	597.497902
3224.705763	597.239161
3225.807163	584.636364
3226.909877	573.025175
3228.012435	563.285315
3229.111896	562.152448
3230.214141	551.751049
3231.313290	548.054545
3232.410815	542.812587
3233.508184	548.676923
3234.608335	551.625175
3235.705394	556.300699
3236.802297	558.556643
3237.899045	559.724476
3238.991235	559.917483
3240.087673	562.714685
3241.182489	557.268531
3242.277151	561.865734
3243.370191	560.965035
3244.463076	563.767832
3245.554341	563.730070
3246.646919	562.609790
3247.737877	557.881119
3248.827215	551.853147
3249.916400	546.829371
3251.006898	546.558042
3252.094311	547.716084
3253.181571	540.197203
3254.270144	540.239161
3255.358564	550.460140
3256.442438	551.826573
3257.530553	550.913287
3258.615586	545.307692
3259.699004	547.011189
3260.783734	549.230769
3261.866848	550.433566
3262.951275	551.706294
3264.032623	558.072727
3265.115283	559.527273
3266.196329	556.937063
3267.277224	553.282517
3268.356505	554.220979
3269.435636	547.237762
3270.516079	537.682517
3271.593447	532.306294
3272.672127	539.772028
3273.749195	539.749650
3274.826114	542.429371
3275.901421	546.682517
3276.976579	551.232168
3278.053048	552.998601
3279.126447	551.321678
3280.199696	544.860140
3281.274257	547.830769
3282.347209	537.932867
3283.418552	529.874126
3284.491206	531.962238
3285.560794	537.160839
3286.631692	531.802797
3287.700983	532.384615
3288.771585	536.176224
3289.840580	538.418182
3290.907969	545.864336
3291.973753	548.393007
3293.043763	555.841958
3294.110710	563.595804
3295.174595	556.169231
3296.241247	556.362238
3297.306296	558.318881
3298.369741	558.247552
3299.433040	549.324476
3300.496192	545.128671
3301.559198	543.995804
3302.622058	545.653147
3303.683316	550.660140
3304.741517	552.951049
3305.803938	557.500699
3306.863304	556.841958
3307.922524	548.444755
3308.983053	542.955245
3310.039074	534.032168
3311.097858	531.967832
3312.152135	523.711888
3313.209176	516.882517
3314.264618	514.713287
3315.321370	518.086713
3316.376523	523.834965
3317.430079	527.209790
3318.482039	532.805594
3319.536760	535.497902
3320.588432	533.853147
3321.639961	539.234965
3322.692798	534.355245
3323.742588	539.641958
3324.793687	535.569231
3325.841740	537.924476
3326.892552	540.160839
3327.940320	545.247552
3328.987944	551.696503
3330.035427	557.128671
3331.081317	553.969231
3332.128515	541.478322
3333.172671	544.317483
3334.219585	552.822378
3335.264907	548.420979
3336.307188	552.233566
3337.349329	546.211189
3338.392777	550.848951
3339.436084	551.439161
3340.477802	552.419580
3341.519378	555.647552
3342.560813	548.218182
3343.600660	539.281119
3344.638918	530.495105
3345.678484	541.151049
3346.717910	545.527273
3347.755748	545.120280
3348.791999	542.854545
3349.828111	537.486713
3350.865530	539.103497
3351.899916	533.251748
3352.935609	526.015385
3353.971163	521.751049
3355.003686	516.174825
3356.038962	515.465734
3357.071207	513.346853
3358.103314	519.977622
3359.133837	524.586014
3360.165667	531.850350
3361.197359	531.839161
3362.226023	534.011189
3363.254550	532.335664
3364.284383	527.198601
3365.314079	523.874126
3366.340749	523.356643
3367.368725	528.348252
3368.393678	529.716084
3369.421380	530.026573
3370.446059	528.233566
3371.472044	529.251748
3372.496449	528.200000
3373.520718	519.721678
3374.543408	518.567832
3375.565962	514.806993
3376.589822	513.327273
3377.610662	513.791608
3378.631366	520.333666
3379.653377	525.430020
3380.672369	527.027173
3381.691225	523.071628
3382.711388	511.509890
3383.728534	490.288462
