-165.528079	8.200000
-162.858479	-8.800000
-160.191814	9.400000
-157.525901	34.000000
-154.862921	26.800000
-152.198510	15.200000
-149.537030	11.800000
-146.874121	21.000000
-144.216318	47.400000
-141.557086	11.800000
-138.898602	16.200000
-136.243043	-7.200000
-133.586054	19.800000
-130.934164	-1.600000
-128.280844	29.600000
-125.630443	40.600000
-122.978614	37.200000
-120.331874	-9.000000
-117.683706	46.000000
-115.036280	36.800000
-112.391769	13.400000
-109.745828	22.800000
-107.104969	34.400000
-104.462681	8.800000
-101.823302	38.400000
-99.182493	-0.600000
-96.542425	27.800000
-93.907430	17.400000
-91.271005	-3.600000
-88.637483	9.400000
-86.002533	22.000000
-83.372648	74.800000
-80.739171	7.400000
-78.110756	50.200000
-75.483075	57.800000
-72.853965	79.800000
-70.229912	85.400000
-67.602270	134.000000
-64.979681	137.800000
-62.357824	176.600000
-59.736697	362.000000
-57.116301	820.800000
-54.498792	2921.400000
-51.879855	10042.000000
-49.263803	24720.200000
-46.648480	28081.400000
-44.033885	16997.000000
-41.422171	2282.200000
-38.809029	251.600000
-36.200921	132.200000
-33.589231	64.800000
-30.982572	59.200000
-28.374485	46.400000
-25.767122	47.200000
-23.164784	96.200000
-20.558868	53.000000
-17.957974	73.200000
-15.355652	21.200000
-12.758347	32.200000
-10.157467	5.000000
-7.561602	44.200000
-4.964308	28.400000
-2.367734	34.600000
0.223831	13.800000
2.816824	36.600000
5.406956	1.600000
7.998515	11.600000
10.587216	24.400000
13.177343	4.800000
15.762471	39.600000
18.349027	53.200000
20.934869	53.600000
23.517857	40.000000
26.102271	36.000000
28.679557	30.400000
31.260409	41.200000
33.838412	15.200000
36.415705	9.000000
38.994424	43.000000
41.568161	9.400000
44.143326	19.400000
46.715647	-0.200000
49.287260	56.000000
51.856033	49.400000
54.426233	36.600000
56.993594	64.800000
59.562382	27.200000
62.128333	35.400000
64.691449	42.000000
67.258121	43.000000
69.815572	46.600000
72.378708	83.600000
74.936884	102.200000
77.498615	156.800000
80.055389	267.000000
82.613589	357.200000
85.166837	510.200000
87.719387	730.400000
90.275487	1087.800000
92.826639	1403.400000
95.377094	1665.200000
97.926851	1862.200000
100.473789	2097.000000
103.020032	2180.400000
105.567700	2284.000000
108.114672	2336.400000
110.656709	2220.200000
113.198052	2210.800000
115.738702	2215.200000
118.280778	2247.200000
120.820042	2199.400000
123.356498	2263.800000
125.892262	2213.800000
128.429452	2154.800000
130.965951	2179.000000
133.499644	2177.400000
136.030533	2209.600000
138.560735	2187.400000
141.092361	2134.800000
143.621186	2151.000000
146.147212	2079.600000
148.672552	2193.600000
151.199317	2172.600000
153.723286	2142.400000
156.246570	2159.000000
158.769169	2122.000000
161.288975	2172.000000
163.808098	2161.800000
166.326538	2143.600000
168.846402	2152.800000
171.359265	2141.000000
173.875659	2198.600000
176.391371	2176.800000
178.902193	2129.400000
181.414440	2132.000000
183.923905	2185.400000
186.432690	2228.600000
188.940798	2205.600000
191.450330	2253.400000
193.954981	2211.200000
196.458956	2258.400000
198.964355	2293.400000
201.464879	2231.200000
203.968926	2258.000000
206.466003	2281.800000
208.966603	2279.600000
211.464431	2326.400000
213.961586	2287.400000
216.458068	2315.400000
218.949687	2272.800000
221.444826	2318.600000
223.937198	2335.600000
226.428900	2351.800000
228.917839	2344.600000
231.408201	2275.000000
233.895802	2354.800000
236.380643	2311.600000
238.868999	2408.600000
241.350415	2355.800000
243.835345	2366.000000
246.315430	2345.800000
248.799027	2401.000000
251.277781	2375.400000
253.757958	2378.000000
256.235384	2471.800000
258.712146	2443.200000
261.188244	2494.200000
263.661595	2506.000000
266.134283	2610.600000
268.606310	2766.400000
271.077676	3067.600000
273.546297	3298.000000
276.014260	3354.600000
278.483644	3087.000000
280.948206	2838.000000
283.416272	2667.200000
285.879518	2611.600000
288.342106	2635.800000
290.804038	2574.000000
293.265313	2593.200000
295.723854	2545.600000
298.183817	2502.400000
300.641047	2544.600000
303.097623	2584.000000
305.553545	2595.200000
308.006737	2538.200000
310.461352	2614.200000
312.911165	2573.800000
315.364474	2587.200000
317.812984	2566.200000
320.260844	2538.000000
322.710126	2541.400000
325.154614	2610.600000
327.600524	2562.600000
330.045784	2577.200000
332.488326	2521.000000
334.930220	2557.400000
337.371467	2533.800000
339.809998	2566.800000
342.249951	2518.200000
344.687190	2527.000000
347.121717	2562.000000
349.559732	2568.000000
351.992970	2544.000000
354.427629	2565.600000
356.857516	2530.000000
359.290888	2562.200000
361.719490	2607.600000
364.147450	2545.600000
366.576832	2594.600000
369.001448	2563.600000
371.427486	2573.600000
373.852883	2556.400000
376.277640	2615.400000
378.697639	2507.000000
381.119058	2579.400000
383.537782	2551.600000
385.957926	2595.600000
388.375375	2631.000000
390.794244	2598.200000
393.210420	2610.400000
395.621848	2599.600000
398.036753	2631.000000
400.448969	2560.000000
402.860550	2537.600000
405.271497	2606.200000
407.679758	2569.400000
410.087386	2556.800000
412.494382	2528.000000
414.900747	2479.200000
417.304429	2481.000000
419.707481	2458.400000
422.109903	2443.400000
424.511695	2454.400000
426.910809	2376.400000
429.311343	2460.200000
431.711248	2406.400000
434.106431	2467.000000
436.505080	2464.800000
438.899009	2481.800000
441.292311	2444.200000
443.684989	2385.800000
446.077041	2323.800000
448.470511	2303.800000
450.859269	2174.200000
453.245361	2120.400000
455.632873	2071.000000
458.019762	2002.000000
460.403987	1921.600000
462.789630	1842.000000
465.172612	1778.400000
467.552933	1771.000000
469.934673	1716.800000
472.313754	1612.800000
474.694254	1618.800000
477.072096	1635.800000
479.447282	1557.000000
481.821852	1604.000000
484.197839	1552.200000
486.571174	1557.800000
488.945926	1496.000000
491.315993	1486.600000
493.685444	1467.000000
496.056313	1548.200000
498.422501	1459.400000
500.790108	1423.200000
503.155070	1463.400000
505.519418	1445.400000
507.883153	1440.200000
510.248306	1397.400000
512.608787	1408.600000
514.970686	1427.400000
517.329944	1370.200000
519.686564	1399.400000
522.046630	1407.400000
524.400004	1373.600000
526.756823	1371.200000
529.111007	1367.800000
531.464582	1349.600000
533.817550	1358.400000
536.167885	1327.800000
538.519638	1366.800000
540.864714	1323.400000
543.215254	1324.000000
545.559120	1345.400000
547.908448	1312.200000
550.253127	1325.400000
552.595182	1359.000000
554.938654	1369.400000
557.279503	1326.800000
559.619750	1300.000000
561.957376	1306.400000
564.298437	1285.400000
566.634860	1288.400000
568.972700	1318.600000
571.307923	1238.000000
573.640530	1252.600000
575.974553	1279.400000
578.305962	1284.800000
580.636773	1269.200000
582.966987	1206.200000
585.296602	1234.400000
587.621594	1231.800000
589.952028	1267.600000
592.277841	1173.600000
594.601046	1236.600000
596.925668	1224.000000
599.247684	1191.600000
601.569106	1234.800000
603.887926	1152.000000
606.208161	1199.800000
608.527803	1182.200000
610.844844	1177.600000
613.161293	1145.800000
615.475144	1139.600000
617.790411	1167.200000
620.103081	1128.800000
622.417166	1124.200000
624.726651	1194.800000
627.037552	1156.000000
629.345860	1163.000000
631.653580	1096.600000
633.962714	1075.800000
636.267256	1133.600000
638.571212	1086.800000
640.874582	1079.000000
643.179366	1073.800000
645.479563	1096.400000
647.781176	1072.200000
650.082203	1090.400000
652.378649	1085.200000
654.676510	1091.600000
656.973787	1087.200000
659.270481	1020.600000
661.562599	1057.400000
663.858128	1036.400000
666.149083	1077.200000
668.441453	1040.000000
670.731248	1038.400000
673.020462	1041.400000
675.309097	1066.200000
677.595159	1055.200000
679.882636	1057.000000
682.167541	1083.000000
684.451869	1070.000000
686.733628	1054.200000
689.016801	1088.800000
691.299397	1116.800000
693.577437	1099.600000
695.856892	1125.200000
698.135770	1143.400000
700.414074	1144.600000
702.687828	1093.000000
704.962995	1104.200000
707.237589	1125.400000
709.509624	1163.000000
711.783072	1152.000000
714.053962	1100.000000
716.322296	1136.800000
718.592043	1125.000000
720.859236	1151.800000
723.125858	1155.400000
725.391910	1192.000000
727.655411	1188.400000
729.920325	1175.000000
732.184669	1196.000000
734.444484	1215.000000
736.705711	1174.800000
738.966371	1258.400000
741.224485	1205.200000
743.480054	1194.800000
745.739014	1178.000000
747.991475	1159.200000
750.249302	1160.600000
752.502611	1182.400000
754.753380	1117.200000
757.005561	1203.400000
759.255203	1161.600000
761.506258	1196.000000
763.752801	1165.800000
766.000756	1156.000000
768.246177	1163.000000
770.493009	1117.600000
772.739280	1156.200000
774.981046	1119.600000
777.226196	1122.200000
779.464873	1087.000000
781.706932	1073.600000
783.944493	1070.800000
786.183466	1061.800000
788.419912	1063.800000
790.657769	1067.800000
792.893101	1069.000000
795.125910	1092.400000
797.360130	1041.800000
799.591827	1065.000000
801.822970	1031.800000
804.053558	1069.200000
806.283592	1051.800000
808.513072	1045.200000
810.738070	1007.000000
812.966443	1001.200000
815.190336	1069.400000
817.415641	1055.400000
819.636470	1079.600000
821.860671	1040.600000
824.080399	1056.000000
826.301537	1059.800000
828.522125	1054.600000
830.740204	1087.200000
832.959692	1092.400000
835.174714	1070.000000
837.389188	1076.800000
839.603115	1035.400000
841.816495	1061.400000
844.029327	1056.600000
846.241613	1071.000000
848.451396	1042.800000
850.660634	1046.000000
852.869327	1047.800000
855.075520	1058.200000
857.283124	1035.000000
859.488229	1046.800000
861.692791	1044.200000
863.894858	1056.400000
866.098334	1034.400000
868.299316	1046.200000
870.499756	1007.200000
872.701605	1085.200000
874.897063	975.400000
877.095880	1029.400000
879.290258	1048.000000
881.487994	1043.600000
883.681294	1051.400000
885.876003	1067.800000
888.068226	1060.600000
890.259910	1089.200000
892.451057	1084.600000
894.639721	1095.800000
896.827849	1077.400000
899.013496	1077.200000
901.202495	1161.200000
903.387071	1096.000000
905.571112	1149.000000
907.758503	1158.000000
909.937590	1170.000000
912.120028	1218.400000
914.301932	1206.800000
916.481361	1229.800000
918.658318	1292.800000
920.836683	1284.200000
923.016455	1311.600000
925.189878	1341.600000
927.366647	1367.200000
929.539009	1312.400000
931.712779	1352.400000
933.882145	1333.200000
936.054855	1369.000000
938.225100	1383.200000
940.394815	1374.800000
942.564003	1430.200000
944.728793	1405.800000
946.896924	1474.400000
949.060660	1456.600000
951.225804	1465.200000
953.388488	1491.800000
955.550647	1496.200000
957.710349	1504.000000
959.869526	1491.600000
962.030110	1470.800000
964.188239	1493.200000
966.345845	1544.800000
968.502927	1587.600000
970.659485	1561.400000
972.811664	1602.600000
974.965250	1531.000000
977.118314	1598.600000
979.268929	1628.000000
981.420951	1614.600000
983.568599	1608.200000
985.719579	1657.000000
987.866188	1649.600000
990.012278	1678.200000
992.157850	1722.600000
994.304827	1701.800000
996.445515	1732.000000
998.589533	1726.000000
1000.731110	1723.400000
1002.872171	1774.200000
1005.014636	1802.000000
1007.150821	1778.000000
1009.290333	1741.400000
1011.425490	1770.200000
1013.563971	1797.600000
1015.698098	1776.200000
1017.831712	1781.400000
1019.966731	1764.800000
1022.097400	1805.800000
1024.229474	1752.600000
1026.359119	1773.000000
1028.488252	1764.600000
1030.616873	1710.000000
1032.744983	1716.800000
1034.870667	1700.600000
1036.995841	1657.000000
1039.122419	1679.600000
1041.244659	1608.400000
1043.368304	1612.600000
1045.487614	1603.200000
1047.612153	1603.600000
1049.730448	1550.000000
1051.850147	1541.600000
1053.967427	1554.400000
1056.084200	1532.800000
1058.200468	1544.000000
1060.314319	1512.000000
1062.429575	1516.200000
1064.540507	1473.600000
1066.654752	1475.800000
1068.764676	1466.800000
1070.876004	1433.400000
1072.986827	1467.800000
1075.093334	1448.600000
1077.203150	1450.200000
1079.308653	1419.600000
1081.415558	1466.000000
1083.516248	1436.400000
1085.622150	1428.400000
1087.723743	1414.400000
1089.826739	1386.400000
1091.929234	1386.200000
1094.025522	1410.000000
1096.127017	1394.400000
1098.224210	1366.400000
1100.320905	1375.400000
1102.417101	1402.400000
1104.512800	1368.200000
1106.608000	1368.000000
1108.700804	1370.800000
1110.795011	1387.200000
1112.883025	1311.600000
1114.976239	1377.400000
1117.063264	1391.600000
1119.153588	1389.600000
1121.239624	1412.400000
1123.328959	1394.400000
1125.412112	1346.400000
1127.496667	1397.000000
1129.582624	1368.400000
1131.664299	1394.400000
1133.747376	1342.600000
1135.828066	1353.200000
1137.908266	1398.000000
1139.987974	1397.600000
1142.067191	1353.000000
1144.144026	1417.800000
1146.218479	1347.600000
1148.296225	1307.200000
1150.369701	1367.600000
1152.444577	1339.000000
1154.515186	1340.200000
1156.587196	1374.200000
1158.656831	1343.000000
1160.727865	1375.400000
1162.798413	1352.200000
1164.864699	1361.600000
1166.932386	1367.600000
1168.997701	1409.200000
1171.064416	1344.600000
1173.126875	1354.600000
1175.192619	1333.000000
1177.254109	1384.800000
1179.317000	1324.600000
1181.377523	1370.000000
1183.437562	1347.800000
1185.497118	1354.600000
1187.554310	1384.800000
1189.611020	1373.400000
1191.665366	1342.600000
1193.722994	1388.600000
1195.778259	1398.800000
1197.829283	1358.600000
1199.881707	1413.200000
1201.933651	1416.200000
1203.983237	1421.400000
1206.032344	1423.200000
1208.080973	1422.200000
1210.129122	1391.800000
1212.176794	1439.200000
1214.220235	1496.200000
1216.266952	1425.600000
1218.311315	1514.200000
1220.355202	1476.000000
1222.396737	1506.600000
1224.435923	1420.200000
1226.478382	1533.400000
1228.516618	1596.400000
1230.556253	1615.600000
1232.595413	1647.000000
1234.630354	1648.800000
1236.666694	1693.000000
1238.700690	1711.000000
1240.736083	1723.600000
1242.767264	1761.600000
1244.799842	1808.000000
1246.831949	1907.400000
1248.861715	1915.000000
1250.892878	1944.000000
1252.919835	2038.600000
1254.948189	2093.200000
1256.972338	2189.800000
1258.999753	2220.000000
1261.022965	2355.600000
1263.047575	2424.600000
1265.069851	2470.800000
1267.093524	2574.200000
1269.114863	2587.800000
1271.135736	2718.200000
1273.156141	2796.000000
1275.172353	2891.800000
1277.189962	2962.200000
1279.205243	3021.600000
1281.223783	3086.800000
1283.238134	3136.400000
1285.250158	3149.800000
1287.265441	3163.000000
1289.276538	3129.600000
1291.289032	3052.600000
1293.297343	3078.000000
1295.308909	2954.000000
1297.314437	2939.000000
1299.323220	2835.000000
1301.327825	2811.200000
1303.335684	2690.200000
1305.343081	2623.400000
1307.344447	2532.000000
1309.347209	2479.800000
1311.349512	2339.000000
1313.351355	2217.400000
1315.352738	2164.200000
1317.351808	2126.800000
1319.350419	2067.200000
1321.348572	1998.600000
1323.346266	1932.800000
1325.339798	1866.800000
1327.334725	1816.200000
1329.329196	1808.400000
1331.323210	1779.800000
1333.314917	1729.000000
1335.306168	1646.400000
1337.295114	1620.800000
1339.285456	1609.200000
1341.275342	1609.400000
1343.262924	1544.200000
1345.250053	1562.600000
1347.234880	1512.000000
1349.221102	1537.400000
1351.205023	1520.400000
1353.188492	1477.000000
1355.171509	1488.000000
1357.152228	1471.200000
1359.134341	1459.200000
1361.114158	1366.000000
1363.093523	1466.600000
1365.068750	1443.400000
1367.047215	1406.800000
1369.023387	1455.000000
1370.999110	1380.400000
1372.974383	1369.000000
1374.947365	1379.000000
1376.919899	1427.000000
1378.891985	1391.200000
1380.863624	1409.200000
1382.831134	1387.800000
1384.803718	1345.600000
1386.768496	1389.800000
1388.738347	1369.600000
1390.704074	1326.200000
1392.671193	1361.800000
1394.636029	1364.200000
1396.596745	1347.200000
1398.562529	1327.000000
1400.522358	1355.400000
1402.483581	1348.600000
1404.446195	1354.600000
1406.404695	1330.200000
1408.362753	1347.200000
1410.320369	1314.000000
1412.277542	1347.000000
1414.232440	1339.800000
1416.188731	1343.200000
1418.142747	1312.400000
1420.096322	1344.800000
1422.047625	1384.200000
1424.000321	1344.400000
1425.950744	1381.200000
1427.900729	1308.200000
1429.850275	1343.800000
1431.797552	1336.000000
1433.742561	1353.800000
1435.688963	1348.200000
1437.634927	1325.800000
1439.580454	1342.400000
1441.523715	1342.000000
1443.466541	1343.800000
1445.407103	1381.000000
1447.349056	1355.800000
1449.288747	1336.000000
1451.228004	1387.200000
1453.166825	1366.200000
1455.103387	1371.400000
1457.041340	1434.600000
1458.977034	1375.000000
1460.912295	1417.800000
1462.845299	1426.800000
1464.777872	1422.200000
1466.710012	1417.400000
1468.641720	1454.000000
1470.571174	1478.200000
1472.502019	1448.200000
1474.432432	1425.400000
1476.358773	1463.200000
1478.286504	1507.000000
1480.211986	1531.000000
1482.137038	1539.600000
1484.061661	1609.400000
1485.985854	1611.400000
1487.907801	1650.600000
1489.831138	1628.400000
1491.752228	1705.400000
1493.671074	1782.000000
1495.591310	1822.800000
1497.509303	1860.000000
1499.426869	1901.000000
1501.342193	2005.000000
1503.258907	2048.000000
1505.171566	2152.800000
1507.087429	2288.000000
1509.001052	2311.000000
1510.912437	2337.200000
1512.825212	2342.200000
1514.733937	2470.000000
1516.644051	2484.000000
1518.553742	2570.600000
1520.463010	2635.000000
1522.370044	2590.000000
1524.274845	2591.400000
1526.181035	2586.800000
1528.084993	2599.000000
1529.988530	2497.000000
1531.891647	2515.200000
1533.792534	2443.200000
1535.694810	2353.200000
1537.594858	2360.000000
1539.496293	2341.600000
1541.393695	2308.600000
1543.290678	2210.400000
1545.187243	2183.600000
1547.085196	2141.200000
1548.977313	2163.000000
1550.872625	2043.600000
1552.767519	2107.200000
1554.660191	2020.800000
1556.552446	1988.200000
1558.442482	1973.400000
1560.332102	1954.400000
1562.221307	1891.200000
1564.110097	1817.200000
1565.996669	1835.800000
1567.884629	1678.600000
1569.768572	1672.000000
1571.653902	1630.000000
1573.538819	1607.800000
1575.421522	1530.200000
1577.305612	1455.600000
1579.185690	1415.600000
1581.067156	1438.200000
1582.946411	1345.400000
1584.827052	1365.800000
1586.701889	1276.000000
1588.581707	1329.200000
1590.457521	1280.200000
1592.332924	1286.600000
1594.209713	1275.600000
1596.080706	1228.000000
1597.954880	1249.000000
1599.825055	1241.600000
1601.698411	1195.600000
1603.569564	1176.800000
1605.438516	1218.600000
1607.308852	1186.400000
1609.175196	1175.400000
1611.042925	1141.000000
1612.908455	1083.400000
1614.775371	1133.400000
1616.638298	1158.600000
1618.502610	1091.800000
1620.364726	1123.000000
1622.226437	1075.800000
1624.089534	1108.600000
1625.950435	1073.600000
1627.809144	1083.800000
1629.667449	1071.200000
1631.527138	1076.800000
1633.381061	1053.600000
1635.238157	1070.400000
1637.094849	1077.600000
1638.947566	1031.200000
1640.803454	1078.200000
1642.655368	1093.600000
1644.506881	1084.000000
1646.357993	1043.000000
1648.208705	1058.600000
1650.059015	1083.000000
1651.907142	1060.600000
1653.756653	1072.200000
1655.600414	1077.400000
1657.449126	1041.200000
1659.292091	1031.000000
1661.138223	1043.200000
1662.980392	1049.400000
1664.825727	1061.600000
1666.665321	1038.000000
1668.506299	1067.200000
1670.348660	1038.400000
1672.187065	1012.800000
1674.026853	1036.400000
1675.864465	1014.000000
1677.701683	1052.600000
1679.536727	1018.000000
1681.373154	1038.800000
1683.207409	1009.600000
1685.041269	1031.000000
1686.874735	998.800000
1688.704256	956.000000
1690.536935	1078.200000
1692.365670	1063.400000
1694.197562	1034.800000
1696.025512	1025.800000
1697.853071	1026.200000
1699.680237	1013.000000
1701.507012	1030.200000
1703.333395	986.400000
1705.155842	1040.600000
1706.981444	1016.200000
1708.803111	971.000000
1710.626160	1006.200000
1712.447047	963.600000
1714.267546	983.800000
1716.089425	1002.000000
1717.905606	970.800000
1719.724938	986.800000
1721.540342	996.600000
1723.358898	1012.200000
1725.173528	1053.200000
1726.987771	968.400000
1728.801628	1025.400000
1730.615098	1009.200000
1732.426415	988.800000
1734.239112	967.600000
1736.051424	1016.200000
1737.859817	964.000000
1739.669592	977.600000
1741.475452	959.200000
1743.284457	1002.800000
1745.089549	1018.800000
1746.896022	969.400000
1748.702111	1008.600000
1750.504289	975.400000
1752.309612	1010.200000
1754.111026	969.000000
1755.913820	1009.000000
1757.712708	998.600000
1759.512977	1034.200000
1761.312864	967.600000
1763.110609	1013.400000
1764.907974	983.400000
1766.704959	993.000000
1768.501563	987.800000
1770.296028	1008.000000
1772.091872	1003.400000
1773.882061	971.400000
1775.677147	975.200000
1777.466581	1009.200000
1779.259151	1010.600000
1781.049586	970.200000
1782.837887	962.600000
1784.629323	990.000000
1786.415113	989.200000
1788.202283	951.000000
1789.987321	1024.800000
1791.775493	980.800000
1793.559779	976.200000
1795.341935	979.200000
1797.125471	985.800000
1798.906878	988.800000
1800.689664	995.600000
1802.468569	988.000000
1804.248853	1011.000000
1806.027012	999.400000
1807.806549	984.600000
1809.583961	971.400000
1811.359249	986.200000
1813.135915	1038.400000
1814.910459	997.000000
1816.686381	1008.200000
1818.456682	1017.000000
1820.230111	977.800000
1822.001420	982.000000
1823.772358	999.800000
1825.544674	1014.400000
1827.311376	1008.800000
1829.081203	1005.000000
1830.847167	994.000000
1832.616255	1018.200000
1834.381481	1002.000000
1836.146339	974.800000
1837.912574	1004.200000
1839.674950	998.200000
1841.436959	971.800000
1843.198600	996.400000
1844.959875	1014.200000
1846.720782	982.800000
1848.481323	1001.600000
1850.239754	993.400000
1851.997819	949.400000
1853.753777	957.800000
1855.511111	983.600000
1857.268080	958.000000
1859.022942	1019.600000
1860.775700	978.800000
1862.528093	986.800000
1864.281863	966.000000
1866.033529	1008.400000
1867.783093	971.800000
1869.534032	930.000000
1871.284609	967.200000
1873.031346	932.600000
1874.779460	952.200000
1876.525474	974.800000
1878.272863	1000.000000
1880.018155	935.400000
1881.761349	975.200000
1883.505918	1001.200000
1885.248391	949.200000
1886.990505	937.600000
1888.732258	1006.600000
1890.473651	991.800000
1892.212951	1006.000000
1893.951892	985.400000
1895.690474	947.600000
1897.426965	956.600000
1899.163098	971.500000
1900.900605	986.400000
1902.634290	973.400000
1904.369350	1019.600000
1906.102321	987.200000
1907.834936	974.400000
1909.567195	1010.600000
1911.299097	1028.000000
1913.028913	1012.000000
1914.756644	1010.000000
1916.485750	983.600000
1918.214500	994.800000
1919.941168	990.200000
1921.667481	993.200000
1923.395167	1010.800000
1925.117317	977.600000
1926.842568	988.800000
1928.564012	966.200000
1930.288557	1004.200000
1932.011021	1016.800000
1933.729683	984.800000
1935.451443	964.200000
1937.169401	964.600000
1938.888732	1022.000000
1940.604264	967.000000
1942.324616	969.400000
1944.041170	998.600000
1945.753927	977.800000
1947.469780	1000.400000
1949.183561	1032.400000
1950.896992	1000.200000
1952.608352	989.800000
1954.321084	994.200000
1956.030026	1020.000000
1957.742060	1015.600000
1959.448585	1029.600000
1961.158203	982.600000
1962.865754	1001.400000
1964.572956	1026.600000
1966.278093	1009.800000
1967.982884	1019.600000
1969.689046	1002.000000
1971.391426	981.600000
1973.095177	999.600000
1974.796866	1042.400000
1976.498210	1006.400000
1978.199208	1030.200000
1979.898145	1038.800000
1981.598454	1033.600000
1983.294987	1016.000000
1984.992893	1051.200000
1986.688739	996.200000
1988.387671	1037.800000
1990.081117	1004.200000
1991.775934	1028.800000
1993.470409	1020.600000
1995.161115	1058.800000
1996.854905	994.200000
1998.544928	1018.800000
2000.236322	1007.400000
2001.925663	1004.800000
2003.616374	1005.200000
2005.303322	974.400000
2006.989931	1022.600000
2008.677909	959.200000
2010.362128	1011.600000
2012.047718	988.600000
2013.732968	987.600000
2015.416169	1022.000000
2017.100741	990.000000
2018.779849	963.000000
2020.463744	967.400000
2022.142177	1007.800000
2023.823688	983.800000
2025.501447	962.800000
2027.178870	998.600000
2028.857662	989.600000
2030.534412	938.800000
2032.209120	990.400000
2033.885197	1008.600000
2035.559233	964.000000
2037.232935	1005.800000
2038.906301	1020.000000
2040.577628	1005.200000
2042.248621	968.800000
2043.919280	976.600000
2045.589605	1017.400000
2047.259596	1002.000000
2048.927551	938.200000
2050.595173	1002.400000
2052.260760	943.800000
2053.927716	998.600000
2055.592639	973.600000
2057.257230	999.400000
2058.919789	1014.800000
2060.583716	1016.400000
2062.245612	1008.000000
2063.907178	1066.400000
2065.568412	1030.000000
2067.227618	992.000000
2068.886493	1008.800000
2070.545039	991.000000
2072.203254	996.600000
2073.857747	999.400000
2075.515304	970.800000
2077.172531	1046.000000
2078.826038	1024.000000
2080.480912	1021.400000
2082.132067	954.800000
2083.786285	988.800000
2085.436785	995.400000
2087.088653	994.200000
2088.735112	996.800000
2090.386326	1031.600000
2092.033826	990.200000
2093.682693	1054.800000
2095.329541	1016.000000
2096.976064	1005.200000
2098.622261	1032.800000
2100.264750	982.800000
2101.910297	1023.000000
2103.552137	1017.600000
2105.197034	1019.000000
2106.838225	1006.600000
2108.479094	1044.800000
2110.119638	997.000000
2111.758170	985.200000
2113.398068	991.400000
2115.034266	996.400000
2116.671830	985.800000
2118.309072	1019.400000
2119.944304	996.000000
2121.579214	957.800000
2123.213803	987.400000
2124.848071	981.000000
2126.478645	958.200000
2128.112271	953.400000
2129.742205	1054.000000
2131.373504	1003.400000
2133.002798	989.000000
2134.631773	996.200000
2136.260428	969.600000
2137.888764	1000.800000
2139.515098	1015.600000
2141.141113	995.600000
2142.765126	1009.200000
2144.390505	977.000000
2146.013883	1002.400000
2147.638626	938.800000
2149.259688	992.600000
2150.880433	978.000000
2152.502543	962.600000
2154.122655	1011.000000
2155.740770	957.200000
2157.358570	993.000000
2158.976055	976.400000
2160.593224	997.600000
2162.210078	998.800000
2163.826616	1003.800000
2165.441162	987.800000
2167.053715	973.800000
2168.667632	970.000000
2170.279558	986.000000
2171.892847	994.600000
2173.504146	1050.400000
2175.113455	957.800000
2176.724128	1027.800000
2178.332812	988.400000
2179.941183	978.000000
2181.547568	1002.800000
2183.155315	979.800000
2184.761077	990.000000
2186.366527	971.000000
2187.969992	1002.600000
2189.574820	1001.400000
2191.177664	961.200000
2192.778525	992.200000
2194.380749	992.600000
2195.980991	1023.400000
2197.582595	949.400000
2199.180546	1013.600000
2200.779860	952.600000
2202.377194	1037.200000
2203.974220	974.200000
2205.572608	980.800000
2207.167347	1012.800000
2208.760109	1013.000000
2210.354234	1031.000000
2211.949720	988.600000
2213.541561	1008.000000
2215.133096	1003.200000
2216.725993	942.200000
2218.313580	990.000000
2219.905863	1054.400000
2221.492840	969.600000
2223.082844	952.800000
2224.667544	1007.200000
2226.256938	982.200000
2227.841030	1005.400000
2229.426482	958.400000
2231.009966	970.800000
2232.596475	970.000000
2234.179351	964.000000
2235.761924	967.600000
2237.344193	972.000000
2238.922832	985.000000
2240.504496	1014.000000
2242.082531	986.400000
2243.663589	959.400000
2245.241020	962.300000
2246.816488	965.200000
2248.394978	964.600000
2249.969844	946.000000
2251.544409	934.000000
2253.118673	1004.600000
2254.692638	962.400000
2256.266301	971.200000
2257.839665	995.200000
2259.409410	979.800000
2260.978856	966.200000
2262.551320	952.800000
2264.118510	1002.000000
2265.688718	967.200000
2267.255311	946.600000
2268.823264	940.600000
2270.389261	996.400000
2271.954961	968.600000
2273.520363	953.000000
2275.083812	1043.000000
2276.648620	1044.000000
2278.209820	1099.000000
2279.774034	1162.600000
2281.332986	1113.000000
2282.894952	1115.600000
2284.454968	1009.200000
2286.014689	981.200000
2287.572460	1000.600000
2289.129936	974.800000
2290.687118	1003.400000
2292.242352	996.600000
2293.797293	1023.600000
2295.351939	989.800000
2296.906292	963.800000
2298.460351	968.600000
2300.014117	1004.000000
2301.565938	975.400000
2303.115817	976.000000
2304.668703	967.600000
2306.216346	996.200000
2307.766998	930.800000
2309.314058	1009.200000
2310.862476	989.400000
2312.410603	973.400000
2313.955141	980.400000
2315.501037	977.600000
2317.044995	1021.000000
2318.590309	986.000000
2320.132040	1018.200000
2321.675127	995.200000
2323.216278	1010.400000
2324.757140	977.600000
2326.297713	1032.800000
2327.837997	1029.400000
2329.377992	974.400000
2330.914409	1021.400000
2332.453827	981.000000
2333.989667	974.000000
2335.526865	1002.000000
2337.060487	1017.200000
2338.597109	1034.800000
2340.131801	961.800000
2341.664563	1002.000000
2343.197038	1031.400000
2344.727585	1026.800000
2346.261130	1015.200000
2347.789464	1019.600000
2349.319154	1006.000000
2350.848559	1007.200000
2352.377679	986.600000
2353.906513	1035.400000
2355.430143	1008.400000
2356.958408	996.800000
2358.481471	1018.800000
2360.009167	1031.200000
2361.530024	993.600000
2363.055513	1050.800000
2364.577443	1000.000000
2366.100727	1009.600000
2367.622091	1071.000000
2369.141535	1018.600000
2370.662334	1032.400000
2372.181214	1026.000000
2373.699813	1039.600000
2375.216494	1005.600000
2376.734529	1037.600000
2378.252283	1061.000000
2379.766485	1033.400000
2381.280408	1041.000000
2382.794050	1055.400000
2384.309047	1067.200000
2385.820495	1049.200000
2387.333298	1038.200000
2388.844187	1047.800000
2390.354798	998.600000
2391.863497	1022.800000
2393.375182	973.600000
2394.883324	1023.800000
2396.391188	977.600000
2397.898774	1023.000000
2399.402819	1028.400000
2400.909849	996.400000
2402.414971	1021.800000
2403.919816	1028.200000
2405.422754	980.200000
2406.925416	985.200000
2408.427801	1009.200000
2409.928281	1036.600000
2411.430114	995.800000
2412.930042	934.400000
2414.429695	982.200000
2415.929073	1015.400000
2417.426548	996.600000
2418.922121	1000.000000
2420.420674	1003.600000
2421.915699	1003.200000
2423.412076	968.200000
2424.904927	1014.800000
2426.399131	986.200000
2427.893061	1010.600000
2429.383467	1025.600000
2430.876851	982.400000
2432.368337	952.200000
2433.857926	1018.600000
2435.347243	994.000000
2436.834664	1050.400000
2438.325061	980.200000
2439.811940	1039.600000
2441.300170	1003.800000
2442.784883	999.400000
2444.269327	971.400000
2445.755121	1019.000000
2447.239024	982.800000
2448.724277	977.000000
2450.204397	985.000000
2451.687490	1018.000000
2453.168692	1009.000000
2454.649625	1042.400000
2456.128669	1005.800000
2457.607444	1040.600000
2459.085951	955.000000
2460.564190	1021.000000
2462.042160	1030.000000
2463.516625	1008.000000
2464.994060	1034.800000
2466.467991	1004.800000
2467.943272	1004.800000
2469.418286	966.800000
2470.889799	999.600000
2472.362663	990.600000
2473.833644	997.400000
2475.305975	1019.000000
2476.773192	1019.400000
2478.243376	1001.800000
2479.711679	977.000000
2481.179717	1037.000000
2482.647490	980.800000
2484.114998	1015.000000
2485.582241	1005.200000
2487.045992	986.400000
2488.511093	1004.600000
2489.974317	1019.400000
2491.438890	1027.000000
2492.899975	1023.400000
2494.362409	985.400000
2495.824580	1054.000000
2497.283265	1038.600000
2498.746521	1047.400000
2500.204682	1039.600000
2501.664191	1005.800000
2503.118606	1044.400000
2504.577592	1032.000000
2506.034706	1046.200000
2507.489948	1062.000000
2508.944930	1029.600000
2510.398043	1047.000000
2511.852504	1039.200000
2513.305095	1039.000000
2514.757427	995.800000
2516.207892	1008.200000
2517.661312	1061.800000
2519.109650	1017.000000
2520.560943	1018.400000
2522.010371	1015.200000
2523.456326	1058.200000
2524.905236	1022.600000
2526.350676	1074.800000
2527.797463	997.600000
2529.242387	1002.400000
2530.687054	1033.800000
2532.133068	1058.800000
2533.575616	1055.400000
2535.019511	1035.800000
2536.459941	1025.800000
2537.901718	1049.600000
2539.341636	1077.000000
2540.782901	1083.600000
2542.220704	1039.800000
2543.661457	1052.000000
2545.097148	1082.400000
2546.535788	1075.600000
2547.972570	1074.800000
2549.407497	1085.200000
2550.845371	1093.000000
2552.278188	1116.600000
2553.712352	1081.200000
2555.144662	1095.200000
2556.578318	1116.000000
2558.010121	1084.000000
2559.441670	1118.000000
2560.872967	1113.000000
2562.302411	1111.600000
2563.731603	1152.800000
2565.158945	1114.800000
2566.587632	1134.800000
2568.016068	1146.400000
2569.441056	1163.800000
2570.867391	1130.200000
2572.291877	1151.400000
2573.717709	1136.000000
2575.140097	1165.000000
2576.563831	1135.400000
2577.985718	1153.800000
2579.407356	1184.200000
2580.827148	1148.400000
2582.248286	1162.400000
2583.669174	1162.600000
2585.086623	1217.000000
2586.507013	1193.800000
2587.923965	1225.600000
2589.340668	1198.400000
2590.757123	1216.200000
2592.173330	1231.400000
2593.589289	1223.800000
2595.003407	1211.200000
2596.417277	1271.600000
2597.829309	1216.000000
2599.242684	1265.800000
2600.652630	1229.800000
2602.065512	1284.400000
2603.474965	1290.200000
2604.884172	1255.600000
2606.291543	1279.200000
2607.701848	1306.200000
2609.110318	1261.000000
2610.516952	1274.600000
2611.923341	1268.200000
2613.327896	1343.600000
2614.733795	1280.800000
2616.137861	1326.400000
2617.541682	1335.000000
2618.945259	1324.800000
2620.347005	1300.600000
2621.750094	1366.200000
2623.149765	1305.800000
2624.550780	1300.800000
2625.948379	1319.400000
2627.348907	1282.400000
2628.746021	1336.600000
2630.144478	1304.400000
2631.541108	1304.200000
2632.937495	1273.000000
2634.333640	1273.600000
2635.727959	1225.200000
2637.123621	1229.200000
2638.515874	1252.200000
2639.909469	1239.800000
2641.301240	1252.800000
2642.694354	1265.600000
2644.085644	1252.000000
2645.475111	1234.200000
2646.864338	1210.800000
2648.253326	1167.000000
2649.643655	1183.800000
2651.029001	1219.400000
2652.417270	1149.800000
2653.803719	1129.400000
2655.189929	1138.000000
2656.575900	1163.200000
2657.958473	1148.800000
2659.342388	1162.200000
2660.726065	1110.800000
2662.109503	1139.800000
2663.489546	1105.800000
2664.870931	1116.000000
2666.250501	1107.200000
2667.631411	1128.200000
2669.010507	1158.800000
2670.387789	1110.600000
2671.766412	1099.800000
2673.143222	1096.200000
2674.519795	1090.400000
2675.896133	1065.800000
2677.270660	1095.800000
2678.646527	1075.400000
2680.019007	1050.200000
2681.394403	1093.800000
2682.764839	1071.400000
2684.136616	1038.800000
2685.508158	1063.600000
2686.877892	1068.600000
2688.248967	1086.400000
2689.618233	1018.600000
2690.987266	1056.600000
2692.354493	1031.000000
2693.721486	1003.800000
2695.088247	992.400000
2696.454776	991.200000
2697.819499	1011.200000
2699.183990	1014.600000
2700.548250	1006.600000
2701.912277	978.200000
2703.276073	1031.400000
2704.636495	1030.000000
2705.999827	1010.400000
2707.358217	985.800000
2708.719517	965.800000
2710.077447	983.400000
2711.438285	1026.000000
2712.797324	1002.200000
2714.152994	973.800000
2715.511572	960.800000
2716.866783	981.200000
2718.221765	971.400000
2719.574950	971.800000
2720.931042	973.800000
2722.283770	973.400000
2723.636270	933.000000
2724.988541	973.800000
2726.342150	925.200000
2727.692399	965.400000
2729.040853	999.200000
2730.392212	965.800000
2731.740213	960.800000
2733.089551	942.800000
2734.437097	962.000000
2735.784417	951.800000
2737.131510	952.200000
2738.476812	965.000000
2739.821887	928.400000
2741.166737	909.800000
2742.511361	931.400000
2743.852633	948.000000
2745.195243	995.000000
2746.537627	914.200000
2747.879786	947.400000
2749.218596	918.200000
2750.560306	946.400000
2751.898667	942.400000
2753.238366	939.000000
2754.576280	930.800000
2755.912409	923.600000
2757.248314	944.400000
2758.585557	932.800000
2759.921016	967.400000
2761.256252	913.600000
2762.589705	943.600000
2763.924495	960.800000
2765.255945	939.000000
2766.590290	948.800000
2767.919737	914.600000
2769.250520	933.600000
2770.581083	952.000000
2771.909866	958.600000
2773.239985	941.600000
2774.568326	938.600000
2775.896446	920.400000
2777.222788	907.600000
2778.550467	997.600000
2779.874812	951.600000
2781.200494	941.400000
2782.524400	919.400000
2783.848086	944.800000
2785.173109	924.600000
2786.494801	963.000000
2787.816275	923.400000
2789.137530	913.000000
2790.458566	957.400000
2791.777829	987.200000
2793.098428	919.200000
2794.417256	941.000000
2795.735865	924.200000
2797.052703	915.000000
2798.369324	905.200000
2799.685728	935.600000
2801.000362	919.000000
2802.316332	869.600000
2803.628981	901.200000
2804.942965	907.400000
2806.256733	956.200000
2807.570284	910.200000
2808.882069	931.800000
2810.192087	916.200000
2811.503440	962.400000
2812.811478	927.200000
2814.120850	949.800000
2815.430008	966.800000
2816.738950	890.000000
2818.046128	894.400000
2819.351544	952.200000
2820.658293	964.600000
2821.963281	944.400000
2823.268054	975.600000
2824.571067	960.000000
2825.876960	961.400000
2827.177999	931.200000
2828.480372	961.400000
2829.780985	949.400000
2831.082932	940.000000
2832.384665	922.200000
2833.683095	937.200000
2834.982858	954.800000
2836.280864	969.400000
2837.578658	953.400000
2838.874696	920.000000
2840.172067	952.000000
2841.467682	927.400000
2842.763086	970.200000
2844.058279	931.200000
2845.350175	917.400000
2846.644947	949.400000
2847.936422	950.800000
2849.229230	953.400000
2850.521828	910.200000
2851.811132	957.800000
2853.101768	926.400000
2854.390653	958.600000
2855.680870	939.400000
2856.967796	958.600000
2858.256054	959.800000
2859.542563	920.400000
2860.828863	938.200000
2862.114956	954.600000
2863.399300	934.200000
2864.686515	909.200000
2865.968904	933.200000
2867.252625	914.000000
2868.534600	972.400000
2869.816367	1002.800000
2871.096390	934.800000
2872.379282	968.000000
2873.660429	922.600000
2874.938294	963.600000
2876.219028	902.600000
2877.496481	984.800000
2878.773728	909.800000
2880.049233	871.000000
2881.327606	935.600000
2882.601165	931.600000
2883.877591	954.600000
2885.152276	914.600000
2886.425220	902.200000
2887.699496	922.200000
2888.972032	909.000000
2890.244363	885.200000
2891.513422	944.800000
2892.785346	897.000000
2894.055532	918.000000
2895.325514	877.000000
2896.595293	908.600000
2897.863336	887.600000
2899.129642	869.400000
2900.395747	905.200000
2901.663181	864.000000
2902.928880	887.200000
2904.194378	873.200000
2905.459673	894.600000
2906.721703	896.400000
2907.985063	890.000000
2909.248222	863.400000
2910.509649	871.400000
2911.772405	892.200000
2913.033429	885.000000
2914.292723	873.200000
2915.551817	882.000000
2916.810710	895.800000
2918.069403	895.400000
2919.327896	927.200000
2920.584660	837.200000
2921.841224	854.600000
2923.096061	888.600000
2924.352226	871.400000
2925.605137	903.600000
2926.859377	835.800000
2928.113417	887.800000
2929.365732	845.800000
2930.617849	877.400000
2931.868241	835.800000
2933.121488	855.800000
2934.369958	858.600000
2935.621283	846.000000
2936.869358	858.200000
2938.117237	851.000000
2939.364918	853.600000
2940.612402	844.400000
2941.858165	842.800000
2943.103732	847.800000
2944.350626	831.000000
2945.594276	839.000000
2946.839254	872.600000
2948.080988	841.000000
2949.325574	844.600000
2950.568441	827.800000
2951.808067	817.600000
2953.050543	826.200000
2954.289779	840.600000
2955.530343	807.600000
2956.769190	825.200000
2958.007843	838.400000
2959.244780	809.800000
2960.483045	874.800000
2961.719594	842.200000
2962.955950	858.200000
2964.192112	865.000000
2965.426560	848.000000
2966.660816	758.600000
2967.894878	808.600000
2969.127227	838.800000
2970.357866	836.600000
2971.591350	793.600000
2972.823122	834.600000
2974.053184	822.200000
2975.283053	836.800000
2976.511213	848.200000
2977.740700	849.600000
2978.968477	813.600000
2980.196063	831.200000
2981.424975	848.200000
2982.649146	813.200000
2983.876159	842.400000
2985.099948	809.800000
2986.325064	808.000000
2987.548473	804.400000
2988.771692	833.200000
2989.993206	732.000000
2991.217561	826.000000
2992.437181	793.000000
2993.658127	833.400000
2994.878884	837.200000
2996.097937	838.200000
2997.318315	805.200000
2998.535477	807.600000
2999.753965	811.000000
3000.970750	786.600000
3002.187348	839.600000
3003.403757	818.600000
3004.616953	808.200000
3005.832988	814.200000
3007.045810	802.600000
3008.261469	843.600000
3009.472405	808.000000
3010.684666	757.000000
3011.896741	831.200000
3013.108628	793.400000
3014.318819	778.000000
3015.528823	794.000000
3016.738641	803.200000
3017.946763	804.200000
3019.154700	808.200000
3020.360941	775.200000
3021.568507	806.000000
3022.774378	799.300000
3023.980065	792.600000
3025.185566	799.400000
3026.389374	779.200000
3027.594506	781.600000
3028.797945	794.800000
3029.999693	783.800000
3031.201256	766.400000
3032.402636	766.000000
3033.603832	794.000000
3034.803338	754.000000
3036.002661	779.800000
3037.203307	795.800000
3038.402263	766.000000
3039.598025	751.600000
3040.796616	779.800000
3041.992013	798.600000
3043.188733	785.800000
3044.382261	753.600000
3045.578617	758.200000
3046.773286	806.600000
3047.964765	772.600000
3049.160576	737.800000
3050.351692	793.000000
3051.544132	769.600000
3052.733384	813.800000
3053.925461	763.600000
3055.115855	751.000000
3056.303063	783.200000
3057.491593	764.400000
3058.681446	755.400000
3059.868115	780.200000
3061.054603	769.400000
3062.240913	765.000000
3063.428544	776.800000
3064.612993	775.200000
3065.795763	808.400000
3066.981355	807.200000
3068.165268	785.200000
3069.347502	785.400000
3070.529557	742.800000
3071.711434	776.000000
3072.893133	784.600000
3074.073155	739.000000
3075.251500	783.000000
3076.432665	762.000000
3077.610655	757.600000
3078.788468	731.600000
3079.966104	752.400000
3081.142066	739.800000
3082.317850	770.400000
3083.494956	734.800000
3084.670387	750.600000
3085.844145	712.600000
3087.016230	757.600000
3088.189637	749.200000
3089.362867	754.800000
3090.534426	739.800000
3091.707305	757.600000
3092.877017	743.200000
3094.048050	781.800000
3095.217413	790.600000
3096.385105	780.600000
3097.555613	762.800000
3098.721463	753.800000
3099.891621	726.600000
3101.057123	759.200000
3102.222450	769.800000
3103.387604	732.400000
3104.552585	737.400000
3105.718885	715.800000
3106.880533	752.200000
3108.043500	767.800000
3109.206295	764.000000
3110.368917	777.800000
3111.529873	757.800000
3112.690658	755.800000
3113.851270	729.000000
3115.010218	709.600000
3116.168995	741.400000
3117.327599	733.000000
3118.486032	722.800000
3119.644294	721.400000
3120.800893	701.000000
3121.955831	741.200000
3123.112088	703.000000
3124.266684	701.400000
3125.421110	727.200000
3126.573876	725.800000
3127.726471	731.200000
3128.878897	727.600000
3130.031153	720.600000
3131.183238	731.400000
3132.332177	743.400000
3133.483924	745.400000
3134.634012	741.400000
3135.782444	715.800000
3136.930706	699.600000
3138.078800	734.800000
3139.226725	711.600000
3140.372994	695.200000
3141.519095	724.400000
3142.663542	710.600000
3143.807821	744.400000
3144.951932	717.000000
3146.097360	748.800000
3147.239650	715.000000
3148.381773	736.000000
3149.523728	758.600000
3150.665516	710.400000
3151.807137	711.800000
3152.945623	693.400000
3154.085426	732.600000
3155.226546	702.800000
3156.364533	691.600000
3157.500870	733.000000
3158.637041	728.600000
3159.774529	810.000000
3160.910369	717.800000
3162.047526	747.800000
3163.180070	697.200000
3164.316896	741.400000
3165.449110	724.600000
3166.582641	721.600000
3167.716008	711.200000
3168.846247	722.400000
3169.979284	692.000000
3171.109195	682.200000
3172.240422	676.800000
3173.368525	701.400000
3174.499424	699.200000
3175.628679	707.800000
3176.756291	684.000000
3177.880780	738.400000
3179.009545	708.000000
3180.135188	675.000000
3181.260669	704.000000
3182.384507	692.800000
3183.511141	716.400000
3184.633177	686.800000
3185.756529	665.400000
3186.879719	696.800000
3188.002746	699.000000
3189.124135	693.600000
3190.245361	680.600000
3191.364950	719.200000
3192.484377	688.800000
3193.602166	694.600000
3194.722747	743.400000
3195.840215	727.000000
3196.957522	722.200000
3198.074669	745.800000
3199.190179	734.000000
3200.307005	671.400000
3201.420721	689.200000
3202.537226	694.800000
3203.652097	677.200000
3204.763858	683.800000
3205.875461	676.200000
3206.988379	672.000000
3208.101137	704.800000
3209.210789	664.400000
3210.321756	643.200000
3211.432564	675.600000
3212.541740	675.200000
3213.649285	693.800000
3214.758145	690.800000
3215.866847	674.200000
3216.972446	670.200000
3218.079359	675.600000
3219.184643	677.600000
3220.291241	709.800000
3221.394739	694.600000
3222.499552	690.400000
3223.604206	648.800000
3224.705763	667.600000
3225.807163	709.600000
3226.909877	691.200000
3228.012435	674.400000
3229.111896	686.200000
3230.214141	667.200000
3231.313290	707.200000
3232.410815	681.600000
3233.508184	640.200000
3234.608335	667.800000
3235.705394	679.600000
3236.802297	665.800000
3237.899045	690.200000
3238.991235	702.600000
3240.087673	652.200000
3241.182489	647.800000
3242.277151	673.200000
3243.370191	656.800000
3244.463076	693.600000
3245.554341	656.800000
3246.646919	656.800000
3247.737877	688.400000
3248.827215	625.800000
3249.916400	683.400000
3251.006898	664.400000
3252.094311	637.800000
3253.181571	672.200000
3254.270144	653.000000
3255.358564	675.600000
3256.442438	672.400000
3257.530553	661.800000
3258.615586	689.200000
3259.699004	674.800000
3260.783734	675.800000
3261.866848	609.200000
3262.951275	661.600000
3264.032623	692.000000
3265.115283	673.800000
3266.196329	652.200000
3267.277224	660.000000
3268.356505	663.800000
3269.435636	680.600000
3270.516079	616.400000
3271.593447	643.400000
3272.672127	666.600000
3273.749195	686.000000
3274.826114	652.400000
3275.901421	631.000000
3276.976579	656.800000
3278.053048	645.600000
3279.126447	673.800000
3280.199696	658.800000
3281.274257	690.400000
3282.347209	662.600000
3283.418552	645.600000
3284.491206	621.800000
3285.560794	672.000000
3286.631692	627.800000
3287.700983	621.400000
3288.771585	673.600000
3289.840580	681.000000
3290.907969	638.600000
3291.973753	616.800000
3293.043763	658.200000
3294.110710	640.800000
3295.174595	652.200000
3296.241247	641.600000
3297.306296	636.200000
3298.369741	687.400000
3299.433040	647.400000
3300.496192	601.200000
3301.559198	644.200000
3302.622058	653.200000
3303.683316	649.400000
3304.741517	653.600000
3305.803938	633.800000
3306.863304	628.400000
3307.922524	656.800000
3308.983053	624.600000
3310.039074	610.000000
3311.097858	655.200000
3312.152135	612.600000
3313.209176	622.800000
3314.264618	671.400000
3315.321370	631.200000
3316.376523	661.800000
3317.430079	657.000000
3318.482039	668.800000
3319.536760	651.800000
3320.588432	660.000000
3321.639961	650.000000
3322.692798	630.000000
3323.742588	649.000000
3324.793687	648.200000
3325.841740	659.400000
3326.892552	648.000000
3327.940320	674.600000
3328.987944	673.600000
3330.035427	646.200000
3331.081317	659.400000
3332.128515	652.000000
3333.172671	656.200000
3334.219585	673.600000
3335.264907	631.800000
3336.307188	640.800000
3337.349329	648.800000
3338.392777	627.800000
3339.436084	622.400000
3340.477802	585.200000
3341.519378	649.800000
3342.560813	643.600000
3343.600660	636.400000
3344.638918	657.200000
3345.678484	631.600000
3346.717910	664.600000
3347.755748	682.000000
3348.791999	633.800000
3349.828111	657.200000
3350.865530	624.800000
3351.899916	630.800000
3352.935609	619.400000
3353.971163	632.200000
3355.003686	638.400000
3356.038962	642.200000
3357.071207	632.600000
3358.103314	644.800000
3359.133837	627.800000
3360.165667	647.400000
3361.197359	644.000000
3362.226023	672.200000
3363.254550	635.600000
3364.284383	627.400000
3365.314079	608.000000
3366.340749	591.000000
3367.368725	617.000000
3368.393678	639.800000
3369.421380	641.800000
3370.446059	678.600000
3371.472044	638.600000
3372.496449	631.600000
3373.520718	615.600000
3374.543408	638.800000
3375.565962	631.400000
3376.589822	624.400000
3377.610662	601.200000
3378.631366	609.800000
3379.653377	611.600000
3380.672369	621.000000
3381.691225	624.400000
3382.711388	611.400000
3383.728534	588.400000
