-118.059454	270.933516
-115.389854	278.802198
-112.723189	283.165135
-110.057276	284.828272
-107.394295	284.597552
-104.729885	283.278921
-102.068405	281.678322
-99.405496	282.834266
-96.747693	288.276923
-94.088461	287.942657
-91.429977	290.700699
-88.774417	291.355245
-86.117429	292.378322
-83.465539	291.277622
-80.812218	289.011888
-78.161818	290.071329
-75.509988	288.253147
-72.863249	286.425175
-70.215081	285.558741
-67.567655	292.523776
-64.923143	300.138462
-62.277203	300.179720
-59.636344	303.344755
-56.994056	304.130070
-54.354677	305.714685
-51.713868	305.186014
-49.073800	307.668531
-46.438804	308.778322
-43.802380	308.172028
-41.168858	307.586014
-38.533908	309.545455
-35.904023	310.129371
-33.270546	312.806993
-30.642131	312.382517
-28.014450	314.339860
-25.385340	310.206993
-22.761287	288.949650
-20.133645	211.538462
-17.511056	57.054545
-14.889199	164.429371
-12.268072	745.721678
-9.647675	1555.843357
-7.030167	2202.188112
-4.411230	2638.734965
-1.795178	2863.807692
0.820145	2873.154545
3.434741	2670.082517
6.046454	2258.156643
8.659596	1654.879021
11.267704	919.181818
13.879394	240.225874
16.486053	1.842657
19.094140	159.264336
21.701503	345.980420
24.303841	372.979720
26.909757	379.481119
29.510651	383.650350
32.112973	389.930769
34.710278	394.486713
37.311158	399.964336
39.907023	402.186713
42.504317	407.691608
45.100891	409.009091
47.692456	410.118182
50.285449	416.612587
52.875581	422.111888
55.467141	431.503497
58.055841	434.067832
60.645968	442.013986
63.231096	451.387413
65.817652	455.263636
68.403494	466.053846
70.986482	475.072727
73.570896	484.188112
76.148182	491.007692
78.729034	499.316084
81.307037	513.832867
83.884330	523.494406
86.463049	536.725175
89.036786	547.670629
91.611951	564.218881
94.184272	581.829371
96.755885	602.322378
99.324658	628.300699
101.894858	656.409091
104.462220	692.799301
107.031007	739.826573
109.596958	802.201399
112.160074	892.755245
114.726746	1024.313287
117.284197	1234.312587
119.847333	1577.958741
122.405509	2211.630070
124.967240	3369.370629
127.524014	5390.077622
130.082215	8664.122378
132.635462	13299.438462
135.188012	19287.255245
137.744112	26214.390909
140.295264	33518.990909
142.845719	40707.005594
145.395476	47172.491608
147.942414	52448.879021
150.488657	56308.100699
153.036325	58679.435664
155.583297	59820.598601
158.125334	60131.853147
160.666677	60071.357343
163.207327	59872.884615
165.749403	59750.265734
168.288667	59674.272727
170.825123	59597.413287
173.360887	59592.497902
175.898077	59551.639161
178.434576	59522.166434
180.968269	59537.752448
183.499158	59543.267832
186.029360	59573.123776
188.560986	59630.153846
191.089811	59669.716783
193.615837	59730.474825
196.141177	59799.459441
198.667942	59844.255944
201.191911	59829.869231
203.715195	59792.753147
206.237794	59727.120979
208.757600	59698.044056
211.276723	59684.910490
213.795163	59670.417483
216.315027	59686.581119
218.827890	59711.679720
221.344284	59701.087413
223.859996	59779.211189
226.370818	59828.479021
228.883065	59870.032867
231.392530	59892.062238
233.901316	59900.832168
236.409423	59910.493007
238.918955	59938.903497
241.423606	59944.441958
243.927581	59945.993706
246.432980	59961.920979
248.933504	59922.754545
251.437552	59892.114685
253.934628	59900.381818
256.435228	59877.244056
258.933056	59854.028671
261.430211	59806.183217
263.926693	59792.421678
266.418312	59780.986014
268.913451	59734.304196
271.405823	59670.867832
273.897525	59612.325175
276.386464	59542.077622
278.876827	59455.344056
281.364427	59418.230769
283.849268	59343.862238
286.337624	59273.012587
288.819040	59205.946853
291.303970	59193.411888
293.784055	59193.753846
296.267652	59174.754545
298.746406	59112.428671
301.226584	59084.278322
303.704009	59021.441958
306.180771	58959.573427
308.656870	58900.664336
311.130220	58917.894406
313.602908	58910.748252
316.074935	58926.491608
318.546301	58963.341958
321.014922	59029.781818
323.482885	59098.433566
325.952269	59128.628671
328.416831	59158.050350
330.884897	59244.790909
333.348143	59266.541259
335.810731	59300.495105
338.272663	59349.660839
340.733938	59438.141958
343.192479	59488.600699
345.652442	59486.936364
348.109672	59462.865035
350.566248	59449.928671
353.022170	59412.585315
355.475362	59295.025874
357.929977	59203.352448
360.379790	59113.398601
362.833099	58975.035664
365.281610	58806.274126
367.729469	58683.979720
370.178751	58552.537063
372.623239	58434.772727
375.069149	58326.284615
377.514409	58241.201399
379.956951	58219.148951
382.398845	58167.344755
384.840092	58126.029371
387.278623	58150.048951
389.718576	58141.971329
392.155815	58118.890210
394.590342	58083.313287
397.028357	58135.358042
399.461595	58142.048252
401.896254	58188.197902
404.326141	58241.972028
406.759513	58323.748951
409.188115	58378.122378
411.616075	58432.056643
414.045457	58460.952448
416.470073	58548.785315
418.896111	58561.827273
421.321508	58594.071329
423.746265	58652.219580
426.166264	58722.702098
428.587684	58764.679021
431.006407	58826.823077
433.426551	58907.497203
435.844000	58949.484615
438.262869	58946.856643
440.679045	58984.946853
443.090473	59006.540559
445.505379	59063.804196
447.917594	59114.327972
450.329175	59174.951049
452.740122	59236.144755
455.148383	59294.278322
457.556011	59365.302797
459.963007	59405.674825
462.369372	59442.175524
464.773054	59412.786014
467.176106	59431.141259
469.578528	59400.926573
471.980320	59395.673427
474.379435	59359.404895
476.779969	59343.422378
479.179874	59275.323077
481.575056	59252.261538
483.973705	59187.941259
486.367634	59138.511888
488.760937	59084.894406
491.153614	59028.213287
493.545666	58975.495105
495.939136	58946.298601
498.327894	58864.577622
500.713986	58834.716084
503.101498	58756.183217
505.488387	58719.826573
507.872612	58662.696503
510.258255	58673.474126
512.641237	58605.958741
515.021558	58610.587413
517.403298	58598.897902
519.782379	58617.727273
522.162879	58641.997902
524.540721	58666.388811
526.915908	58661.493706
529.290477	58665.251748
531.666464	58671.566434
534.039799	58661.404196
536.414551	58652.473427
538.784618	58644.869231
541.154069	58592.304895
543.524938	58571.509091
545.891127	58530.988112
548.258734	58518.616084
550.623695	58521.283916
552.988043	58520.932168
555.351778	58488.819580
557.716931	58507.639860
560.077412	58500.350350
562.439311	58479.849650
564.798569	58497.159441
567.155190	58478.390909
569.515255	58472.768531
571.868629	58450.138462
574.225448	58403.836364
576.579632	58395.852448
578.933208	58412.509790
581.286175	58377.963636
583.636510	58325.560140
585.988263	58284.221678
588.333339	58230.633566
590.683879	58215.946853
593.027745	58182.007692
595.377073	58125.454545
597.721752	58117.701399
600.063807	58049.874126
602.407279	57998.083217
604.748128	57961.102797
607.088375	57889.787413
609.426001	57794.667133
611.767062	57691.565734
614.103485	57608.061538
616.441325	57572.598601
618.776548	57519.810490
621.109155	57480.083217
623.443178	57423.795105
625.774587	57431.587413
628.105398	57376.237063
630.435612	57395.359441
632.765227	57391.779720
635.090220	57390.512587
637.420653	57379.596503
639.746466	57406.432867
642.069671	57445.397203
644.394293	57502.530769
646.716309	57520.231469
649.037731	57572.302098
651.356551	57589.952448
653.676786	57608.896503
655.996428	57628.002098
658.313469	57647.009091
660.629918	57663.341259
662.943769	57717.284615
665.259036	57723.558741
667.571706	57777.872028
669.885791	57802.073427
672.195276	57851.997203
674.506177	57876.826573
676.814485	57923.848951
679.122205	57962.586713
681.431339	57945.820979
683.735881	57995.525874
686.039837	57968.797902
688.343207	57987.478322
690.647991	58054.529371
692.948189	58064.005594
695.249801	58102.248252
697.550829	58103.316783
699.847274	58066.228671
702.145135	58048.377622
704.442412	58019.892308
706.739106	58015.795804
709.031224	57938.848951
711.326753	57915.053846
713.617708	57821.637063
715.910078	57788.231469
718.199873	57803.767832
720.489087	57801.171329
722.777722	57827.597203
725.063784	57792.833566
727.351261	57748.942657
729.636166	57771.243357
731.920494	57764.902797
734.202253	57797.574126
736.485426	57820.453846
738.768022	57851.255245
741.046062	57873.759441
743.325517	57940.004196
745.604395	57991.825175
747.882699	58049.554545
750.156453	58109.668531
752.431620	58103.566434
754.706214	58125.186014
756.978249	58121.829371
759.251697	58104.704196
761.522587	58150.672727
763.790921	58182.000000
766.060668	58179.400000
768.327861	58185.913287
770.594483	58188.897203
772.860535	58137.128671
775.124036	58094.072028
777.388950	58061.058741
779.653294	57993.901399
781.913109	57964.837762
784.174336	57937.597203
786.434996	57926.744056
788.693110	57984.144755
790.948679	57995.615385
793.207639	57973.826573
795.460100	57980.151049
797.717927	57974.514685
799.971236	57915.179720
802.222005	57842.231469
804.474186	57814.806993
806.723828	57761.891608
808.974883	57736.232168
811.221426	57694.586713
813.469381	57653.832867
815.714802	57638.166434
817.961634	57571.493007
820.207905	57492.465734
822.449671	57467.397902
824.694821	57448.197203
826.933498	57396.453147
829.175557	57270.770629
831.413118	57245.432168
833.652091	57198.708392
835.888537	57149.064336
838.126394	57106.064336
840.361726	57086.997902
842.594535	57120.811888
844.828755	57121.735664
847.060452	57193.020280
849.291595	57268.674126
851.522183	57350.875524
853.752217	57365.070629
855.981697	57354.004895
858.206695	57420.555245
860.435068	57409.393007
862.658961	57381.869231
864.884266	57358.272028
867.105095	57333.632867
869.329296	57336.393007
871.549024	57305.881119
873.770162	57289.218182
875.990750	57272.663636
878.208829	57273.069930
880.428317	57202.796503
882.643339	57152.218182
884.857814	57098.368531
887.071740	57009.575524
889.285120	56921.327972
891.497952	56859.643357
893.710238	56814.515385
895.920021	56762.673427
898.129259	56732.934266
900.337952	56735.246853
902.544146	56779.396503
904.751749	56834.584615
906.956854	56840.632867
909.161416	56860.668531
911.363483	56920.195105
913.566959	56985.211189
915.767941	57058.818182
917.968381	57113.384615
920.170230	57161.251748
922.365688	57208.773427
924.564505	57247.497902
926.758883	57303.494406
928.956619	57336.415385
931.149919	57392.271329
933.344628	57446.742657
935.536851	57482.403497
937.728535	57526.938462
939.919682	57597.546853
942.108346	57678.858042
944.296474	57708.926573
946.482121	57772.232867
948.671120	57867.133566
950.855696	57901.055245
953.039737	57979.386713
955.227128	58061.207692
957.406215	58175.904895
959.588653	58337.626573
961.770557	58471.616783
963.949986	58616.530769
966.126943	58795.215385
968.305308	58970.279021
970.485080	59094.154545
972.658503	59240.750350
974.835272	59361.069930
977.007634	59423.210490
979.181404	59499.624476
981.350770	59530.567832
983.523480	59603.483916
985.693725	59671.565734
987.863441	59718.288811
990.032628	59799.609091
992.197418	59870.292308
994.365549	59996.924476
996.529286	60099.336364
998.694429	60215.634266
1000.857113	60312.301399
1003.019272	60387.541958
1005.178974	60427.248951
1007.338151	60427.654545
1009.498735	60455.022378
1011.656865	60440.744056
1013.814470	60423.997902
1015.971552	60437.875524
1018.128110	60453.194406
1020.280289	60530.989510
1022.433875	60626.027273
1024.586939	60742.417483
1026.737554	60879.744755
1028.889576	61030.953147
1031.037224	61163.443357
1033.188204	61281.152448
1035.334813	61391.718182
1037.480903	61466.890210
1039.626475	61540.444056
1041.773452	61601.722378
1043.914140	61650.154545
1046.058158	61688.679021
1048.199735	61741.760839
1050.340796	61798.405594
1052.483261	61841.106294
1054.619447	61899.086014
1056.758958	61907.941259
1058.894115	61893.204895
1061.032596	61873.492308
1063.166723	61838.671329
1065.300337	61820.304196
1067.435356	61764.837063
1069.566025	61712.406993
1071.698099	61654.191608
1073.827744	61569.924476
1075.956877	61515.939161
1078.085498	61410.460839
1080.213608	61341.070629
1082.339292	61247.319580
1084.464466	61143.676923
1086.591044	61052.373427
1088.713284	60944.487413
1090.836929	60852.865734
1092.956239	60746.371329
1095.080779	60658.725175
1097.199073	60587.845455
1099.318772	60485.309790
1101.436052	60419.783916
1103.552826	60317.125874
1105.669093	60301.366434
1107.782944	60230.575524
1109.898200	60153.165035
1112.009132	60073.335664
1114.123377	59958.486014
1116.233301	59881.620280
1118.344629	59836.406993
1120.455452	59771.351748
1122.561959	59748.088112
1124.671776	59661.120280
1126.777278	59640.492308
1128.884183	59583.630070
1130.984873	59592.086713
1133.090775	59464.546853
1135.192368	59404.093706
1137.295364	59356.465734
1139.397859	59274.509091
1141.494147	59205.227273
1143.595643	59195.187413
1145.692835	59114.294406
1147.789530	59125.220280
1149.885726	59050.639161
1151.981425	59068.264336
1154.076625	59043.059441
1156.169429	59078.604895
1158.263636	59003.688811
1160.351651	59135.091608
1162.444864	59136.525874
1164.531889	59127.515385
1166.622213	59164.891608
1168.708250	59220.257343
1170.797584	59245.306993
1172.880737	59280.674126
1174.965292	59322.465734
1177.051249	59354.259441
1179.132924	59425.740559
1181.216001	59414.296503
1183.296692	59426.700000
1185.376891	59481.975524
1187.456599	59361.682517
1189.535816	59339.684615
1191.612651	59343.279720
1193.687105	59311.361538
1195.764850	59288.181119
1197.838326	59265.801399
1199.913202	59286.095804
1201.983811	59259.721678
1204.055821	59395.381818
1206.125456	59400.255245
1208.196491	59440.159441
1210.267038	59484.295804
1212.333324	59494.948951
1214.401011	59538.460839
1216.466326	59560.045455
1218.533041	59539.433566
1220.595500	59524.056643
1222.661244	59530.533566
1224.722734	59448.695105
1226.785625	59478.402098
1228.846148	59616.353147
1230.906187	59581.376923
1232.965744	59573.488811
1235.022935	59732.533566
1237.079645	59727.963636
1239.133991	59801.758042
1241.191619	59918.831469
1243.246884	59999.894406
1245.297908	60031.565734
1247.350332	60151.219580
1249.402276	60211.620280
1251.451862	60360.245455
1253.500969	60522.747552
1255.549598	60561.682517
1257.597748	60695.404895
1259.645419	60926.847552
1261.688860	60976.486014
1263.735577	61144.745455
1265.779940	61369.657343
1267.823827	61595.776224
1269.865362	61731.593007
1271.904548	62033.786014
1273.947007	62260.970629
1275.985243	62509.997902
1278.024878	62768.793706
1280.064038	62994.773427
1282.098979	63257.065035
1284.135319	63514.651748
1286.169315	63654.762238
1288.204708	63807.650350
1290.235889	63962.500000
1292.268467	64087.646853
1294.300574	64105.129371
1296.330340	64157.103497
1298.361504	64148.417483
1300.388460	64146.442657
1302.416814	64145.387413
1304.440963	64154.223776
1306.468378	64165.900699
1308.491590	64176.279720
1310.516200	64180.200000
1312.538476	64188.619580
1314.562149	64196.857343
1316.583489	64205.063636
1318.604361	64214.983217
1320.624766	64224.227972
1322.640978	64229.779720
1324.658587	64237.437063
1326.673868	64245.274825
1328.692408	64252.779021
1330.706759	64255.679720
1332.718784	64257.943357
1334.734066	64257.982517
1336.745163	64262.467832
1338.757657	64281.483916
1340.765968	64296.576923
1342.777534	64333.660839
1344.783062	64329.917483
1346.791845	64268.724476
1348.796450	64130.567832
1350.804309	63961.097203
1352.811706	63713.558042
1354.813072	63401.346853
1356.815834	63112.619580
1358.818137	62741.911189
1360.819980	62460.207692
1362.821363	62155.227972
1364.820433	61958.790909
1366.819044	61814.290210
1368.817197	61636.056643
1370.814891	61555.570629
1372.808423	61401.818182
1374.803351	61380.890210
1376.797821	61304.178322
1378.791835	61166.941259
1380.783542	61113.283916
1382.774794	60970.788811
1384.763740	60939.653147
1386.754081	60848.307692
1388.743967	60821.639860
1390.731549	60748.962238
1392.718678	60704.803497
1394.703505	60798.380420
1396.689727	60779.650350
1398.673649	60914.416084
1400.657118	60903.406993
1402.640134	60913.695105
1404.620853	60956.197203
1406.602966	60974.023776
1408.582783	61020.104196
1410.562148	61097.176224
1412.537375	61107.066434
1414.515840	61180.339860
1416.492012	61285.448951
1418.467735	61442.188112
1420.443008	61534.198601
1422.415990	61653.792308
1424.388524	61698.626573
1426.360610	61800.549650
1428.332249	61848.788112
1430.299759	61947.586713
1432.272343	61989.060140
1434.237122	62042.592308
1436.206972	62030.555245
1438.172699	62087.875524
1440.139818	62114.329371
1442.104654	62141.796503
1444.065370	62136.220280
1446.031154	62125.827273
1447.990983	62174.608392
1449.952206	62207.293007
1451.914821	62239.930070
1453.873321	62329.095804
1455.831378	62365.682517
1457.788994	62395.318881
1459.746167	62432.481818
1461.701065	62496.133566
1463.657356	62549.774126
1465.611372	62514.869930
1467.564947	62484.111888
1469.516250	62462.739161
1471.468946	62436.753147
1473.419369	62315.055944
1475.369354	62229.502797
1477.318900	62191.409091
1479.266177	62114.823776
1481.211186	62086.964336
1483.157588	62051.106993
1485.103552	62062.857343
1487.049079	62070.725874
1488.992340	62024.536364
1490.935166	62053.906294
1492.875728	62050.286014
1494.817681	62023.760839
1496.757372	62017.358042
1498.696629	62073.896503
1500.635450	62033.975524
1502.572012	62021.891608
1504.509965	62047.146853
1506.445659	62057.057343
1508.380920	62087.552448
1510.313925	62124.948252
1512.246497	62195.732168
1514.178637	62234.549650
1516.110345	62274.850350
1518.039799	62357.725175
1519.970644	62425.400000
1521.901057	62495.771329
1523.827398	62490.179021
1525.755130	62549.790909
1527.680611	62551.243357
1529.605663	62577.036364
1531.530286	62595.953846
1533.454480	62686.122378
1535.376426	62751.141958
1537.299763	62754.216783
1539.220853	62807.449650
1541.139700	62853.044056
1543.059935	62888.008392
1544.977928	62928.448951
1546.895494	62939.257343
1548.810818	62948.684615
1550.727532	62921.059441
1552.640191	62889.365734
1554.556054	62955.857343
1556.469677	62978.516783
1558.381062	62990.859441
1560.293837	63008.367133
1562.202562	63033.165035
1564.112676	63050.192308
1566.022367	63129.450350
1567.931635	63075.623776
1569.838669	63037.401399
1571.743470	63049.234965
1573.649660	63035.770629
1575.553618	63024.524476
1577.457155	63054.387413
1579.360272	63048.323776
1581.261159	63066.718182
1583.163435	63051.845455
1585.063483	63036.260839
1586.964918	63065.469930
1588.862320	63088.622378
1590.759303	63018.590210
1592.655868	63035.248951
1594.553821	63098.474126
1596.445939	63068.283916
1598.341250	63072.900699
1600.236144	63083.774825
1602.128816	63133.353846
1604.021071	63141.219580
1605.911107	63152.888112
1607.800727	63178.928671
1609.689932	63214.139860
1611.578722	63223.853846
1613.465294	63266.067133
1615.353254	63331.167133
1617.237197	63353.648951
1619.122527	63338.113986
1621.007444	63343.120979
1622.890147	63349.496503
1624.774237	63356.595804
1626.654315	63352.893007
1628.535781	63342.839860
1630.415036	63327.195804
1632.295677	63300.489510
1634.170514	63295.851049
1636.050332	63312.667832
1637.926146	63329.197902
1639.801549	63329.391608
1641.678338	63356.325874
1643.549331	63333.524476
1645.423505	63343.927972
1647.293680	63342.812587
1649.167037	63320.487413
1651.038190	63310.969930
1652.907141	63296.595804
1654.777477	63280.639161
1656.643821	63245.660839
1658.511550	63259.641958
1660.377080	63233.480420
1662.243996	63192.460140
1664.106923	63165.228671
1665.971235	63136.513986
1667.833351	63104.827972
1669.695062	63074.365734
1671.558159	63037.860839
1673.419060	63030.085315
1675.277769	63030.581818
1677.136074	63030.528671
1678.995764	63042.505594
1680.849686	63066.912587
1682.706782	63063.348252
1684.563475	63052.676923
1686.416191	63052.253846
1688.272079	63039.152448
1690.123993	63014.857343
1691.975506	63004.351748
1693.826618	62981.507692
1695.677330	62972.765734
1697.527641	62930.416783
1699.375767	62924.977622
1701.225278	62890.048951
1703.069040	62848.136364
1704.917751	62817.325874
1706.760716	62763.942657
1708.606848	62725.659441
1710.449017	62692.365734
1712.294352	62682.245455
1714.133946	62650.872727
1715.974924	62610.707692
1717.817285	62592.773427
1719.655690	62578.186713
1721.495478	62572.234965
1723.333091	62499.276224
1725.170308	62484.882517
1727.005352	62430.432168
1728.841779	62373.011189
1730.676034	62322.329371
1732.509894	62284.459441
1734.343360	62268.125175
1736.172881	62197.957343
1738.005560	62112.469930
1739.834295	62067.243357
1741.666187	61991.343357
1743.494137	61900.729371
1745.321696	61806.964336
1747.148862	61728.874825
1748.975637	61610.121678
1750.802020	61526.382517
1752.624467	61404.681119
1754.450069	61368.072028
1756.271736	61235.179720
1758.094785	61112.909091
1759.915672	60965.290210
1761.736171	60876.114685
1763.558051	60763.186014
1765.374231	60674.574126
1767.193563	60576.064336
1769.008968	60498.439161
1770.827523	60399.911189
1772.642153	60362.116783
1774.456396	60309.608392
1776.270253	60304.215385
1778.083723	60225.218881
1779.895040	60194.888811
1781.707737	60133.047552
1783.520049	60100.795105
1785.328443	60037.275524
1787.138217	59980.597203
1788.944077	59929.974126
1790.753082	59861.975524
1792.558174	59792.524476
1794.364647	59797.966434
1796.170736	59754.872727
1797.972914	59817.795105
1799.778237	59787.196503
1801.579651	59765.393007
1803.382445	59754.936364
1805.181333	59735.403497
1806.981602	59688.093007
1808.781489	59669.890210
1810.579234	59623.267832
1812.376599	59565.162238
1814.173584	59549.413287
1815.970188	59569.478322
1817.764653	59533.585315
1819.560497	59565.882517
1821.350686	59480.852448
1823.145772	59487.195105
1824.935206	59461.451748
1826.727776	59432.800699
1828.518211	59405.016084
1830.306512	59387.584615
1832.097948	59333.859441
1833.883738	59305.411189
1835.670908	59290.166434
1837.455946	59247.562238
1839.244118	59229.702098
1841.028404	59215.080420
1842.810560	59208.256643
1844.594096	59204.437063
1846.375503	59199.937063
1848.158289	59214.146154
1849.937194	59213.823077
1851.717479	59188.230769
1853.495637	59163.066434
1855.275174	59155.544056
1857.052586	59119.669930
1858.827874	59072.149650
1860.604540	59087.051748
1862.379084	59087.939161
1864.155006	59085.989510
1865.925307	59099.474825
1867.698736	59133.041259
1869.470045	59145.526573
1871.240983	59160.158741
1873.013299	59195.770629
1874.780001	59232.999301
1876.549829	59277.489510
1878.315793	59301.599301
1880.084880	59280.653147
1881.850106	59275.843357
1883.614964	59281.948252
1885.381199	59265.850350
1887.143575	59249.886014
1888.905584	59254.818881
1890.667225	59246.382517
1892.428500	59274.223077
1894.189407	59305.889510
1895.949948	59366.214685
1897.708379	59419.604196
1899.466444	59468.823077
1901.222402	59522.293706
1902.979736	59605.132867
1904.736705	59689.163636
1906.491567	59779.786713
1908.244325	59815.320979
1909.996718	59870.115385
1911.750488	59933.061538
1913.502154	60019.701399
1915.251718	60101.330070
1917.002657	60226.044755
1918.753234	60320.440559
1920.499971	60422.093007
1922.248085	60578.772028
1923.994099	60700.648252
1925.741488	60822.865734
1927.486780	60924.528671
1929.229974	60981.184615
1930.974543	61083.895804
1932.717017	61183.041958
1934.459130	61303.572727
1936.200883	61428.467832
1937.942276	61579.651748
1939.681576	61708.308392
1941.420517	61850.053846
1943.159099	62003.930769
1944.895590	62119.623776
1946.631723	62217.252448
1948.369230	62306.529371
1950.102915	62411.008392
1951.837975	62525.474126
1953.570946	62623.762238
1955.303561	62758.067133
1957.035820	62870.171329
1958.767722	62986.147552
1960.497538	63092.481818
1962.225269	63196.144755
1963.954375	63289.536364
1965.683126	63361.862238
1967.409793	63405.458741
1969.136106	63456.953147
1970.863792	63509.594406
1972.585942	63573.578322
1974.311193	63623.224476
1976.032637	63677.800699
1977.757182	63711.766434
1979.479646	63760.093706
1981.198308	63798.048252
1982.920068	63838.363636
1984.638026	63879.291608
1986.357357	63910.741259
1988.072889	63937.637063
1989.793241	63978.787413
1991.509795	64006.077622
1993.222552	64041.441958
1994.938405	64058.930769
1996.652186	64080.102098
1998.365617	64093.846853
2000.076977	64106.004895
2001.789709	64113.297203
2003.498651	64122.518881
2005.210685	64126.230070
2006.917211	64140.917483
2008.626828	64134.114685
2010.334379	64137.344755
2012.041581	64134.803497
2013.746718	64134.905594
2015.451509	64135.430769
2017.157671	64136.572727
2018.860051	64138.653147
2020.563802	64143.337063
2022.265491	64145.729371
2023.966835	64149.061538
2025.667833	64148.525175
2027.366770	64155.312587
2029.067079	64149.406294
2030.763613	64148.795804
2032.461518	64149.957343
2034.157364	64149.775524
2035.856296	64152.170629
2037.549742	64155.032168
2039.244559	64158.626573
2040.939034	64163.810490
2042.629740	64164.862238
2044.323530	64169.140559
2046.013553	64171.355944
2047.704947	64177.841958
2049.394288	64178.749650
2051.084999	64179.384615
2052.771947	64182.668531
2054.458556	64182.021678
2056.146534	64181.927273
2057.830753	64177.748951
2059.516343	64176.158741
2061.201593	64176.126573
2062.884794	64180.629371
2064.569366	64184.674825
2066.248475	64186.745455
2067.932369	64185.895105
2069.610802	64184.069231
2071.292313	64182.653846
2072.970072	64182.916783
2074.647495	64182.916084
2076.326287	64184.710490
2078.003037	64179.872727
2079.677745	64178.784615
2081.353822	64181.759441
2083.027859	64182.934965
2084.701560	64182.433566
2086.374926	64179.497902
2088.046253	64177.930070
2089.717246	64180.953147
2091.387905	64182.851748
2093.058230	64185.534965
2094.728221	64187.702098
2096.396176	64187.527972
2098.063798	64182.268531
2099.729385	64180.932867
2101.396341	64182.915385
2103.061264	64176.483916
2104.725855	64174.957343
2106.388414	64169.150350
2108.052341	64169.429371
2109.714237	64169.158042
2111.375803	64167.738462
2113.037037	64162.644755
2114.696243	64159.525874
2116.355118	64155.599301
2118.013664	64152.395105
2119.671880	64152.958042
2121.326372	64153.922378
2122.983929	64151.199301
2124.641157	64158.015385
2126.294663	64152.650350
2127.949537	64150.362937
2129.600692	64144.738462
2131.254910	64140.910490
2132.905411	64139.102098
2134.557278	64137.594406
2136.203737	64137.543357
2137.854951	64138.112587
2139.502451	64139.568531
2141.151318	64138.732867
2142.798166	64139.305594
2144.444689	64141.582517
2146.090886	64136.346853
2147.733375	64134.092308
2149.378922	64130.916783
2151.020762	64129.344755
2152.665659	64129.324476
2154.306850	64126.766434
2155.947719	64128.628671
2157.588263	64127.893007
2159.226795	64125.778322
2160.866693	64121.894406
2162.502891	64118.176224
2164.140455	64115.628671
2165.777697	64114.088811
2167.412929	64112.733566
2169.047840	64108.889510
2170.682428	64105.367133
2172.316696	64103.258741
2173.947270	64100.086713
2175.580896	64100.148252
2177.210830	64098.977622
2178.842129	64094.283217
2180.471423	64088.656643
2182.100398	64082.540559
2183.729053	64078.848951
2185.357389	64077.004895
2186.983723	64075.864336
2188.609738	64071.181119
2190.233751	64070.054545
2191.859130	64067.237063
2193.482508	64063.156643
2195.107251	64063.372028
2196.728313	64061.997902
2198.349058	64055.160839
2199.971168	64047.607692
2201.591280	64042.472028
2203.209395	64039.288112
2204.827195	64034.257343
2206.444680	64032.255245
2208.061849	64027.784615
2209.678703	64023.361538
2211.295241	64019.030769
2212.909787	64016.294406
2214.522340	64014.208392
2216.136257	64011.324476
2217.748183	64007.083916
2219.361472	63998.648951
2220.972771	63992.472028
2222.582080	63987.464336
2224.192753	63978.724476
2225.801437	63970.801399
2227.409808	63964.036364
2229.016193	63956.268531
2230.623941	63950.189510
2232.229702	63941.115385
2233.835152	63938.769930
2235.438617	63932.970629
2237.043445	63929.375524
2238.646289	63919.844056
2240.247150	63913.372028
2241.849374	63910.442657
2243.449616	63903.666434
2245.051220	63896.765035
2246.649171	63895.281119
2248.248485	63891.953846
2249.845819	63881.721678
2251.442845	63870.410490
2253.041233	63863.402797
2254.635972	63854.501399
2256.228734	63848.402797
2257.822859	63838.827273
2259.418345	63831.618881
2261.010186	63827.802797
2262.601721	63821.863636
2264.194618	63813.624476
2265.782205	63810.295105
2267.374488	63805.942657
2268.961465	63799.244755
2270.551469	63788.180420
2272.136169	63783.772727
2273.725563	63782.346154
2275.309655	63776.911189
2276.895107	63771.783916
2278.478591	63767.256643
2280.065100	63763.649650
2281.647976	63753.246154
2283.230549	63742.422378
2284.812818	63734.467832
2286.391457	63727.703497
2287.973121	63718.648252
2289.551156	63704.005594
2291.132214	63700.258741
2292.709645	63690.450350
2294.285113	63684.006294
2295.863603	63680.276224
2297.438469	63669.463636
2299.013034	63659.765734
2300.587299	63653.694406
2302.161263	63647.579021
2303.734926	63644.941259
2305.308290	63639.954545
2306.878035	63629.580420
2308.447481	63622.083916
2310.019945	63617.993007
2311.587135	63608.926573
2313.157343	63607.743357
2314.723936	63596.003497
2316.291889	63582.117483
2317.857886	63569.316084
2319.423586	63561.757343
2320.988988	63550.704196
2322.552437	63541.861538
2324.117245	63527.844755
2325.678445	63519.649650
2327.242659	63509.441958
2328.801611	63499.783217
2330.363578	63491.380420
2331.923593	63485.460140
2333.483314	63470.025874
2335.041085	63465.397902
2336.598561	63456.788811
2338.155743	63452.295105
2339.710977	63443.176923
2341.265918	63436.665035
2342.820564	63434.357343
2344.374917	63433.441958
2345.928977	63426.380420
2347.482742	63419.318881
2349.034564	63413.819580
2350.584442	63404.332867
2352.137328	63395.483916
2353.684972	63393.575524
2355.235623	63387.279720
2356.782683	63378.179720
2358.331101	63373.321678
2359.879228	63366.641259
2361.423766	63362.870629
2362.969662	63354.506993
2364.513620	63352.048951
2366.058935	63345.252448
2367.600665	63338.583217
2369.143752	63331.720280
2370.684903	63326.272028
2372.225765	63323.226573
2373.766338	63318.660839
2375.306622	63313.660140
2376.846617	63313.300699
2378.383034	63305.820979
2379.922452	63299.600000
2381.458293	63296.654545
2382.995490	63294.123776
2384.529112	63290.592308
2386.065734	63284.069231
2387.600426	63276.576224
2389.133188	63269.030070
2390.665663	63263.601399
2392.196210	63257.611189
2393.729755	63249.692308
2395.258089	63246.427273
2396.787780	63242.815385
2398.317184	63237.292308
2399.846304	63237.481818
2401.375139	63240.088112
2402.898768	63243.753147
2404.427033	63239.582517
2405.950096	63234.962937
2407.477792	63235.226573
2408.998649	63230.930070
2410.524139	63224.758741
2412.046068	63219.924476
2413.569353	63218.708392
2415.090716	63213.044056
2416.610160	63212.953846
2418.130959	63214.885315
2419.649840	63218.693706
2421.168438	63217.172028
2422.685119	63215.754545
2424.203154	63214.574825
2425.720908	63216.562937
2427.235111	63213.629371
2428.749033	63212.993007
2430.262675	63215.526573
2431.777672	63218.590909
2433.289120	63218.876224
2434.801923	63225.053846
2436.312812	63231.864336
2437.823423	63239.979720
2439.332122	63247.879720
2440.843807	63253.806993
2442.351949	63263.353846
2443.859813	63267.306993
2445.367399	63264.876224
2446.871444	63268.169231
2448.378474	63269.375524
2449.883597	63266.971329
2451.388441	63266.121678
2452.891379	63269.637762
2454.394041	63277.404895
2455.896426	63290.081119
2457.396906	63296.023077
2458.898739	63302.801399
2460.398667	63310.331469
2461.898320	63312.295804
2463.397698	63315.147552
2464.895173	63324.829371
2466.390746	63323.265734
2467.889299	63323.263636
2469.384324	63332.345455
2470.880701	63333.688811
2472.373552	63338.734266
2473.867756	63342.769930
2475.361686	63345.075524
2476.852092	63347.566434
2478.345476	63345.130070
2479.836962	63346.620280
2481.326551	63355.354545
2482.815868	63357.280420
2484.303289	63351.039860
2485.793686	63350.790210
2487.280565	63357.842657
2488.768795	63354.063636
2490.253508	63357.469930
2491.737952	63363.033566
2493.223746	63378.881818
2494.707649	63384.147552
2496.192902	63386.393007
2497.673022	63391.754545
2499.156115	63405.662937
2500.637317	63410.887413
2502.118250	63412.150350
2503.597294	63413.562238
2505.076069	63420.033566
2506.554576	63418.516084
2508.032815	63422.853147
2509.510785	63424.877622
2510.985250	63431.917483
2512.462685	63429.857343
2513.936616	63428.219580
2515.411897	63424.983217
2516.886911	63429.684615
2518.358425	63434.004196
2519.831288	63436.592308
2521.302269	63440.227273
2522.774600	63444.632867
2524.241817	63451.932867
2525.712001	63455.774126
2527.180304	63454.311888
2528.648342	63457.437063
2530.116115	63459.017483
2531.583623	63462.993007
2533.050866	63463.672727
2534.514617	63470.625874
2535.979718	63479.224476
2537.442942	63490.100699
2538.907516	63498.937063
2540.368600	63505.954545
2541.831034	63513.358042
2543.293205	63509.500000
2544.751890	63502.344755
2546.215147	63499.970629
2547.673307	63493.140559
2549.132816	63487.029371
2550.587231	63480.297203
2552.046217	63482.204196
2553.503331	63483.320979
2554.958574	63492.247552
2556.413555	63499.717483
2557.866668	63513.444056
2559.321129	63525.697902
2560.773720	63535.734266
2562.226052	63542.821678
2563.676517	63553.444056
2565.129937	63558.528671
2566.578275	63563.065035
2568.029569	63563.537063
2569.478996	63561.930769
2570.924951	63555.763636
2572.373861	63555.456643
2573.819301	63559.451049
2575.266088	63562.132867
2576.711013	63559.375524
2578.155679	63563.280420
2579.601693	63567.568531
2581.044241	63578.723077
2582.488136	63588.918881
2583.928566	63598.620979
2585.370343	63601.527273
2586.810261	63602.986014
2588.251526	63603.080420
2589.689329	63602.309790
2591.130082	63603.448252
2592.565773	63595.617483
2594.004413	63592.852448
2595.441195	63594.969231
2596.876122	63598.025874
2598.313996	63602.981119
2599.746813	63604.523077
2601.180977	63616.109091
2602.613287	63621.088112
2604.046943	63627.200000
2605.478746	63628.583916
2606.910295	63630.800699
2608.341592	63630.288811
2609.771036	63628.265035
2611.200228	63625.598601
2612.627570	63626.443357
2614.056257	63627.223776
2615.484693	63623.948252
2616.909681	63624.354545
2618.336016	63628.491608
2619.760502	63627.025175
2621.186334	63632.167832
2622.608722	63634.577622
2624.032456	63640.125175
2625.454343	63638.995105
2626.875981	63642.048951
2628.295773	63643.175524
2629.716911	63650.814685
2631.137799	63647.785315
2632.555249	63645.250350
2633.975638	63645.899301
2635.392590	63641.863636
2636.809293	63660.530070
2638.225748	63643.022378
2639.641955	63628.123077
2641.057914	63616.776923
2642.472032	63607.097902
2643.885902	63603.457343
2645.297934	63602.323077
2646.711309	63606.211888
2648.121255	63608.281119
2649.534137	63620.534266
2650.943590	63633.996503
2652.352797	63653.720280
2653.760168	63677.527273
2655.170473	63660.219580
2656.578943	63664.267133
2657.985577	63659.936364
2659.391966	63656.853846
2660.796521	63653.597902
2662.202420	63650.604196
2663.606486	63647.316084
2665.010307	63645.531469
2666.413884	63647.672028
2667.815630	63644.473427
2669.218719	63648.385315
2670.618390	63649.865734
2672.019405	63649.144056
2673.417004	63648.652448
2674.817533	63648.518182
2676.214646	63653.984615
2677.613103	63654.808392
2679.009733	63658.327972
2680.406120	63660.588112
2681.802265	63664.634266
2683.196585	63668.557343
2684.592246	63668.000699
2685.984499	63669.769231
2687.378094	63669.690210
2688.769865	63665.843357
2690.162979	63666.193007
2691.554269	63668.913287
2692.943736	63668.618182
2694.332963	63671.229371
2695.721951	63673.055944
2697.112280	63675.015385
2698.497626	63675.493706
2699.885895	63676.278322
2701.272344	63679.144056
2702.658554	63676.664336
2704.044525	63677.954545
2705.427098	63675.558042
2706.811013	63673.557343
2708.194690	63674.064336
2709.578128	63673.420280
2710.958172	63679.511888
2712.339556	63676.131469
2713.719126	63679.192308
2715.100036	63680.750350
2716.479132	63684.152448
2717.856414	63690.726573
2719.235037	63688.335664
2720.611847	63684.993706
2721.988420	63680.369231
2723.364758	63678.498601
2724.739285	63677.729371
2726.115152	63673.301399
2727.487632	63669.807692
2728.863028	63665.634266
2730.233464	63667.481818
2731.605241	63672.729371
2732.976783	63678.153147
2734.346517	63681.538462
2735.717592	63680.361538
2737.086858	63678.106294
2738.455891	63680.138462
2739.823118	63680.633566
2741.190112	63680.798601
2742.556872	63681.599301
2743.923401	63681.679021
2745.288124	63677.914685
2746.652615	63676.767133
2748.016875	63673.845455
2749.380902	63670.444755
2750.744698	63663.900699
2752.105120	63658.360839
2753.468452	63655.878322
2754.826842	63655.698601
2756.188142	63654.615385
2757.546072	63660.737762
2758.906910	63667.077622
2760.265949	63672.634266
2761.621619	63684.350350
2762.980197	63678.511189
2764.335408	63670.997203
2765.690390	63665.425874
2767.043576	63659.170629
2768.399668	63654.332168
2769.752395	63652.434965
2771.104895	63652.262238
2772.457166	63653.986014
2773.810776	63661.546853
2775.161024	63670.013287
2776.509478	63679.592308
2777.860838	63690.839860
2779.208838	63684.125175
2780.558176	63683.784615
2781.905722	63680.710490
2783.253042	63679.851049
2784.600135	63679.527273
2785.945437	63681.216084
2787.290512	63683.478322
2788.635362	63681.065035
2789.979986	63681.658741
2791.321258	63678.602098
2792.663868	63677.576923
2794.006252	63674.987413
2795.348411	63674.230070
2796.687221	63672.902098
2798.028931	63668.156643
2799.367293	63667.776224
2800.706991	63670.061538
2802.044905	63670.678322
2803.381034	63670.512587
2804.716939	63670.915385
2806.054182	63677.552448
2807.389641	63680.976224
2808.724877	63682.748951
2810.058330	63680.025175
2811.393120	63678.311888
2812.724570	63679.486014
2814.058915	63673.383916
2815.388362	63668.974825
2816.719146	63668.183217
2818.049708	63663.258741
2819.378491	63663.858741
2820.708610	63669.363636
2822.036951	63675.779720
2823.365071	63675.125175
2824.691413	63671.406294
2826.019092	63670.153846
2827.343437	63674.023077
2828.669119	63676.117483
2829.993025	63676.207692
2831.316712	63672.762937
2832.641734	63675.492308
2833.963426	63673.181818
2835.284900	63677.886014
2836.606155	63683.497902
2837.927191	63684.381119
2839.246454	63679.953147
2840.567053	63678.902797
2841.885881	63680.645455
2843.204490	63683.801399
2844.521328	63679.361538
2845.837949	63679.988811
2847.154353	63676.756643
2848.468987	63678.740559
2849.784957	63676.327972
2851.097606	63681.324476
2852.411590	63682.218182
2853.725358	63681.909091
2855.038909	63680.279720
2856.350694	63679.637063
2857.660712	63678.499301
2858.972065	63675.132867
2860.280103	63671.312587
2861.589475	63670.346154
2862.898633	63671.246154
2864.207575	63668.639860
2865.514753	63665.365734
2866.820169	63665.195804
2868.126919	63661.369930
2869.431906	63661.019580
2870.736680	63658.737762
2872.039692	63658.341259
2873.345585	63656.466434
2874.646624	63658.148252
2875.948997	63654.437063
2877.249610	63654.695804
2878.551557	63657.103497
2879.853290	63654.200699
2881.151720	63650.377622
2882.451483	63646.395804
2883.749489	63642.940559
2885.047283	63647.925874
2886.343321	63646.460839
2887.640692	63649.546154
2888.936307	63646.767133
2890.231711	63649.000000
2891.526904	63645.315385
2892.818800	63649.227273
2894.113572	63650.544755
2895.405047	63650.273427
2896.697855	63649.301399
2897.990453	63652.362238
2899.279757	63652.513287
2900.570393	63660.286713
2901.859278	63660.102098
2903.149495	63662.046154
2904.436421	63661.788811
2905.724679	63667.284615
2907.011188	63666.474825
2908.297489	63669.927972
2909.583581	63669.460140
2910.867925	63676.509790
2912.155140	63676.174126
2913.437529	63674.849650
2914.721250	63668.868531
2916.003225	63674.044056
2917.284992	63675.036364
2918.565015	63673.732867
2919.847907	63674.484615
2921.129054	63679.386713
2922.406919	63679.096503
2923.687653	63682.080420
2924.965106	63683.178322
2926.242353	63689.272727
2927.517858	63682.264336
2928.796231	63685.363636
2930.069790	63688.374126
2931.346216	63694.606294
2932.620901	63693.120979
2933.893845	63694.131469
2935.168121	63694.986014
2936.440657	63704.558042
2937.712988	63707.580420
2938.982047	63707.920979
2940.253971	63711.224476
2941.524157	63712.046154
2942.794139	63711.760839
2944.063918	63720.196503
2945.331961	63719.243357
2946.598267	63720.530769
2947.864372	63716.309790
2949.131806	63718.556643
2950.397506	63717.130769
2951.663003	63721.930769
2952.928298	63720.385315
2954.190328	63721.919580
2955.453688	63723.960839
2956.716847	63723.888112
2957.978274	63724.532867
2959.241030	63729.899301
2960.502054	63728.078322
2961.761348	63730.602797
2963.020442	63732.546853
2964.279335	63733.239161
2965.538028	63735.200699
2966.796521	63734.781818
2968.053285	63735.538462
2969.309849	63739.088811
2970.564686	63738.454545
2971.820851	63738.824476
2973.073762	63740.130769
2974.328002	63740.841958
2975.582043	63741.746154
2976.834358	63741.876224
2978.086474	63743.927972
2979.336866	63742.306993
2980.590113	63744.566434
2981.838583	63743.141958
2983.089908	63747.402797
2984.337983	63750.089510
2985.585862	63752.611189
2986.833543	63752.958741
2988.081027	63758.666434
2989.326790	63759.898601
2990.572357	63764.483217
2991.819251	63766.804895
2993.062901	63773.258741
2994.307879	63776.288811
2995.549613	63777.497203
2996.794199	63785.350350
2998.037066	63784.974126
2999.276692	63782.860140
3000.519168	63783.960140
3001.758404	63784.357343
3002.998968	63792.627273
3004.237816	63794.161538
3005.476468	63793.627972
3006.713406	63799.599301
3007.951670	63805.325874
3009.188219	63805.273427
3010.424575	63805.430769
3011.660737	63812.007692
3012.895185	63809.857343
3014.129441	63809.409790
3015.363503	63811.910490
3016.595853	63815.151049
3017.826491	63823.965734
3019.059975	63822.390909
3020.291747	63820.844755
3021.521809	63823.209091
3022.751679	63822.595105
3023.979839	63822.827972
3025.209325	63819.403497
3026.437102	63821.616783
3027.664688	63822.996503
3028.893601	63822.867832
3030.117771	63821.630769
3031.344784	63824.251049
3032.568573	63826.197203
3033.793689	63825.881818
3035.017098	63826.481119
3036.240317	63827.376224
3037.461831	63836.111888
3038.686186	63841.394406
3039.905806	63842.488112
3041.126752	63846.509790
3042.347509	63847.395804
3043.566562	63851.455245
3044.786940	63851.927273
3046.004102	63854.341259
3047.222590	63854.790909
3048.439375	63861.182517
3049.655973	63865.964336
3050.872382	63871.825874
3052.085579	63880.993706
3053.301613	63880.556643
3054.514435	63880.763636
3055.730094	63877.832867
3056.941030	63876.711189
3058.153291	63878.051049
3059.365366	63877.384615
3060.577253	63879.097902
3061.787444	63879.499301
3062.997448	63883.666434
3064.207266	63887.057343
3065.415388	63888.502797
3066.623325	63892.679021
3067.829566	63890.165035
3069.037132	63889.418881
3070.243003	63891.874126
3071.448690	63894.767832
3072.654191	63900.113986
3073.857999	63899.417483
3075.063131	63900.986014
3076.266570	63897.795804
3077.468318	63897.417483
3078.669881	63897.926573
3079.871261	63896.942657
3081.072457	63897.581818
3082.271963	63896.611888
3083.471286	63895.051748
3084.671932	63898.816783
3085.870888	63901.022378
3087.066650	63905.216783
3088.265241	63902.955245
3089.460638	63903.225175
3090.657358	63900.221678
3091.850886	63903.632168
3093.047242	63904.527972
3094.241912	63908.754545
3095.433391	63910.320979
3096.629201	63913.338462
3097.820318	63913.154545
3099.012757	63916.469231
3100.202009	63917.984615
3101.394086	63923.151748
3102.584480	63922.434965
3103.771688	63921.845455
3104.960219	63924.121678
3106.150071	63930.038462
3107.336740	63934.237762
3108.523228	63933.034266
3109.709538	63930.438462
3110.897169	63927.932168
3112.081618	63929.236364
3113.264388	63930.169930
3114.449980	63929.251049
3115.633893	63930.337762
3116.816127	63926.600000
3117.998182	63932.456643
3119.180059	63936.953846
3120.361758	63939.199301
3121.541780	63943.296503
3122.720125	63940.735664
3123.901290	63944.193706
3125.079280	63941.863636
3126.257094	63945.462238
3127.434730	63945.119580
3128.610691	63941.851748
3129.786475	63940.029371
3130.963581	63938.076923
3132.139012	63942.116084
3133.312770	63940.172028
3134.484855	63940.310490
3135.658262	63938.376923
3136.831492	63939.516084
3138.003051	63940.991608
3139.175930	63937.174126
3140.345642	63938.646853
3141.516675	63938.841958
3142.686038	63938.725874
3143.853730	63940.358741
3145.024238	63943.282517
3146.190088	63945.874126
3147.360246	63946.040559
3148.525748	63947.031469
3149.691075	63940.350350
3150.856229	63942.917483
3152.021210	63943.503497
3153.187510	63939.676224
3154.349158	63938.972028
3155.512125	63943.075524
3156.674920	63945.370629
3157.837542	63950.539161
3158.998499	63953.669231
3160.159283	63955.687413
3161.319895	63958.135664
3162.478843	63961.116783
3163.637620	63961.277622
3164.796225	63966.246853
3165.954657	63967.502098
3167.112919	63965.327972
3168.269518	63963.791608
3169.424456	63968.493007
3170.580713	63968.098601
3171.735309	63964.141958
3172.889735	63962.502098
3174.042501	63959.834965
3175.195096	63958.197203
3176.347522	63956.235664
3177.499778	63954.718881
3178.651863	63954.620280
3179.800803	63955.726573
3180.952549	63958.736364
3182.102637	63959.058741
3183.251069	63962.714685
3184.399331	63959.765035
3185.547425	63956.201399
3186.695350	63956.601399
3187.841619	63952.111189
3188.987720	63948.947552
3190.132167	63946.432168
3191.276446	63945.289510
3192.420557	63944.442657
3193.565985	63946.311888
3194.708275	63946.513287
3195.850398	63944.204895
3196.992353	63946.798601
3198.134141	63945.623776
3199.275762	63947.559441
3200.414248	63944.118881
3201.554051	63942.144056
3202.695172	63942.838462
3203.833158	63943.113287
3204.969495	63941.425874
3206.105666	63942.914685
3207.243154	63942.615385
3208.378994	63939.625175
3209.516151	63939.490909
3210.648695	63942.081818
3211.785521	63945.820280
3212.917735	63946.974825
3214.051266	63944.142657
3215.184633	63943.323776
3216.314872	63940.258741
3217.447909	63940.428671
3218.577820	63938.895804
3219.709047	63940.034266
3220.837150	63939.915385
3221.968049	63937.583916
3223.097304	63939.013287
3224.224916	63942.055944
3225.349405	63947.856643
3226.478170	63955.581119
3227.603813	63962.857343
3228.729294	63963.974126
3229.853133	63962.604196
3230.979766	63966.801399
3232.101802	63965.886014
3233.225154	63964.758042
3234.348344	63964.327972
3235.471372	63961.093706
3236.592760	63960.570629
3237.713986	63957.388112
3238.833575	63960.008392
3239.953002	63959.741958
3241.070791	63958.326573
3242.191372	63952.274126
3243.308840	63947.592308
3244.426147	63945.531469
3245.543294	63944.000699
3246.658805	63940.783916
3247.775630	63938.739161
3248.889346	63936.104895
3250.005851	63936.428671
3251.120722	63935.403497
3252.232484	63936.072028
3253.344086	63932.347552
3254.457004	63937.622378
3255.569762	63935.744755
3256.679414	63935.602098
3257.790381	63935.130769
3258.901189	63939.297902
3260.010365	63942.875524
3261.117911	63933.776923
3262.226770	63922.853846
3263.335472	63917.467832
3264.441071	63909.667133
3265.547984	63907.609091
3266.653268	63909.919580
3267.759866	63914.080420
3268.863364	63913.706294
3269.968177	63920.965035
3271.072832	63929.554545
3272.174388	63938.278322
3273.275788	63943.461538
3274.378502	63934.754545
3275.481060	63933.030070
3276.580521	63932.169231
3277.682766	63930.295804
3278.781915	63932.089510
3279.879440	63930.652448
3280.976809	63930.498601
3282.076960	63933.598601
3283.174019	63932.781818
3284.270922	63933.932867
3285.367670	63932.764336
3286.459860	63937.339860
3287.556298	63935.676923
3288.651114	63942.504895
3289.745776	63946.330769
3290.838816	63945.506993
3291.931701	63943.008392
3293.022967	63945.447552
3294.115544	63941.615385
3295.206502	63941.301399
3296.295840	63935.569930
3297.385025	63938.218881
3298.475523	63938.848252
3299.562936	63942.847552
3300.650196	63946.852448
3301.738769	63954.518182
3302.827190	63955.248951
3303.911063	63953.700699
3304.999178	63954.397902
3306.084211	63958.462238
3307.167629	63954.391608
3308.252359	63953.328671
3309.335473	63950.095105
3310.419900	63951.304196
3311.501248	63951.886014
3312.583908	63954.517483
3313.664954	63955.827972
3314.745849	63956.013986
3315.825130	63955.416084
3316.904261	63957.116084
3317.984704	63954.811189
3319.062072	63955.699301
3320.140752	63955.076923
3321.217820	63953.941259
3322.294739	63955.091608
3323.370046	63958.630769
3324.445204	63961.286014
3325.521673	63964.427273
3326.595072	63964.462238
3327.668322	63969.337063
3328.742882	63973.469231
3329.815834	63972.353846
3330.887177	63968.576923
3331.959831	63968.310490
3333.029419	63967.969231
3334.100317	63968.026573
3335.169608	63967.032168
3336.240210	63969.893007
3337.309205	63966.647552
3338.376594	63967.241958
3339.442378	63973.338462
3340.512388	63970.311189
3341.579335	63969.548951
3342.643220	63966.493706
3343.709873	63964.968531
3344.774921	63967.585315
3345.838366	63971.619580
3346.901665	63975.449650
3347.964817	63980.325874
3349.027823	63988.369930
3350.090683	63986.096503
3351.151941	63991.717483
3352.210142	63996.348951
3353.272563	63994.711888
3354.331929	63993.518881
3355.391149	63989.707692
3356.451679	63987.463636
3357.507699	63988.039161
3358.566483	63989.042657
3359.620760	63992.892308
3360.677801	63993.339161
3361.733243	63995.725175
3362.789995	63995.744056
3363.845148	63998.152448
3364.898704	63999.941259
3365.950664	64002.751748
3367.005385	63997.653846
3368.057057	63994.709790
3369.108586	63996.513986
3370.161423	63999.167133
3371.211213	63999.188811
3372.262312	64005.193007
3373.310365	64002.897902
3374.361177	64001.799301
3375.408945	64002.669231
3376.456570	63999.765734
3377.504052	63999.319580
3378.549942	63997.233566
3379.597140	63995.945455
3380.641296	64000.686014
3381.688210	64005.309091
3382.733532	64011.109091
3383.775813	64011.930070
3384.817954	64016.059441
3385.861402	64014.136364
3386.904709	64015.565035
3387.946427	64015.917483
3388.988003	64013.679720
3390.029438	64012.560839
3391.069285	64013.155245
3392.107543	64013.990909
3393.147109	64018.199301
3394.186535	64017.925874
3395.224373	64021.144056
3396.260624	64020.406993
3397.296736	64023.823776
3398.334155	64027.868531
3399.368541	64034.422378
3400.404234	64037.856643
3401.439788	64041.004196
3402.472311	64044.914685
3403.507587	64049.014685
3404.539832	64047.153147
3405.571939	64045.969930
3406.602462	64045.165035
3407.634292	64044.678322
3408.665984	64040.552448
3409.694648	64041.809091
3410.723175	64037.570629
3411.753008	64039.700699
3412.782704	64042.844056
3413.809374	64043.512587
3414.837351	64044.781818
3415.862303	64041.892308
3416.890005	64041.347552
3417.914684	64045.419580
3418.940669	64049.099301
3419.965074	64049.897203
3420.989343	64049.695804
3422.012033	64051.976923
3423.034587	64049.742657
3424.058447	64057.231469
3425.079287	64059.453846
3426.099991	64060.591109
3427.122002	64062.250924
3428.140994	64064.955844
3429.159850	64069.228422
3430.180013	64075.591209
3431.197159	64084.566758
