-118.059454	174.156319
-115.389854	167.459341
-112.723189	164.040709
-110.057276	163.271229
-107.394295	164.521703
-104.729885	167.162937
-102.068405	170.565734
-99.405496	174.786014
-96.747693	176.246154
-94.088461	176.768531
-91.429977	174.201399
-88.774417	172.023776
-86.117429	173.716783
-83.465539	176.453846
-80.812218	176.946853
-78.161818	177.677622
-75.509988	176.346853
-72.863249	178.038462
-70.215081	176.205594
-67.567655	174.253846
-64.923143	173.997902
-62.277203	171.725874
-59.636344	171.788112
-56.994056	171.058741
-54.354677	175.668531
-51.713868	180.776224
-49.073800	181.836364
-46.438804	184.582517
-43.802380	185.059441
-41.168858	187.838462
-38.533908	190.009091
-35.904023	189.730070
-33.270546	191.727273
-30.642131	193.299301
-28.014450	193.174825
-25.385340	187.937762
-22.761287	173.269930
-20.133645	123.365035
-17.511056	34.557343
-14.889199	136.802098
-12.268072	499.877622
-9.647675	1010.232867
-7.030167	1410.836364
-4.411230	1675.402797
-1.795178	1802.688112
0.820145	1798.130769
3.434741	1657.355245
6.046454	1387.116783
8.659596	1000.738462
11.267704	541.596503
13.879394	134.981119
16.486053	9.308392
19.094140	93.668531
21.701503	216.817483
24.303841	228.683217
26.909757	230.497203
29.510651	228.499301
32.112973	231.109790
34.710278	235.499301
37.311158	238.292308
39.907023	240.683916
42.504317	241.038462
45.100891	238.273427
47.692456	240.646154
50.285449	244.393706
52.875581	248.069231
55.467141	252.560140
58.055841	256.858042
60.645968	261.977622
63.231096	267.919580
65.817652	272.470629
68.403494	277.783916
70.986482	283.383217
73.570896	286.410490
76.148182	288.662238
78.729034	300.005594
81.307037	308.896503
83.884330	315.126573
86.463049	326.185315
89.036786	335.531469
91.611951	347.775524
94.184272	358.559441
96.755885	364.473427
99.324658	377.374126
101.894858	393.172727
104.462220	412.404196
107.031007	438.899301
109.596958	481.443357
112.160074	527.242657
114.726746	601.302098
117.284197	716.790909
119.847333	903.331469
122.405509	1258.471329
124.967240	1900.578322
127.524014	2977.831469
130.082215	4782.331469
132.635462	7345.233566
135.188012	10754.476923
137.744112	14800.534965
140.295264	19198.283916
142.845719	23660.295804
145.395476	27823.958042
147.942414	31368.563636
150.488657	34127.259441
153.036325	35982.744755
155.583297	37059.579021
158.125334	37507.018881
160.666677	37648.911189
163.207327	37597.642657
165.749403	37532.944755
168.288667	37495.824476
170.825123	37447.304895
173.360887	37441.681818
175.898077	37396.157343
178.434576	37352.044755
180.968269	37338.197203
183.499158	37310.323776
186.029360	37336.486713
188.560986	37356.378322
191.089811	37400.541958
193.615837	37481.672028
196.141177	37547.036364
198.667942	37617.803497
201.191911	37607.227273
203.715195	37579.318881
206.237794	37507.247552
208.757600	37457.715385
211.276723	37462.502098
213.795163	37465.027972
216.315027	37511.969231
218.827890	37552.502797
221.344284	37593.921678
223.859996	37684.025175
226.370818	37752.428671
228.883065	37799.909091
231.392530	37833.675524
233.901316	37844.078322
236.409423	37854.969930
238.918955	37893.057343
241.423606	37911.169231
243.927581	37917.733566
246.432980	37944.434965
248.933504	37912.564336
251.437552	37872.667832
253.934628	37839.188811
256.435228	37824.176224
258.933056	37796.834965
261.430211	37777.295804
263.926693	37750.918881
266.418312	37757.179021
268.913451	37726.958042
271.405823	37664.074825
273.897525	37624.400699
276.386464	37563.390210
278.876827	37476.443357
281.364427	37410.032168
283.849268	37322.538462
286.337624	37240.572028
288.819040	37162.597902
291.303970	37116.011888
293.784055	37059.390210
296.267652	37023.784615
298.746406	36959.152448
301.226584	36898.469930
303.704009	36828.267832
306.180771	36750.723077
308.656870	36685.372028
311.130220	36688.368531
313.602908	36683.753147
316.074935	36689.458042
318.546301	36717.247552
321.014922	36765.574825
323.482885	36857.634266
325.952269	36919.360140
328.416831	36968.385315
330.884897	37043.100699
333.348143	37076.491608
335.810731	37116.660839
338.272663	37162.506294
340.733938	37271.509091
343.192479	37315.625874
345.652442	37314.325175
348.109672	37301.051748
350.566248	37300.841259
353.022170	37282.733566
355.475362	37191.265734
357.929977	37094.564336
360.379790	37022.563636
362.833099	36889.689510
365.281610	36735.608392
367.729469	36613.877622
370.178751	36518.077622
372.623239	36398.378322
375.069149	36319.767133
377.514409	36283.327273
379.956951	36276.404895
382.398845	36249.505594
384.840092	36236.196503
387.278623	36255.096503
389.718576	36269.941259
392.155815	36255.944056
394.590342	36214.379720
397.028357	36246.240559
399.461595	36267.569930
401.896254	36295.346853
404.326141	36376.089510
406.759513	36462.437762
409.188115	36546.993007
411.616075	36624.735664
414.045457	36664.706993
416.470073	36760.634965
418.896111	36816.673427
421.321508	36847.574126
423.746265	36900.876224
426.166264	36946.263636
428.587684	36972.030769
431.006407	36995.358741
433.426551	37047.419580
435.844000	37065.288112
438.262869	37074.300000
440.679045	37116.495804
443.090473	37127.189510
445.505379	37187.964336
447.917594	37263.915385
450.329175	37309.857343
452.740122	37380.996503
455.148383	37413.744755
457.556011	37441.925874
459.963007	37457.295804
462.369372	37451.558042
464.773054	37424.930070
467.176106	37400.687413
469.578528	37393.432168
471.980320	37403.095804
474.379435	37375.986014
476.779969	37385.803497
479.179874	37323.737063
481.575056	37304.350350
483.973705	37214.258741
486.367634	37147.455245
488.760937	37079.604196
491.153614	37008.086713
493.545666	36945.869231
495.939136	36852.490210
498.327894	36804.965035
500.713986	36764.672727
503.101498	36661.775524
505.488387	36615.483916
507.872612	36536.827972
510.258255	36508.727273
512.641237	36416.490909
515.021558	36402.623077
517.403298	36370.268531
519.782379	36377.608392
522.162879	36375.956643
524.540721	36377.416084
526.915908	36410.737762
529.290477	36415.799301
531.666464	36443.463636
534.039799	36442.971329
536.414551	36441.341958
538.784618	36431.874825
541.154069	36397.804895
543.524938	36373.612587
545.891127	36318.250350
548.258734	36276.578322
550.623695	36239.977622
552.988043	36239.660839
555.351778	36219.356643
557.716931	36226.061538
560.077412	36230.230769
562.439311	36201.739161
564.798569	36224.495105
567.155190	36203.513986
569.515255	36195.909091
571.868629	36165.123077
574.225448	36113.586713
576.579632	36079.451049
578.933208	36062.943357
581.286175	36030.291608
583.636510	35986.341259
585.988263	35946.875524
588.333339	35909.612587
590.683879	35884.805594
593.027745	35840.634965
595.377073	35771.439860
597.721752	35749.564336
600.063807	35662.579021
602.407279	35600.173427
604.748128	35542.109790
607.088375	35463.519580
609.426001	35399.500699
611.767062	35345.767133
614.103485	35301.446853
616.441325	35297.211189
618.776548	35261.946154
621.109155	35222.631469
623.443178	35189.907692
625.774587	35162.492308
628.105398	35078.037063
630.435612	35047.035664
632.765227	35013.219580
635.090220	34987.086014
637.420653	34967.133566
639.746466	34967.238462
642.069671	34990.944056
644.394293	35043.655944
646.716309	35057.821678
649.037731	35097.069231
651.356551	35122.574825
653.676786	35124.337762
655.996428	35169.990210
658.313469	35173.561538
660.629918	35203.525874
662.943769	35248.369231
665.259036	35266.822378
667.571706	35304.862937
669.885791	35322.201399
672.195276	35378.860140
674.506177	35386.092308
676.814485	35413.512587
679.122205	35430.567832
681.431339	35403.125175
683.735881	35431.549650
686.039837	35365.061538
688.343207	35363.504895
690.647991	35380.988112
692.948189	35366.841259
695.249801	35355.534965
697.550829	35341.937063
699.847274	35315.397902
702.145135	35280.092308
704.442412	35267.779021
706.739106	35261.383916
709.031224	35233.679021
711.326753	35234.616084
713.617708	35188.241958
715.910078	35199.597902
718.199873	35232.777622
720.489087	35217.295105
722.777722	35251.535664
725.063784	35267.303497
727.351261	35252.867832
729.636166	35286.370629
731.920494	35294.992308
734.202253	35333.870629
736.485426	35396.453147
738.768022	35428.533566
741.046062	35460.865035
743.325517	35551.760140
745.604395	35585.996503
747.882699	35608.209091
750.156453	35682.395804
752.431620	35711.397902
754.706214	35729.460140
756.978249	35739.492308
759.251697	35728.582517
761.522587	35779.369930
763.790921	35803.610490
766.060668	35799.116084
768.327861	35805.277622
770.594483	35824.847552
772.860535	35780.203497
775.124036	35743.261538
777.388950	35724.399301
779.653294	35692.086713
781.913109	35667.045455
784.174336	35669.318881
786.434996	35686.634965
788.693110	35730.001399
790.948679	35726.772028
793.207639	35693.600699
795.460100	35671.471329
797.717927	35636.206993
799.971236	35558.651049
802.222005	35463.693706
804.474186	35411.982517
806.723828	35338.895105
808.974883	35281.427972
811.221426	35242.259441
813.469381	35206.730769
815.714802	35176.375524
817.961634	35124.767832
820.207905	35036.606294
822.449671	34999.444056
824.694821	34965.463636
826.933498	34925.472028
829.175557	34837.870629
831.413118	34810.796503
833.652091	34781.926573
835.888537	34756.671329
838.126394	34736.632867
840.361726	34724.844755
842.594535	34780.715385
844.828755	34809.944056
847.060452	34872.367832
849.291595	34934.086713
851.522183	35004.502098
853.752217	35035.893007
855.981697	35059.214685
858.206695	35119.860140
860.435068	35111.829371
862.658961	35088.375524
864.884266	35052.574126
867.105095	35024.732168
869.329296	35052.092308
871.549024	35031.257343
873.770162	35022.897203
875.990750	35012.023776
878.208829	35014.511888
880.428317	34986.180420
882.643339	34954.658741
884.857814	34914.058042
887.071740	34819.537063
889.285120	34764.537762
891.497952	34696.727972
893.710238	34656.547552
895.920021	34619.093706
898.129259	34580.764336
900.337952	34565.467133
902.544146	34581.648252
904.751749	34597.679021
906.956854	34592.759441
909.161416	34588.160140
911.363483	34649.783217
913.566959	34707.913986
915.767941	34808.432867
917.968381	34881.795105
920.170230	34967.754545
922.365688	35062.651748
924.564505	35150.230769
926.758883	35219.165035
928.956619	35274.143357
931.149919	35320.622378
933.344628	35386.302797
935.536851	35432.780420
937.728535	35501.593706
939.919682	35581.015385
942.108346	35652.937762
944.296474	35705.597902
946.482121	35790.948252
948.671120	35910.769930
950.855696	35992.748951
953.039737	36078.313287
955.227128	36201.369231
957.406215	36330.829371
959.588653	36512.743357
961.770557	36681.437063
963.949986	36828.437762
966.126943	36990.811888
968.305308	37113.620979
970.485080	37214.182517
972.658503	37328.013287
974.835272	37459.133566
977.007634	37562.456643
979.181404	37684.475524
981.350770	37782.828671
983.523480	37907.045455
985.693725	38042.817483
987.863441	38167.895804
990.032628	38295.604895
992.197418	38412.201399
994.365549	38551.664336
996.529286	38682.081119
998.694429	38848.538462
1000.857113	38999.671329
1003.019272	39143.572727
1005.178974	39250.851049
1007.338151	39304.058042
1009.498735	39403.058042
1011.656865	39459.215385
1013.814470	39493.573427
1015.971552	39565.783916
1018.128110	39608.283217
1020.280289	39753.227972
1022.433875	39922.000699
1024.586939	40119.048951
1026.737554	40325.238462
1028.889576	40583.356643
1031.037224	40780.483916
1033.188204	41003.115385
1035.334813	41201.784615
1037.480903	41347.106294
1039.626475	41457.797902
1041.773452	41520.248252
1043.914140	41570.872028
1046.058158	41634.581818
1048.199735	41693.394406
1050.340796	41766.691608
1052.483261	41819.059441
1054.619447	41899.848252
1056.758958	41864.367832
1058.894115	41853.880420
1061.032596	41807.059441
1063.166723	41712.165035
1065.300337	41607.909790
1067.435356	41471.269930
1069.566025	41338.639161
1071.698099	41171.533566
1073.827744	41007.813287
1075.956877	40882.462238
1078.085498	40742.125874
1080.213608	40612.587413
1082.339292	40430.937063
1084.464466	40264.637762
1086.591044	40098.176224
1088.713284	39902.021678
1090.836929	39754.287413
1092.956239	39580.683217
1095.080779	39402.712587
1097.199073	39250.489510
1099.318772	39107.988112
1101.436052	39000.687413
1103.552826	38865.420280
1105.669093	38750.299301
1107.782944	38632.211189
1109.898200	38495.335664
1112.009132	38375.822378
1114.123377	38241.533566
1116.233301	38135.036364
1118.344629	38023.955245
1120.455452	37943.129371
1122.561959	37904.004895
1124.671776	37844.025874
1126.777278	37826.238462
1128.884183	37743.519580
1130.984873	37691.330070
1133.090775	37620.137063
1135.192368	37579.790909
1137.295364	37503.169930
1139.397859	37374.116783
1141.494147	37278.476923
1143.595643	37203.501399
1145.692835	37125.591608
1147.789530	37068.202797
1149.885726	36975.593706
1151.981425	36942.890210
1154.076625	36887.838462
1156.169429	36870.016084
1158.263636	36858.082517
1160.351651	36903.659441
1162.444864	36860.751049
1164.531889	36842.380420
1166.622213	36894.090909
1168.708250	36930.550350
1170.797584	36974.516783
1172.880737	36992.243357
1174.965292	37053.563636
1177.051249	37090.123776
1179.132924	37188.835664
1181.216001	37159.309091
1183.296692	37202.371329
1185.376891	37207.793706
1187.456599	37131.386713
1189.535816	37110.497902
1191.612651	37088.965734
1193.687105	37051.488112
1195.764850	37043.053147
1197.838326	37052.589510
1199.913202	37101.968531
1201.983811	37099.241958
1204.055821	37249.894406
1206.125456	37255.897902
1208.196491	37329.976923
1210.267038	37359.710490
1212.333324	37338.937762
1214.401011	37368.175524
1216.466326	37351.548951
1218.533041	37299.123077
1220.595500	37268.506993
1222.661244	37260.665734
1224.722734	37190.765734
1226.785625	37241.062937
1228.846148	37384.882517
1230.906187	37354.577622
1232.965744	37365.169930
1235.022935	37489.225874
1237.079645	37483.060140
1239.133991	37589.039860
1241.191619	37710.493706
1243.246884	37808.230769
1245.297908	37879.171329
1247.350332	38058.386014
1249.402276	38221.218182
1251.451862	38429.572727
1253.500969	38643.961538
1255.549598	38708.680420
1257.597748	38868.954545
1259.645419	39093.864336
1261.688860	39148.595105
1263.735577	39342.167133
1265.779940	39591.735664
1267.823827	39888.734965
1269.865362	40055.852448
1271.904548	40440.197902
1273.947007	40763.076923
1275.985243	41109.604895
1278.024878	41520.607692
1280.064038	41910.339161
1282.098979	42402.229371
1284.135319	42978.267133
1286.169315	43550.757343
1288.204708	44145.490909
1290.235889	44814.409790
1292.268467	45492.832168
1294.300574	45961.864336
1296.330340	46567.125874
1298.361504	46911.287413
1300.388460	47316.058042
1302.416814	47598.206993
1304.440963	47872.407692
1306.468378	48300.672727
1308.491590	49000.656643
1310.516200	50388.206294
1312.538476	52266.960839
1314.562149	54565.613287
1316.583489	56987.874126
1318.604361	59326.786713
1320.624766	61476.566434
1322.640978	63100.550350
1324.658587	64331.805594
1326.673868	64899.160140
1328.692408	64976.244056
1330.706759	65151.036364
1332.718784	65275.390210
1334.734066	65228.851748
1336.745163	64467.272727
1338.757657	62912.476224
1340.765968	60643.404196
1342.777534	57852.904895
1344.783062	54705.583217
1346.791845	51437.360839
1348.796450	48260.271329
1350.804309	45561.613986
1352.811706	43518.981119
1354.813072	42482.635664
1356.815834	41934.580420
1358.818137	41474.833566
1360.819980	41120.378322
1362.821363	40754.616084
1364.820433	40526.183217
1366.819044	40338.606294
1368.817197	40158.544056
1370.814891	40048.283217
1372.808423	39872.930769
1374.803351	39823.953147
1376.797821	39706.402098
1378.791835	39548.702797
1380.783542	39481.136364
1382.774794	39360.475524
1384.763740	39329.412587
1386.754081	39211.013986
1388.743967	39172.020280
1390.731549	39077.546853
1392.718678	39036.997902
1394.703505	39113.969231
1396.689727	39120.907692
1398.673649	39263.771329
1400.657118	39294.346154
1402.640134	39341.103497
1404.620853	39428.097902
1406.602966	39494.118182
1408.582783	39582.753846
1410.562148	39655.429371
1412.537375	39691.024476
1414.515840	39801.472028
1416.492012	39917.669930
1418.467735	40101.413287
1420.443008	40215.395804
1422.415990	40359.840559
1424.388524	40421.218182
1426.360610	40564.937762
1428.332249	40642.130769
1430.299759	40791.265035
1432.272343	40875.306993
1434.237122	40980.074126
1436.206972	41050.578322
1438.172699	41162.793706
1440.139818	41229.490909
1442.104654	41289.864336
1444.065370	41290.374126
1446.031154	41294.113287
1447.990983	41348.944755
1449.952206	41379.535664
1451.914821	41412.995804
1453.873321	41514.254545
1455.831378	41531.356643
1457.788994	41551.967133
1459.746167	41599.089510
1461.701065	41647.969231
1463.657356	41692.866434
1465.611372	41645.527273
1467.564947	41632.915385
1469.516250	41627.284615
1471.468946	41632.298601
1473.419369	41537.237063
1475.369354	41478.581818
1477.318900	41464.686014
1479.266177	41390.671329
1481.211186	41357.601399
1483.157588	41329.011189
1485.103552	41318.705594
1487.049079	41288.394406
1488.992340	41207.299301
1490.935166	41242.253846
1492.875728	41211.355944
1494.817681	41198.065734
1496.757372	41172.990909
1498.696629	41201.997203
1500.635450	41208.869231
1502.572012	41198.198601
1504.509965	41194.102098
1506.445659	41176.534266
1508.380920	41200.693706
1510.313925	41212.178322
1512.246497	41240.293706
1514.178637	41282.613287
1516.110345	41323.128671
1518.039799	41427.537762
1519.970644	41511.061538
1521.901057	41630.694406
1523.827398	41686.813986
1525.755130	41764.550350
1527.680611	41759.683217
1529.605663	41820.167832
1531.530286	41882.039161
1533.454480	41995.840559
1535.376426	42088.694406
1537.299763	42120.288112
1539.220853	42230.525874
1541.139700	42342.741958
1543.059935	42395.992308
1544.977928	42450.874825
1546.895494	42454.881119
1548.810818	42468.804895
1550.727532	42429.897902
1552.640191	42394.132168
1554.556054	42487.882517
1556.469677	42511.599301
1558.381062	42531.381119
1560.293837	42551.003497
1562.202562	42630.455245
1564.112676	42677.088811
1566.022367	42743.644056
1567.931635	42714.197902
1569.838669	42689.044755
1571.743470	42765.500699
1573.649660	42828.371329
1575.553618	42872.306993
1577.457155	42964.477622
1579.360272	42969.780420
1581.261159	43010.139860
1583.163435	43007.794406
1585.063483	42984.753147
1586.964918	42988.472028
1588.862320	42996.487413
1590.759303	42884.408392
1592.655868	42911.192308
1594.553821	43043.730769
1596.445939	43044.964336
1598.341250	43058.118182
1600.236144	43084.114685
1602.128816	43146.056643
1604.021071	43170.597203
1605.911107	43197.297902
1607.800727	43223.465734
1609.689932	43271.618182
1611.578722	43308.221678
1613.465294	43405.059441
1615.353254	43553.453147
1617.237197	43611.174126
1619.122527	43648.449650
1621.007444	43691.122378
1622.890147	43748.319580
1624.774237	43791.304196
1626.654315	43844.869231
1628.535781	43879.652448
1630.415036	43926.788112
1632.295677	43972.576923
1634.170514	44049.074126
1636.050332	44174.485315
1637.926146	44228.965734
1639.801549	44286.737063
1641.678338	44400.860839
1643.549331	44369.878322
1645.423505	44410.059441
1647.293680	44423.089510
1649.167037	44386.133566
1651.038190	44352.278322
1652.907141	44347.111189
1654.777477	44330.701399
1656.643821	44226.419580
1658.511550	44333.258741
1660.377080	44290.559441
1662.243996	44268.582517
1664.106923	44232.085315
1665.971235	44214.219580
1667.833351	44172.553846
1669.695062	44144.289510
1671.558159	44057.549650
1673.419060	44041.127273
1675.277769	44056.768531
1677.136074	44035.134965
1678.995764	44073.209790
1680.849686	44213.704895
1682.706782	44247.148951
1684.563475	44288.024476
1686.416191	44329.120979
1688.272079	44359.217483
1690.123993	44347.585315
1691.975506	44382.174126
1693.826618	44318.423077
1695.677330	44305.082517
1697.527641	44186.657343
1699.375767	44189.705594
1701.225278	44136.011888
1703.069040	44033.487413
1704.917751	43955.791608
1706.760716	43818.434965
1708.606848	43754.711189
1710.449017	43655.584615
1712.294352	43639.436364
1714.133946	43566.679720
1715.974924	43429.660839
1717.817285	43366.732168
1719.655690	43277.096503
1721.495478	43289.403497
1723.333091	43099.931469
1725.170308	43019.105594
1727.005352	42879.630070
1728.841779	42760.993007
1730.676034	42686.886713
1732.509894	42557.742657
1734.343360	42492.302098
1736.172881	42371.216084
1738.005560	42205.277622
1739.834295	42103.250350
1741.666187	41946.915385
1743.494137	41784.596503
1745.321696	41615.249650
1747.148862	41477.879021
1748.975637	41285.299301
1750.802020	41145.759441
1752.624467	40987.377622
1754.450069	40863.453846
1756.271736	40713.056643
1758.094785	40564.400699
1759.915672	40401.925874
1761.736171	40243.307692
1763.558051	40099.895804
1765.374231	40000.737762
1767.193563	39902.352448
1769.008968	39800.956643
1770.827523	39689.628671
1772.642153	39652.723776
1774.456396	39598.191608
1776.270253	39556.494406
1778.083723	39499.111189
1779.895040	39463.425175
1781.707737	39426.206993
1783.520049	39372.048951
1785.328443	39351.526573
1787.138217	39301.646154
1788.944077	39241.469231
1790.753082	39169.062238
1792.558174	39071.865035
1794.364647	39039.449650
1796.170736	38971.564336
1797.972914	38923.423077
1799.778237	38851.775524
1801.579651	38781.376923
1803.382445	38705.865734
1805.181333	38622.947552
1806.981602	38571.183217
1808.781489	38501.362937
1810.579234	38426.209790
1812.376599	38368.202098
1814.173584	38337.030769
1815.970188	38333.346853
1817.764653	38311.423776
1819.560497	38296.897902
1821.350686	38236.649650
1823.145772	38228.526573
1824.935206	38172.141958
1826.727776	38140.251748
1828.518211	38106.305594
1830.306512	38067.650350
1832.097948	38003.634266
1833.883738	37951.166434
1835.670908	37927.076923
1837.455946	37880.418182
1839.244118	37848.008392
1841.028404	37810.822378
1842.810560	37797.720979
1844.594096	37849.825175
1846.375503	37856.547552
1848.158289	37874.217483
1849.937194	37864.546154
1851.717479	37888.182517
1853.495637	37871.858042
1855.275174	37848.753846
1857.052586	37845.055245
1858.827874	37810.409790
1860.604540	37837.020280
1862.379084	37864.530769
1864.155006	37878.334965
1865.925307	37934.360140
1867.698736	37927.620979
1869.470045	37956.168531
1871.240983	37966.123776
1873.013299	38016.330769
1874.780001	38021.332867
1876.549829	38037.862238
1878.315793	38080.349650
1880.084880	38078.779021
1881.850106	38106.911189
1883.614964	38095.867133
1885.381199	38077.421678
1887.143575	38063.450350
1888.905584	38081.381119
1890.667225	38097.808392
1892.428500	38112.558042
1894.189407	38163.207692
1895.949948	38195.860140
1897.708379	38258.606294
1899.466444	38319.523776
1901.222402	38383.468531
1902.979736	38485.491608
1904.736705	38546.902098
1906.491567	38672.783916
1908.244325	38757.114685
1909.996718	38868.504895
1911.750488	38954.898601
1913.502154	39081.421678
1915.251718	39203.113287
1917.002657	39343.347552
1918.753234	39477.930070
1920.499971	39597.874126
1922.248085	39782.951049
1923.994099	39927.407692
1925.741488	40045.560140
1927.486780	40207.790909
1929.229974	40294.385315
1930.974543	40451.446154
1932.717017	40605.167832
1934.459130	40767.464336
1936.200883	40943.840909
1937.942276	41147.398601
1939.681576	41331.598252
1941.420517	41527.111888
1943.159099	41727.274476
1944.895590	41877.691608
1946.631723	42032.412937
1948.369230	42163.892308
1950.102915	42291.465385
1951.837975	42478.792308
1953.570946	42618.076573
1955.303561	42793.474126
1957.035820	42959.508042
1958.767722	43113.419580
1960.497538	43236.150350
1962.225269	43381.968531
1963.954375	43517.802098
1965.683126	43641.211888
1967.409793	43737.848951
1969.136106	43852.757343
1970.863792	43970.997902
1972.585942	44101.986713
1974.311193	44246.957343
1976.032637	44414.613986
1977.757182	44534.153846
1979.479646	44636.120979
1981.198308	44729.567133
1982.920068	44862.445455
1984.638026	44971.190909
1986.357357	45085.265035
1988.072889	45182.395105
1989.793241	45324.316084
1991.509795	45382.267133
1993.222552	45521.745455
1994.938405	45601.065734
1996.652186	45742.446154
1998.365617	45861.753147
2000.076977	45938.355245
2001.789709	46045.244056
2003.498651	46170.220979
2005.210685	46297.263636
2006.917211	46452.027972
2008.626828	46533.843357
2010.334379	46635.879021
2012.041581	46731.846154
2013.746718	46805.470629
2015.451509	46844.821678
2017.157671	46945.370629
2018.860051	47004.927972
2020.563802	47036.666434
2022.265491	47101.321678
2023.966835	47163.588811
2025.667833	47215.243357
2027.366770	47300.234266
2029.067079	47344.990909
2030.763613	47409.539161
2032.461518	47492.362238
2034.157364	47523.179021
2035.856296	47610.495804
2037.549742	47684.724476
2039.244559	47701.590909
2040.939034	47763.711189
2042.629740	47781.397902
2044.323530	47768.329371
2046.013553	47746.786014
2047.704947	47751.135664
2049.394288	47706.763636
2051.084999	47628.750350
2052.771947	47596.230769
2054.458556	47539.972028
2056.146534	47520.068531
2057.830753	47478.274126
2059.516343	47432.135664
2061.201593	47439.125175
2062.884794	47388.122378
2064.569366	47343.856643
2066.248475	47353.663636
2067.932369	47365.790909
2069.610802	47358.284615
2071.292313	47351.642657
2072.970072	47394.511888
2074.647495	47412.455944
2076.326287	47454.702797
2078.003037	47468.625175
2079.677745	47501.014685
2081.353822	47485.549650
2083.027859	47473.597902
2084.701560	47438.934965
2086.374926	47446.532168
2088.046253	47406.667832
2089.717246	47388.144056
2091.387905	47332.773427
2093.058230	47386.818881
2094.728221	47391.921678
2096.396176	47433.679720
2098.063798	47494.568531
2099.729385	47602.389510
2101.396341	47728.393706
2103.061264	47878.367832
2104.725855	47978.520280
2106.388414	48090.496503
2108.052341	48182.723077
2109.714237	48271.673427
2111.375803	48338.076224
2113.037037	48464.695105
2114.696243	48519.348252
2116.355118	48609.273427
2118.013664	48693.934965
2119.671880	48787.339161
2121.326372	48883.441958
2122.983929	48966.718182
2124.641157	48984.419580
2126.294663	49036.385315
2127.949537	49059.915385
2129.600692	49021.404196
2131.254910	49021.462937
2132.905411	49035.930070
2134.557278	49081.882517
2136.203737	49126.992308
2137.854951	49226.905594
2139.502451	49282.982517
2141.151318	49389.027273
2142.798166	49454.227273
2144.444689	49525.495105
2146.090886	49637.472028
2147.733375	49671.569930
2149.378922	49696.496503
2151.020762	49728.266434
2152.665659	49796.541259
2154.306850	49852.965734
2155.947719	49872.593706
2157.588263	49925.500000
2159.226795	49908.237762
2160.866693	49878.074825
2162.502891	49843.272028
2164.140455	49853.097902
2165.777697	49880.365035
2167.412929	49889.904196
2169.047840	49899.487413
2170.682428	49883.953846
2172.316696	49932.865035
2173.947270	49982.182517
2175.580896	49990.030070
2177.210830	50016.889510
2178.842129	50055.777622
2180.471423	50031.681818
2182.100398	50039.674126
2183.729053	50072.139860
2185.357389	50057.802797
2186.983723	50022.836364
2188.609738	49944.760140
2190.233751	49911.960140
2191.859130	49890.890909
2193.482508	49880.581119
2195.107251	49828.546154
2196.728313	49842.658741
2198.349058	49819.328671
2199.971168	49792.777622
2201.591280	49805.940559
2203.209395	49807.481119
2204.827195	49795.940559
2206.444680	49774.742657
2208.061849	49786.570629
2209.678703	49862.482517
2211.295241	49881.989510
2212.909787	49930.700000
2214.522340	49942.473427
2216.136257	50009.158042
2217.748183	50040.648951
2219.361472	50142.906294
2220.972771	50213.758741
2222.582080	50250.875524
2224.192753	50319.757343
2225.801437	50396.981119
2227.409808	50501.951049
2229.016193	50623.114685
2230.623941	50681.116084
2232.229702	50807.302098
2233.835152	50869.265035
2235.438617	50962.999301
2237.043445	51069.479021
2238.646289	51146.258741
2240.247150	51205.339161
2241.849374	51255.123776
2243.449616	51286.542657
2245.051220	51354.831469
2246.649171	51386.072028
2248.248485	51499.108392
2249.845819	51566.684615
2251.442845	51693.136364
2253.041233	51763.376923
2254.635972	51870.213287
2256.228734	51967.554545
2257.822859	52030.914685
2259.418345	52097.301399
2261.010186	52130.085315
2262.601721	52148.311888
2264.194618	52169.045455
2265.782205	52210.410490
2267.374488	52236.527273
2268.961465	52193.286014
2270.551469	52195.122378
2272.136169	52142.178322
2273.725563	52073.690210
2275.309655	51931.825175
2276.895107	51767.033566
2278.478591	51666.965035
2280.065100	51598.391608
2281.647976	51562.156643
2283.230549	51537.674476
2284.812818	51556.208392
2286.391457	51538.170280
2287.973121	51503.499301
2289.551156	51522.322727
2291.132214	51493.102098
2292.709645	51445.917832
2294.285113	51366.972028
2295.863603	51312.287063
2297.438469	51301.616783
2299.013034	51264.827622
2300.587299	51213.765734
2302.161263	51174.714336
2303.734926	51118.709091
2305.308290	51076.970629
2306.878035	51036.365734
2308.447481	51044.060140
2310.019945	51077.736364
2311.587135	51090.327972
2313.157343	51169.127972
2314.723936	51245.977622
2316.291889	51332.086713
2317.857886	51438.894406
2319.423586	51537.759441
2320.988988	51628.279720
2322.552437	51713.225874
2324.117245	51830.391608
2325.678445	51880.076923
2327.242659	51924.513986
2328.801611	51962.918881
2330.363578	51931.536364
2331.923593	51969.154545
2333.483314	51970.198601
2335.041085	51964.019580
2336.598561	51974.546853
2338.155743	51965.713287
2339.710977	51976.986713
2341.265918	51985.855245
2342.820564	51960.647552
2344.374917	51889.493007
2345.928977	51869.213986
2347.482742	51831.551748
2349.034564	51772.567133
2350.584442	51753.364336
2352.137328	51683.937063
2353.684972	51617.440559
2355.235623	51568.906294
2356.782683	51549.513287
2358.331101	51528.413986
2359.879228	51479.646154
2361.423766	51428.418182
2362.969662	51419.576224
2364.513620	51385.672028
2366.058935	51381.172028
2367.600665	51349.700699
2369.143752	51319.274825
2370.684903	51294.169930
2372.225765	51270.586014
2373.766338	51268.367133
2375.306622	51263.522378
2376.846617	51247.258741
2378.383034	51220.446154
2379.922452	51232.719580
2381.458293	51237.431469
2382.995490	51265.876923
2384.529112	51319.115385
2386.065734	51347.480420
2387.600426	51418.715385
2389.133188	51485.908392
2390.665663	51553.025175
2392.196210	51624.344056
2393.729755	51656.584615
2395.258089	51702.937063
2396.787780	51761.509091
2398.317184	51800.115385
2399.846304	51854.689510
2401.375139	51903.693706
2402.898768	51905.030769
2404.427033	51948.684615
2405.950096	51991.886713
2407.477792	52042.967832
2408.998649	52094.679720
2410.524139	52136.668531
2412.046068	52200.017483
2413.569353	52282.888112
2415.090716	52321.726573
2416.610160	52319.514685
2418.130959	52352.158042
2419.649840	52340.924476
2421.168438	52321.382517
2422.685119	52367.334266
2424.203154	52409.513986
2425.720908	52449.381119
2427.235111	52497.147552
2428.749033	52580.844755
2430.262675	52657.041958
2431.777672	52731.558741
2433.289120	52737.387413
2434.801923	52768.692308
2436.312812	52813.185315
2437.823423	52827.837063
2439.332122	52851.184615
2440.843807	52893.258741
2442.351949	52934.602098
2443.859813	52968.583217
2445.367399	53052.164336
2446.871444	53122.636364
2448.378474	53196.445455
2449.883597	53284.741958
2451.388441	53326.885315
2452.891379	53370.360140
2454.394041	53395.042657
2455.896426	53387.408392
2457.396906	53392.251049
2458.898739	53384.763636
2460.398667	53433.260839
2461.898320	53478.041259
2463.397698	53543.253846
2464.895173	53612.497902
2466.390746	53723.269930
2467.889299	53829.734266
2469.384324	53888.439161
2470.880701	53970.961538
2472.373552	54030.142657
2473.867756	54110.590909
2475.361686	54163.918881
2476.852092	54216.895105
2478.345476	54254.618881
2479.836962	54273.947552
2481.326551	54312.858042
2482.815868	54346.201399
2484.303289	54378.127273
2485.793686	54388.153846
2487.280565	54399.478322
2488.768795	54432.148252
2490.253508	54434.958042
2491.737952	54456.341958
2493.223746	54413.221678
2494.707649	54396.169231
2496.192902	54380.169930
2497.673022	54377.774126
2499.156115	54377.323776
2500.637317	54374.093007
2502.118250	54352.633566
2503.597294	54343.181119
2505.076069	54328.826573
2506.554576	54288.140559
2508.032815	54245.915385
2509.510785	54186.039161
2510.985250	54068.664336
2512.462685	54029.920979
2513.936616	53954.534965
2515.411897	53864.481818
2516.886911	53806.623077
2518.358425	53735.109790
2519.831288	53657.013986
2521.302269	53587.469930
2522.774600	53531.794406
2524.241817	53427.997902
2525.712001	53350.846853
2527.180304	53267.875524
2528.648342	53175.233566
2530.116115	53163.692308
2531.583623	53101.487413
2533.050866	53084.892308
2534.514617	53082.827273
2535.979718	53072.749650
2537.442942	53075.214685
2538.907516	53050.855245
2540.368600	53066.411189
2541.831034	53053.657343
2543.293205	53052.425874
2544.751890	53054.974825
2546.215147	53068.323776
2547.673307	53095.353147
2549.132816	53079.451748
2550.587231	53095.118881
2552.046217	53049.790909
2553.503331	53012.347552
2554.958574	52989.079021
2556.413555	52911.879021
2557.866668	52935.908392
2559.321129	52917.749650
2560.773720	52910.754545
2562.226052	52926.241259
2563.676517	52974.583916
2565.129937	53019.179021
2566.578275	53076.020280
2568.029569	53153.249650
2569.478996	53193.118182
2570.924951	53279.295105
2572.373861	53324.941259
2573.819301	53356.189510
2575.266088	53422.980420
2576.711013	53446.332867
2578.155679	53446.852448
2579.601693	53435.646154
2581.044241	53405.213986
2582.488136	53385.313986
2583.928566	53396.237762
2585.370343	53390.839860
2586.810261	53386.540559
2588.251526	53426.504895
2589.689329	53483.591608
2591.130082	53520.962937
2592.565773	53622.444755
2594.004413	53673.179021
2595.441195	53716.659441
2596.876122	53807.630070
2598.313996	53843.535664
2599.746813	53916.551049
2601.180977	53926.274825
2602.613287	53955.790909
2604.046943	53961.102797
2605.478746	54009.588811
2606.910295	54058.920280
2608.341592	54026.152448
2609.771036	54091.197203
2611.200228	54034.874126
2612.627570	54102.318881
2614.056257	54106.201399
2615.484693	54120.068531
2616.909681	54153.112587
2618.336016	54140.655944
2619.760502	54239.928671
2621.186334	54265.344755
2622.608722	54357.815385
2624.032456	54418.688112
2625.454343	54444.760839
2626.875981	54525.474126
2628.295773	54542.238462
2629.716911	54637.314685
2631.137799	54624.322378
2632.555249	54734.576224
2633.975638	54770.390909
2635.392590	54802.065035
2636.809293	54910.596503
2638.225748	54907.189510
2639.641955	54949.023077
2641.057914	54945.811189
2642.472032	54913.078322
2643.885902	54927.767832
2645.297934	54970.083916
2646.711309	55049.952448
2648.121255	55123.122378
2649.534137	55248.773427
2650.943590	55363.138462
2652.352797	55463.359441
2653.760168	55569.532867
2655.170473	55634.903497
2656.578943	55710.456643
2657.985577	55791.387413
2659.391966	55800.018881
2660.796521	55855.682517
2662.202420	55971.484615
2663.606486	56078.316783
2665.010307	56194.624476
2666.413884	56294.451748
2667.815630	56389.491608
2669.218719	56407.128671
2670.618390	56421.958042
2672.019405	56446.674825
2673.417004	56420.818881
2674.817533	56448.537762
2676.214646	56386.974825
2677.613103	56388.721678
2679.009733	56414.446853
2680.406120	56422.646154
2681.802265	56494.303497
2683.196585	56572.554545
2684.592246	56572.574825
2685.984499	56635.218182
2687.378094	56645.807692
2688.769865	56652.520280
2690.162979	56639.238462
2691.554269	56691.967133
2692.943736	56699.007692
2694.332963	56731.671329
2695.721951	56743.869231
2697.112280	56739.484615
2698.497626	56819.667133
2699.885895	56870.513986
2701.272344	56845.893706
2702.658554	56931.888112
2704.044525	56906.274825
2705.427098	56927.002098
2706.811013	56983.617483
2708.194690	57040.558741
2709.578128	57145.137063
2710.958172	57222.106294
2712.339556	57277.502098
2713.719126	57348.731469
2715.100036	57448.963636
2716.479132	57514.220979
2717.856414	57570.131469
2719.235037	57668.909091
2720.611847	57699.555944
2721.988420	57771.237762
2723.364758	57843.239860
2724.739285	57861.551748
2726.115152	57941.365035
2727.487632	57970.331469
2728.863028	58017.572028
2730.233464	58083.676923
2731.605241	58149.104196
2732.976783	58219.507692
2734.346517	58323.152448
2735.717592	58420.623077
2737.086858	58471.734965
2738.455891	58534.194406
2739.823118	58603.037063
2741.190112	58645.786713
2742.556872	58703.772727
2743.923401	58777.318881
2745.288124	58864.092308
2746.652615	58926.910490
2748.016875	59007.209790
2749.380902	59051.027972
2750.744698	59142.239860
2752.105120	59170.613986
2753.468452	59132.802098
2754.826842	59162.022378
2756.188142	59149.899301
2757.546072	59163.297203
2758.906910	59141.185315
2760.265949	59126.408392
2761.621619	59130.188112
2762.980197	59122.513287
2764.335408	59157.275524
2765.690390	59192.253147
2767.043576	59262.498601
2768.399668	59266.839161
2769.752395	59292.323077
2771.104895	59363.695105
2772.457166	59389.495804
2773.810776	59452.446853
2775.161024	59457.178322
2776.509478	59470.102797
2777.860838	59518.707692
2779.208838	59530.732867
2780.558176	59570.631469
2781.905722	59611.110490
2783.253042	59623.326573
2784.600135	59586.472028
2785.945437	59595.725874
2787.290512	59592.858741
2788.635362	59607.105594
2789.979986	59648.281119
2791.321258	59707.542657
2792.663868	59783.136364
2794.006252	59877.569231
2795.348411	59974.648252
2796.687221	60087.300000
2798.028931	60210.976224
2799.367293	60284.787413
2800.706991	60324.147552
2802.044905	60385.073427
2803.381034	60412.396503
2804.716939	60465.902797
2806.054182	60547.065734
2807.389641	60632.874825
2808.724877	60669.642657
2810.058330	60767.615385
2811.393120	60879.699301
2812.724570	60938.067832
2814.058915	61007.802797
2815.388362	61045.539860
2816.719146	61092.536364
2818.049708	61131.676923
2819.378491	61133.265734
2820.708610	61167.946853
2822.036951	61183.725874
2823.365071	61187.455944
2824.691413	61162.300000
2826.019092	61200.476923
2827.343437	61195.099301
2828.669119	61156.872028
2829.993025	61114.130070
2831.316712	61110.399301
2832.641734	61109.660839
2833.963426	61134.149650
2835.284900	61143.681818
2836.606155	61186.521678
2837.927191	61179.120280
2839.246454	61186.604196
2840.567053	61189.344755
2841.885881	61184.337063
2843.204490	61138.472727
2844.521328	61109.551049
2845.837949	61050.216783
2847.154353	61077.176224
2848.468987	61090.777622
2849.784957	61124.406294
2851.097606	61159.293706
2852.411590	61198.243357
2853.725358	61190.789510
2855.038909	61211.079720
2856.350694	61270.808392
2857.660712	61269.339860
2858.972065	61278.623776
2860.280103	61324.715385
2861.589475	61368.446154
2862.898633	61466.365035
2864.207575	61529.605594
2865.514753	61589.498601
2866.820169	61647.683916
2868.126919	61682.733566
2869.431906	61689.860839
2870.736680	61739.802797
2872.039692	61800.236364
2873.345585	61777.625874
2874.646624	61826.290909
2875.948997	61814.855944
2877.249610	61833.405594
2878.551557	61855.894406
2879.853290	61868.781818
2881.151720	61884.260140
2882.451483	61879.058741
2883.749489	61859.029371
2885.047283	61837.593007
2886.343321	61859.865035
2887.640692	61851.818182
2888.936307	61818.126573
2890.231711	61813.317483
2891.526904	61753.558042
2892.818800	61780.611888
2894.113572	61764.133566
2895.405047	61751.300699
2896.697855	61730.533566
2897.990453	61685.725874
2899.279757	61669.699301
2900.570393	61671.179720
2901.859278	61697.116084
2903.149495	61691.328671
2904.436421	61673.913287
2905.724679	61669.652448
2907.011188	61680.105594
2908.297489	61710.212587
2909.583581	61674.422378
2910.867925	61652.129371
2912.155140	61606.910490
2913.437529	61578.405594
2914.721250	61553.480420
2916.003225	61560.525874
2917.284992	61593.533566
2918.565015	61587.228671
2919.847907	61605.300699
2921.129054	61596.233566
2922.406919	61641.161538
2923.687653	61592.878322
2924.965106	61535.972028
2926.242353	61502.541958
2927.517858	61443.455944
2928.796231	61397.349650
2930.069790	61344.654545
2931.346216	61329.325874
2932.620901	61332.623077
2933.893845	61300.539161
2935.168121	61312.495804
2936.440657	61294.499301
2937.712988	61289.741958
2938.982047	61221.216783
2940.253971	61173.745455
2941.524157	61124.159441
2942.794139	61077.696503
2944.063918	61072.643357
2945.331961	61074.895804
2946.598267	61084.383217
2947.864372	61071.274126
2949.131806	61078.027273
2950.397506	61076.467133
2951.663003	61102.655944
2952.928298	61067.197203
2954.190328	61068.751049
2955.453688	61019.381818
2956.716847	60997.623776
2957.978274	60998.298601
2959.241030	61058.513287
2960.502054	61087.449650
2961.761348	61112.210490
2963.020442	61131.116783
2964.279335	61151.904196
2965.538028	61125.672727
2966.796521	61173.225874
2968.053285	61135.748252
2969.309849	61172.301399
2970.564686	61157.811189
2971.820851	61179.289510
2973.073762	61166.680420
2974.328002	61197.033566
2975.582043	61166.444755
2976.834358	61176.379021
2978.086474	61216.349650
2979.336866	61217.539860
2980.590113	61215.825874
2981.838583	61240.973427
2983.089908	61233.013986
2984.337983	61260.758042
2985.585862	61268.462238
2986.833543	61266.246154
2988.081027	61240.136364
2989.326790	61221.100699
2990.572357	61226.315385
2991.819251	61256.611189
2993.062901	61294.428671
2994.307879	61323.275524
2995.549613	61323.002098
2996.794199	61314.367133
2998.037066	61350.137762
2999.276692	61360.398601
3000.519168	61386.269930
3001.758404	61365.170629
3002.998968	61402.461538
3004.237816	61410.893007
3005.476468	61462.506294
3006.713406	61483.062937
3007.951670	61497.332168
3009.188219	61545.917483
3010.424575	61569.986014
3011.660737	61598.151748
3012.895185	61634.266434
3014.129441	61616.794406
3015.363503	61607.961538
3016.595853	61604.484615
3017.826491	61606.272028
3019.059975	61569.862238
3020.291747	61567.906993
3021.521809	61574.567133
3022.751679	61606.543357
3023.979839	61650.206993
3025.209325	61695.754545
3026.437102	61707.685315
3027.664688	61725.259441
3028.893601	61748.275524
3030.117771	61764.737063
3031.344784	61789.791608
3032.568573	61761.063636
3033.793689	61766.444056
3035.017098	61776.691608
3036.240317	61776.301399
3037.461831	61790.832867
3038.686186	61804.639860
3039.905806	61839.818881
3041.126752	61821.902797
3042.347509	61835.789510
3043.566562	61881.619580
3044.786940	61897.292308
3046.004102	61920.040559
3047.222590	61964.225874
3048.439375	61998.401399
3049.655973	62004.223776
3050.872382	61995.674825
3052.085579	61987.707692
3053.301613	61997.860839
3054.514435	61966.176224
3055.730094	61931.347552
3056.941030	61922.435664
3058.153291	61910.172028
3059.365366	61909.051748
3060.577253	61895.662937
3061.787444	61910.208392
3062.997448	61893.902098
3064.207266	61890.919580
3065.415388	61885.390909
3066.623325	61894.146853
3067.829566	61923.998601
3069.037132	61890.032168
3070.243003	61923.871329
3071.448690	61965.276224
3072.654191	61970.653147
3073.857999	62016.733566
3075.063131	62030.778322
3076.266570	62046.605594
3077.468318	62050.622378
3078.669881	62048.811888
3079.871261	62074.039860
3081.072457	62084.679021
3082.271963	62089.489510
3083.471286	62044.550350
3084.671932	62054.261538
3085.870888	62044.149650
3087.066650	62025.952448
3088.265241	62044.068531
3089.460638	62047.286014
3090.657358	62050.642657
3091.850886	62044.223077
3093.047242	62048.459441
3094.241912	62077.992308
3095.433391	62087.511189
3096.629201	62077.157343
3097.820318	62085.202797
3099.012757	62088.695804
3100.202009	62117.345455
3101.394086	62128.950350
3102.584480	62146.115385
3103.771688	62147.888112
3104.960219	62157.708392
3106.150071	62167.632168
3107.336740	62152.164336
3108.523228	62155.517483
3109.709538	62113.598601
3110.897169	62078.232867
3112.081618	62085.120280
3113.264388	62097.146154
3114.449980	62136.934266
3115.633893	62155.834266
3116.816127	62171.842657
3117.998182	62210.705594
3119.180059	62239.324476
3120.361758	62272.977622
3121.541780	62257.565035
3122.720125	62256.391608
3123.901290	62206.964336
3125.079280	62197.946853
3126.257094	62194.694406
3127.434730	62170.430070
3128.610691	62148.844755
3129.786475	62126.963636
3130.963581	62126.488112
3132.139012	62135.865035
3133.312770	62168.155944
3134.484855	62187.727972
3135.658262	62183.262937
3136.831492	62234.114685
3138.003051	62278.907692
3139.175930	62326.936364
3140.345642	62383.856643
3141.516675	62366.070629
3142.686038	62355.781818
3143.853730	62351.256643
3145.024238	62352.589510
3146.190088	62339.529371
3147.360246	62361.755944
3148.525748	62367.113287
3149.691075	62344.912587
3150.856229	62353.949650
3152.021210	62356.904895
3153.187510	62290.790210
3154.349158	62215.564336
3155.512125	62130.693007
3156.674920	62010.469930
3157.837542	61895.611888
3158.998499	61821.986014
3160.159283	61735.957343
3161.319895	61696.925874
3162.478843	61694.839860
3163.637620	61685.446154
3164.796225	61707.424476
3165.954657	61729.475524
3167.112919	61733.397902
3168.269518	61773.209091
3169.424456	61810.172028
3170.580713	61797.593007
3171.735309	61836.519580
3172.889735	61872.900699
3174.042501	61845.795105
3175.195096	61896.588811
3176.347522	61921.540559
3177.499778	61961.244056
3178.651863	61965.529371
3179.800803	62007.363636
3180.952549	62074.598601
3182.102637	62127.204895
3183.251069	62198.297203
3184.399331	62282.351049
3185.547425	62397.979021
3186.695350	62506.032168
3187.841619	62578.015385
3188.987720	62674.118881
3190.132167	62692.100699
3191.276446	62750.597203
3192.420557	62742.695105
3193.565985	62749.257343
3194.708275	62731.607692
3195.850398	62723.397902
3196.992353	62712.297902
3198.134141	62687.481119
3199.275762	62682.560140
3200.414248	62676.204895
3201.554051	62674.290210
3202.695172	62665.662937
3203.833158	62668.575524
3204.969495	62668.865035
3206.105666	62675.667832
3207.243154	62671.611189
3208.378994	62708.481818
3209.516151	62703.404196
3210.648695	62688.074825
3211.785521	62661.967133
3212.917735	62629.648951
3214.051266	62573.984615
3215.184633	62517.713287
3216.314872	62425.072727
3217.447909	62348.909091
3218.577820	62251.906294
3219.709047	62197.230070
3220.837150	62170.807692
3221.968049	62154.703497
3223.097304	62127.274825
3224.224916	62159.806993
3225.349405	62177.147552
3226.478170	62227.870629
3227.603813	62267.974126
3228.729294	62318.311888
3229.853133	62343.710490
3230.979766	62354.211888
3232.101802	62341.954545
3233.225154	62344.834965
3234.348344	62323.588112
3235.471372	62286.073427
3236.592760	62253.111888
3237.713986	62236.815385
3238.833575	62252.465035
3239.953002	62309.434266
3241.070791	62358.658741
3242.191372	62456.398601
3243.308840	62521.131469
3244.426147	62639.435664
3245.543294	62730.304196
3246.658805	62831.695105
3247.775630	62891.731469
3248.889346	62958.119580
3250.005851	62977.178322
3251.120722	63000.875524
3252.232484	63041.684615
3253.344086	63037.010490
3254.457004	63007.164336
3255.569762	63013.090909
3256.679414	62983.003497
3257.790381	62993.250350
3258.901189	62985.870629
3260.010365	63008.975524
3261.117911	63043.181818
3262.226770	63082.097902
3263.335472	63120.762238
3264.441071	63186.847552
3265.547984	63257.030769
3266.653268	63280.357343
3267.759866	63306.669930
3268.863364	63342.971329
3269.968177	63337.353147
3271.072832	63357.702098
3272.174388	63382.929371
3273.275788	63403.158741
3274.378502	63409.915385
3275.481060	63434.325175
3276.580521	63422.858741
3277.682766	63428.625175
3278.781915	63434.946853
3279.879440	63400.777622
3280.976809	63386.993007
3282.076960	63380.576923
3283.174019	63323.876224
3284.270922	63337.755944
3285.367670	63301.968531
3286.459860	63295.834266
3287.556298	63300.353846
3288.651114	63286.051049
3289.745776	63272.162937
3290.838816	63287.384615
3291.931701	63288.309091
3293.022967	63251.072028
3294.115544	63229.525175
3295.206502	63218.465035
3296.295840	63155.612587
3297.385025	63168.635664
3298.475523	63110.359441
3299.562936	63115.548252
3300.650196	63139.142657
3301.738769	63153.586014
3302.827190	63181.597203
3303.911063	63210.280420
3304.999178	63232.012587
3306.084211	63229.669231
3307.167629	63284.747552
3308.252359	63312.287413
3309.335473	63325.597203
3310.419900	63349.918881
3311.501248	63357.295804
3312.583908	63372.786014
3313.664954	63381.946853
3314.745849	63388.992308
3315.825130	63369.593706
3316.904261	63392.561538
3317.984704	63402.113287
3319.062072	63401.567832
3320.140752	63455.941259
3321.217820	63455.554545
3322.294739	63480.620979
3323.370046	63499.167133
3324.445204	63508.548252
3325.521673	63504.881818
3326.595072	63509.483217
3327.668322	63527.339860
3328.742882	63534.993706
3329.815834	63529.493007
3330.887177	63487.716783
3331.959831	63476.002098
3333.029419	63470.316783
3334.100317	63425.506993
3335.169608	63381.861538
3336.240210	63337.430769
3337.309205	63285.661538
3338.376594	63267.345455
3339.442378	63238.329371
3340.512388	63205.729371
3341.579335	63189.525175
3342.643220	63153.341958
3343.709873	63148.267832
3344.774921	63166.603497
3345.838366	63174.250350
3346.901665	63153.389510
3347.964817	63175.365734
3349.027823	63153.025874
3350.090683	63149.886713
3351.151941	63123.755245
3352.210142	63079.211189
3353.272563	63072.815385
3354.331929	63083.562937
3355.391149	63086.809790
3356.451679	63130.907692
3357.507699	63177.328671
3358.566483	63220.088811
3359.620760	63264.827273
3360.677801	63338.209091
3361.733243	63368.700699
3362.789995	63416.913986
3363.845148	63426.279021
3364.898704	63439.208392
3365.950664	63470.834965
3367.005385	63488.367133
3368.057057	63496.086713
3369.108586	63520.165035
3370.161423	63522.216783
3371.211213	63526.085315
3372.262312	63529.094406
3373.310365	63566.982517
3374.361177	63581.425874
3375.408945	63588.482517
3376.456570	63595.541259
3377.504052	63597.539860
3378.549942	63602.034266
3379.597140	63588.970629
3380.641296	63601.457343
3381.688210	63597.283217
3382.733532	63577.535664
3383.775813	63585.599301
3384.817954	63585.969231
3385.861402	63602.708392
3386.904709	63571.374126
3387.946427	63567.545455
3388.988003	63578.263636
3390.029438	63591.636364
3391.069285	63609.090909
3392.107543	63616.241958
3393.147109	63685.990210
3394.186535	63699.022378
3395.224373	63698.799301
3396.260624	63717.948951
3397.296736	63710.765035
3398.334155	63703.025874
3399.368541	63675.339860
3400.404234	63670.950350
3401.439788	63680.830769
3402.472311	63698.304196
3403.507587	63711.117483
3404.539832	63719.970629
3405.571939	63753.340559
3406.602462	63748.097902
3407.634292	63752.297203
3408.665984	63757.661538
3409.694648	63767.181119
3410.723175	63770.388811
3411.753008	63751.560140
3412.782704	63741.604196
3413.809374	63757.344755
3414.837351	63790.251748
3415.862303	63795.737762
3416.890005	63811.168531
3417.914684	63808.227972
3418.940669	63799.548252
3419.965074	63813.181119
3420.989343	63784.669930
3422.012033	63778.765734
3423.034587	63722.190909
3424.058447	63668.674126
3425.079287	63623.247552
3426.099991	63596.014486
3427.122002	63578.791109
3428.140994	63573.400500
3429.159850	63581.665734
3430.180013	63605.409890
3431.197159	63646.456044
