-118.059454	220.761264
-115.389854	209.031868
-112.723189	202.643107
-110.057276	200.596204
-107.394295	201.892383
-104.729885	205.532867
-102.068405	210.518881
-99.405496	214.983916
-96.747693	219.402098
-94.088461	220.061538
-91.429977	219.820979
-88.774417	217.033566
-86.117429	218.539161
-83.465539	218.662937
-80.812218	216.437762
-78.161818	218.009790
-75.509988	215.864336
-72.863249	217.533566
-70.215081	221.087413
-67.567655	224.541958
-64.923143	226.118881
-62.277203	225.271329
-59.636344	224.218182
-56.994056	225.953846
-54.354677	226.770629
-51.713868	223.451748
-49.073800	224.552448
-46.438804	224.876923
-43.802380	224.480420
-41.168858	230.379720
-38.533908	238.968531
-35.904023	241.308392
-33.270546	243.817483
-30.642131	245.081119
-28.014450	243.137762
-25.385340	237.827273
-22.761287	217.141259
-20.133645	146.653147
-17.511056	38.107692
-14.889199	148.064336
-12.268072	609.529371
-9.647675	1225.404196
-7.030167	1714.153147
-4.411230	2034.941259
-1.795178	2198.023077
0.820145	2191.309790
3.434741	2018.451748
6.046454	1688.583916
8.659596	1216.918881
11.267704	651.831469
13.879394	156.069231
16.486053	1.109091
19.094140	125.873427
21.701503	258.855245
24.303841	275.265734
26.909757	279.682517
29.510651	287.044755
32.112973	287.537762
34.710278	289.111888
37.311158	293.634965
39.907023	302.895804
42.504317	307.642657
45.100891	315.444056
47.692456	317.975524
50.285449	322.004895
52.875581	320.735664
55.467141	321.319580
58.055841	326.555944
60.645968	326.816783
63.231096	326.747552
65.817652	331.806294
68.403494	337.816783
70.986482	348.717483
73.570896	356.211888
76.148182	367.208392
78.729034	372.014685
81.307037	384.646154
83.884330	393.075524
86.463049	403.879021
89.036786	411.886713
91.611951	420.921678
94.184272	430.455245
96.755885	441.685315
99.324658	454.805594
101.894858	473.512587
104.462220	502.599301
107.031007	538.151049
109.596958	580.661538
112.160074	649.144056
114.726746	745.529371
117.284197	891.720280
119.847333	1132.877622
122.405509	1585.927273
124.967240	2395.456643
127.524014	3793.079021
130.082215	6085.039860
132.635462	9373.240559
135.188012	13680.906294
137.744112	18795.014685
140.295264	24333.500000
142.845719	29970.559441
145.395476	35185.174126
147.942414	39582.738462
150.488657	42969.925175
153.036325	45228.398601
155.583297	46513.437063
158.125334	47063.337063
160.666677	47216.152448
163.207327	47138.358042
165.749403	47019.827972
168.288667	46959.088811
170.825123	46903.655944
173.360887	46932.832168
175.898077	46886.085315
178.434576	46840.776923
180.968269	46815.588811
183.499158	46775.313287
186.029360	46812.191608
188.560986	46867.830070
191.089811	46930.806993
193.615837	47011.078322
196.141177	47092.927273
198.667942	47185.276923
201.191911	47197.416084
203.715195	47192.918182
206.237794	47142.310490
208.757600	47103.386713
211.276723	47067.897902
213.795163	47030.990909
216.315027	47046.193706
218.827890	47093.072028
221.344284	47122.951748
223.859996	47223.631469
226.370818	47323.501399
228.883065	47396.223776
231.392530	47430.148252
233.901316	47460.533566
236.409423	47491.337762
238.918955	47515.572028
241.423606	47527.032168
243.927581	47519.376923
246.432980	47545.480420
248.933504	47516.827972
251.437552	47474.448951
253.934628	47462.111888
256.435228	47458.871329
258.933056	47421.785315
261.430211	47364.865035
263.926693	47342.881119
266.418312	47315.553846
268.913451	47257.095804
271.405823	47184.386713
273.897525	47119.637063
276.386464	47049.262238
278.876827	46927.811189
281.364427	46863.045455
283.849268	46769.493007
286.337624	46690.068531
288.819040	46607.972028
291.303970	46549.218182
293.784055	46502.931469
296.267652	46451.986014
298.746406	46368.562238
301.226584	46301.225175
303.704009	46190.145455
306.180771	46091.181818
308.656870	45995.220280
311.130220	45997.273427
313.602908	45988.231469
316.074935	46022.552448
318.546301	46077.893706
321.014922	46145.346853
323.482885	46244.158042
325.952269	46322.739860
328.416831	46372.823077
330.884897	46475.926573
333.348143	46485.582517
335.810731	46531.508392
338.272663	46582.359441
340.733938	46678.055245
343.192479	46736.466434
345.652442	46749.331469
348.109672	46713.076923
350.566248	46703.506993
353.022170	46698.180420
355.475362	46591.585315
357.929977	46496.541259
360.379790	46409.700000
362.833099	46252.635664
365.281610	46086.837762
367.729469	45943.014685
370.178751	45824.974825
372.623239	45714.125175
375.069149	45602.538462
377.514409	45524.632168
379.956951	45532.260839
382.398845	45528.693007
384.840092	45500.095105
387.278623	45524.087413
389.718576	45516.127972
392.155815	45496.529371
394.590342	45459.381119
397.028357	45521.843357
399.461595	45551.737762
401.896254	45588.300000
404.326141	45659.318182
406.759513	45753.949650
409.188115	45861.836364
411.616075	45975.537762
414.045457	46030.615385
416.470073	46135.818182
418.896111	46173.169930
421.321508	46224.181818
423.746265	46294.822378
426.166264	46352.134965
428.587684	46347.914685
431.006407	46373.728671
433.426551	46426.895804
435.844000	46462.017483
438.262869	46489.866434
440.679045	46533.755245
443.090473	46551.772727
445.505379	46617.079021
447.917594	46682.593706
450.329175	46726.411888
452.740122	46774.716783
455.148383	46779.762238
457.556011	46813.488112
459.963007	46834.214685
462.369372	46855.962238
464.773054	46849.669930
467.176106	46839.239860
469.578528	46828.612587
471.980320	46850.501399
474.379435	46831.313287
476.779969	46814.133566
479.179874	46723.300699
481.575056	46694.101399
483.973705	46593.573427
486.367634	46526.593706
488.760937	46457.895804
491.153614	46393.723077
493.545666	46321.091608
495.939136	46218.102797
498.327894	46129.741259
500.713986	46055.441958
503.101498	45933.005594
505.488387	45846.781119
507.872612	45754.858042
510.258255	45735.348252
512.641237	45658.124476
515.021558	45667.207692
517.403298	45668.809790
519.782379	45697.122378
522.162879	45732.193007
524.540721	45741.173427
526.915908	45732.676224
529.290477	45719.293706
531.666464	45721.281818
534.039799	45676.353846
536.414551	45655.367133
538.784618	45663.586014
541.154069	45632.095105
543.524938	45619.534965
545.891127	45571.001399
548.258734	45545.105594
550.623695	45528.671329
552.988043	45500.804196
555.351778	45440.576923
557.716931	45431.492308
560.077412	45393.399301
562.439311	45321.195105
564.798569	45316.332168
567.155190	45310.245455
569.515255	45295.250350
571.868629	45265.993007
574.225448	45226.207692
576.579632	45245.807692
578.933208	45241.713287
581.286175	45209.074825
583.636510	45168.830070
585.988263	45121.745455
588.333339	45068.567133
590.683879	45025.420979
593.027745	44971.567832
595.377073	44888.035664
597.721752	44841.454545
600.063807	44743.608392
602.407279	44672.711189
604.748128	44655.599301
607.088375	44559.062937
609.426001	44464.988112
611.767062	44377.347552
614.103485	44305.146154
616.441325	44291.477622
618.776548	44241.681818
621.109155	44209.041259
623.443178	44151.682517
625.774587	44131.465734
628.105398	44069.779021
630.435612	44064.212587
632.765227	44059.105594
635.090220	44024.451748
637.420653	43991.087413
639.746466	43986.953846
642.069671	44030.233566
644.394293	44058.349650
646.716309	44077.558741
649.037731	44131.597203
651.356551	44135.010490
653.676786	44155.755245
655.996428	44213.944056
658.313469	44216.229371
660.629918	44215.606294
662.943769	44263.953846
665.259036	44268.239161
667.571706	44293.304895
669.885791	44324.330769
672.195276	44357.037762
674.506177	44368.479720
676.814485	44384.070629
679.122205	44389.387413
681.431339	44379.602797
683.735881	44426.622378
686.039837	44365.404196
688.343207	44362.272727
690.647991	44389.027273
692.948189	44379.154545
695.249801	44401.272028
697.550829	44402.629371
699.847274	44368.124476
702.145135	44320.184615
704.442412	44295.483217
706.739106	44314.209091
709.031224	44278.776923
711.326753	44283.342657
713.617708	44216.325874
715.910078	44205.741958
718.199873	44209.789510
720.489087	44231.869930
722.777722	44271.476923
725.063784	44252.606294
727.351261	44215.879720
729.636166	44242.490210
731.920494	44246.054545
734.202253	44300.356643
736.485426	44328.718881
738.768022	44393.686014
741.046062	44455.906993
743.325517	44568.795804
745.604395	44631.606294
747.882699	44704.801399
750.156453	44791.347552
752.431620	44815.925874
754.706214	44825.459441
756.978249	44825.872727
759.251697	44786.290210
761.522587	44820.556643
763.790921	44830.779720
766.060668	44826.546154
768.327861	44816.623077
770.594483	44828.434266
772.860535	44775.614685
775.124036	44753.086014
777.388950	44752.667133
779.653294	44724.076923
781.913109	44709.737762
784.174336	44737.385315
786.434996	44758.037063
788.693110	44824.924476
790.948679	44849.806294
793.207639	44802.130769
795.460100	44788.876923
797.717927	44757.830769
799.971236	44677.762937
802.222005	44567.346853
804.474186	44492.776923
806.723828	44402.111888
808.974883	44323.308392
811.221426	44267.808392
813.469381	44177.421678
815.714802	44163.319580
817.961634	44122.628671
820.207905	44046.146154
822.449671	44029.780420
824.694821	44014.381119
826.933498	43963.705594
829.175557	43832.346853
831.413118	43788.865734
833.652091	43716.116084
835.888537	43643.009091
838.126394	43584.097902
840.361726	43557.135664
842.594535	43635.858042
844.828755	43669.714685
847.060452	43765.969231
849.291595	43856.653147
851.522183	43947.206294
853.752217	43970.100000
855.981697	43979.420979
858.206695	44026.134965
860.435068	44013.265734
862.658961	43990.413287
864.884266	43969.129371
867.105095	43946.100000
869.329296	43966.123776
871.549024	43945.178322
873.770162	43932.595105
875.990750	43905.285315
878.208829	43899.686014
880.428317	43854.897203
882.643339	43790.186014
884.857814	43731.358741
887.071740	43650.607692
889.285120	43584.911888
891.497952	43537.287413
893.710238	43475.633566
895.920021	43444.579720
898.129259	43404.967133
900.337952	43402.053147
902.544146	43434.597902
904.751749	43484.295804
906.956854	43525.474126
909.161416	43534.874126
911.363483	43580.288811
913.566959	43621.329371
915.767941	43684.375524
917.968381	43738.294406
920.170230	43779.709091
922.365688	43867.081818
924.564505	43921.090210
926.758883	44004.893007
928.956619	44077.907692
931.149919	44161.739161
933.344628	44270.398601
935.536851	44324.827273
937.728535	44366.699301
939.919682	44445.902797
942.108346	44524.007692
944.296474	44566.488112
946.482121	44684.730070
948.671120	44839.383916
950.855696	44912.155245
953.039737	45045.569930
955.227128	45210.534266
957.406215	45383.130070
959.588653	45599.009790
961.770557	45788.156643
963.949986	45980.288811
966.126943	46172.979720
968.305308	46329.610490
970.485080	46451.265035
972.658503	46610.945455
974.835272	46757.274126
977.007634	46861.083217
979.181404	46996.955944
981.350770	47097.506993
983.523480	47233.840559
985.693725	47391.927972
987.863441	47522.594406
990.032628	47679.892308
992.197418	47791.235664
994.365549	47984.814685
996.529286	48163.793706
998.694429	48362.755245
1000.857113	48552.345455
1003.019272	48710.504196
1005.178974	48809.038462
1007.338151	48870.635664
1009.498735	48960.944755
1011.656865	48991.151748
1013.814470	48978.397203
1015.971552	49013.624476
1018.128110	49054.235664
1020.280289	49204.792308
1022.433875	49370.234965
1024.586939	49612.355245
1026.737554	49846.654545
1028.889576	50103.659441
1031.037224	50348.689510
1033.188204	50599.724476
1035.334813	50777.262937
1037.480903	50920.994406
1039.626475	51024.769930
1041.773452	51116.828671
1043.914140	51204.113287
1046.058158	51289.258042
1048.199735	51360.893706
1050.340796	51481.373427
1052.483261	51526.341259
1054.619447	51580.653846
1056.758958	51572.824476
1058.894115	51546.600000
1061.032596	51471.762238
1063.166723	51384.089510
1065.300337	51295.190909
1067.435356	51142.265035
1069.566025	50998.321678
1071.698099	50817.392308
1073.827744	50618.745455
1075.956877	50473.063636
1078.085498	50261.115385
1080.213608	50097.914685
1082.339292	49903.542657
1084.464466	49732.330070
1086.591044	49539.450350
1088.713284	49351.957343
1090.836929	49223.276224
1092.956239	48993.580420
1095.080779	48841.467133
1097.199073	48696.693706
1099.318772	48549.772028
1101.436052	48460.557343
1103.552826	48317.309091
1105.669093	48261.651748
1107.782944	48173.186014
1109.898200	48071.179720
1112.009132	47912.979021
1114.123377	47767.532168
1116.233301	47675.016084
1118.344629	47543.765035
1120.455452	47457.188811
1122.561959	47368.120979
1124.671776	47256.389510
1126.777278	47207.818182
1128.884183	47098.095105
1130.984873	47058.134965
1133.090775	46963.969930
1135.192368	46870.199301
1137.295364	46728.219580
1139.397859	46577.686713
1141.494147	46470.437762
1143.595643	46381.775524
1145.692835	46274.052448
1147.789530	46220.744755
1149.885726	46122.828671
1151.981425	46101.818182
1154.076625	46069.865734
1156.169429	46077.823077
1158.263636	46067.333566
1160.351651	46126.712587
1162.444864	46087.034266
1164.531889	46061.934266
1166.622213	46094.240559
1168.708250	46121.562238
1170.797584	46128.004196
1172.880737	46134.759441
1174.965292	46164.173427
1177.051249	46196.802797
1179.132924	46267.462937
1181.216001	46240.730769
1183.296692	46270.881119
1185.376891	46294.806294
1187.456599	46228.679720
1189.535816	46245.174126
1191.612651	46261.043357
1193.687105	46240.336364
1195.764850	46257.848252
1197.838326	46284.802098
1199.913202	46312.321678
1201.983811	46279.558042
1204.055821	46391.156643
1206.125456	46396.027273
1208.196491	46436.456643
1210.267038	46471.133566
1212.333324	46488.993007
1214.401011	46546.641259
1216.466326	46571.999301
1218.533041	46536.510490
1220.595500	46539.590909
1222.661244	46539.405594
1224.722734	46432.581119
1226.785625	46461.308392
1228.846148	46598.679021
1230.906187	46541.024476
1232.965744	46540.714685
1235.022935	46701.618881
1237.079645	46705.064336
1239.133991	46815.697203
1241.191619	46981.613287
1243.246884	47114.635664
1245.297908	47210.521678
1247.350332	47405.637063
1249.402276	47556.875524
1251.451862	47797.428671
1253.500969	48035.146853
1255.549598	48092.087413
1257.597748	48314.521678
1259.645419	48600.654545
1261.688860	48670.167133
1263.735577	48902.118881
1265.779940	49191.764336
1267.823827	49504.946154
1269.865362	49667.369231
1271.904548	50092.970629
1273.947007	50434.465734
1275.985243	50838.583217
1278.024878	51281.767832
1280.064038	51706.509091
1282.098979	52248.088112
1284.135319	52885.645455
1286.169315	53447.948951
1288.204708	54037.048252
1290.235889	54683.559441
1292.268467	55312.988811
1294.300574	55762.981818
1296.330340	56343.781119
1298.361504	56645.906294
1300.388460	56994.425874
1302.416814	57253.239161
1304.440963	57538.802797
1306.468378	58047.748951
1308.491590	58845.297203
1310.516200	59761.536364
1312.538476	60735.077622
1314.562149	61768.937762
1316.583489	62707.148951
1318.604361	63506.836364
1320.624766	64146.520979
1322.640978	64446.651049
1324.658587	64612.369930
1326.673868	64536.393007
1328.692408	64392.319580
1330.706759	64340.712587
1332.718784	64543.111189
1334.734066	64785.220280
1336.745163	64774.360839
1338.757657	64411.213986
1340.765968	63618.330070
1342.777534	62485.811189
1344.783062	60996.820280
1346.791845	59267.922378
1348.796450	57408.525175
1350.804309	55615.344056
1352.811706	53956.122378
1354.813072	52633.695804
1356.815834	51858.723776
1358.818137	51301.900699
1360.819980	50883.192308
1362.821363	50476.648252
1364.820433	50197.190909
1366.819044	49978.658042
1368.817197	49728.787413
1370.814891	49580.787413
1372.808423	49402.667133
1374.803351	49346.245455
1376.797821	49220.358042
1378.791835	49049.518881
1380.783542	48969.095804
1382.774794	48831.941259
1384.763740	48791.390909
1386.754081	48677.747552
1388.743967	48633.094406
1390.731549	48517.078322
1392.718678	48471.628671
1394.703505	48559.216084
1396.689727	48568.827972
1398.673649	48719.874126
1400.657118	48728.262937
1402.640134	48776.870629
1404.620853	48850.395804
1406.602966	48911.600699
1408.582783	49013.362937
1410.562148	49122.126573
1412.537375	49155.105594
1414.515840	49249.360839
1416.492012	49381.183916
1418.467735	49550.156643
1420.443008	49676.813986
1422.415990	49844.537762
1424.388524	49916.475524
1426.360610	50090.217483
1428.332249	50189.371329
1430.299759	50372.281818
1432.272343	50485.309790
1434.237122	50589.500699
1436.206972	50636.987413
1438.172699	50727.915385
1440.139818	50792.717483
1442.104654	50840.840559
1444.065370	50885.100000
1446.031154	50907.202797
1447.990983	50970.681119
1449.952206	51035.444755
1451.914821	51100.413986
1453.873321	51233.170629
1455.831378	51286.000000
1457.788994	51292.103497
1459.746167	51336.688112
1461.701065	51386.616783
1463.657356	51423.553846
1465.611372	51361.372727
1467.564947	51323.344056
1469.516250	51297.692308
1471.468946	51242.222378
1473.419369	51109.826573
1475.369354	51035.000000
1477.318900	51013.741259
1479.266177	50916.495804
1481.211186	50885.876224
1483.157588	50866.613986
1485.103552	50868.582517
1487.049079	50894.786014
1488.992340	50852.844056
1490.935166	50878.323077
1492.875728	50871.920280
1494.817681	50828.916084
1496.757372	50817.983916
1498.696629	50864.193007
1500.635450	50821.397902
1502.572012	50768.344056
1504.509965	50775.617483
1506.445659	50753.089510
1508.380920	50785.313287
1510.313925	50853.591608
1512.246497	50876.279021
1514.178637	50923.592308
1516.110345	50993.148951
1518.039799	51116.142657
1519.970644	51224.916783
1521.901057	51362.052448
1523.827398	51382.044755
1525.755130	51455.995804
1527.680611	51463.572727
1529.605663	51523.597902
1531.530286	51571.020979
1533.454480	51718.188112
1535.376426	51786.427273
1537.299763	51828.771329
1539.220853	51913.941259
1541.139700	52021.506294
1543.059935	52090.517483
1544.977928	52187.520979
1546.895494	52185.744056
1548.810818	52212.388112
1550.727532	52183.340559
1552.640191	52131.996503
1554.556054	52218.179021
1556.469677	52263.048252
1558.381062	52240.271329
1560.293837	52242.746154
1562.202562	52305.044056
1564.112676	52367.467133
1566.022367	52466.670629
1567.931635	52472.365734
1569.838669	52448.358741
1571.743470	52501.788112
1573.649660	52530.197902
1575.553618	52553.036364
1577.457155	52636.613287
1579.360272	52631.248252
1581.261159	52653.612587
1583.163435	52656.541958
1585.063483	52663.577622
1586.964918	52695.645455
1588.862320	52727.825874
1590.759303	52653.695804
1592.655868	52657.526573
1594.553821	52739.870629
1596.445939	52713.500699
1598.341250	52731.027972
1600.236144	52732.369231
1602.128816	52805.002098
1604.021071	52848.863636
1605.911107	52886.528671
1607.800727	52943.902797
1609.689932	53010.151049
1611.578722	53079.082517
1613.465294	53164.741259
1615.353254	53289.764336
1617.237197	53330.835664
1619.122527	53369.599301
1621.007444	53412.516084
1622.890147	53459.161538
1624.774237	53495.311888
1626.654315	53542.683916
1628.535781	53559.242657
1630.415036	53574.920979
1632.295677	53573.553147
1634.170514	53652.645455
1636.050332	53731.088112
1637.926146	53802.271329
1639.801549	53858.294406
1641.678338	53989.352448
1643.549331	53980.255245
1645.423505	54056.412587
1647.293680	54081.846154
1649.167037	54076.505594
1651.038190	54085.024476
1652.907141	54064.169930
1654.777477	54037.294406
1656.643821	53938.307692
1658.511550	54030.062238
1660.377080	53980.262937
1662.243996	53942.218881
1664.106923	53909.876224
1665.971235	53895.119580
1667.833351	53872.553147
1669.695062	53844.699301
1671.558159	53762.711888
1673.419060	53769.948951
1675.277769	53782.596503
1677.136074	53764.102797
1678.995764	53783.226573
1680.849686	53893.223776
1682.706782	53902.810490
1684.563475	53920.652448
1686.416191	53931.829371
1688.272079	53927.653147
1690.123993	53906.704196
1691.975506	53902.985315
1693.826618	53845.774825
1695.677330	53845.675524
1697.527641	53756.051748
1699.375767	53771.800000
1701.225278	53727.104895
1703.069040	53618.058042
1704.917751	53563.146154
1706.760716	53429.368531
1708.606848	53351.913986
1710.449017	53261.946154
1712.294352	53240.184615
1714.133946	53173.026573
1715.974924	53052.109091
1717.817285	52984.804895
1719.655690	52894.226573
1721.495478	52902.925175
1723.333091	52713.939161
1725.170308	52622.100000
1727.005352	52453.632867
1728.841779	52325.006294
1730.676034	52215.350350
1732.509894	52096.985315
1734.343360	52032.852448
1736.172881	51880.434266
1738.005560	51704.555245
1739.834295	51594.496503
1741.666187	51419.281818
1743.494137	51259.045455
1745.321696	51068.570629
1747.148862	50909.858042
1748.975637	50672.518182
1750.802020	50521.693706
1752.624467	50344.623776
1754.450069	50260.716783
1756.271736	50073.683916
1758.094785	49908.083217
1759.915672	49751.736364
1761.736171	49576.526573
1763.558051	49421.060839
1765.374231	49326.086014
1767.193563	49195.789510
1769.008968	49096.213986
1770.827523	48989.399301
1772.642153	48938.563636
1774.456396	48879.825874
1776.270253	48838.386014
1778.083723	48736.535664
1779.895040	48723.041259
1781.707737	48643.093007
1783.520049	48571.747552
1785.328443	48537.974126
1787.138217	48479.430769
1788.944077	48399.744755
1790.753082	48339.822378
1792.558174	48219.090909
1794.364647	48185.418182
1796.170736	48100.940559
1797.972914	48054.665035
1799.778237	47988.016084
1801.579651	47916.831469
1803.382445	47833.624476
1805.181333	47746.906294
1806.981602	47688.926573
1808.781489	47628.028671
1810.579234	47537.923776
1812.376599	47459.453846
1814.173584	47393.190210
1815.970188	47388.813287
1817.764653	47339.462238
1819.560497	47332.471329
1821.350686	47256.005594
1823.145772	47217.574126
1824.935206	47151.253846
1826.727776	47100.831469
1828.518211	47073.934965
1830.306512	47051.418881
1832.097948	46977.353147
1833.883738	46934.442657
1835.670908	46913.440559
1837.455946	46880.581119
1839.244118	46865.444755
1841.028404	46867.731469
1842.810560	46858.105594
1844.594096	46888.378322
1846.375503	46868.976923
1848.158289	46895.710490
1849.937194	46899.523077
1851.717479	46900.671329
1853.495637	46881.481119
1855.275174	46866.976224
1857.052586	46828.841259
1858.827874	46794.820979
1860.604540	46812.920280
1862.379084	46875.483916
1864.155006	46884.485315
1865.925307	46950.638462
1867.698736	46958.403497
1869.470045	47006.948252
1871.240983	47030.379720
1873.013299	47081.318881
1874.780001	47099.423776
1876.549829	47109.767832
1878.315793	47145.058741
1880.084880	47156.409790
1881.850106	47148.915385
1883.614964	47136.698601
1885.381199	47112.345455
1887.143575	47085.611888
1888.905584	47085.102098
1890.667225	47081.449650
1892.428500	47068.493007
1894.189407	47103.770629
1895.949948	47155.241958
1897.708379	47260.037762
1899.466444	47376.313986
1901.222402	47469.269231
1902.979736	47560.616084
1904.736705	47678.427273
1906.491567	47847.758042
1908.244325	47905.218182
1909.996718	48040.575524
1911.750488	48113.748951
1913.502154	48219.291608
1915.251718	48345.077622
1917.002657	48492.641259
1918.753234	48637.163636
1920.499971	48791.819580
1922.248085	48988.481818
1923.994099	49134.820280
1925.741488	49302.416783
1927.486780	49488.558042
1929.229974	49598.106993
1930.974543	49802.800699
1932.717017	49962.097902
1934.459130	50159.139860
1936.200883	50338.458741
1937.942276	50531.503497
1939.681576	50706.518881
1941.420517	50924.295105
1943.159099	51120.407692
1944.895590	51285.153846
1946.631723	51458.769231
1948.369230	51616.662238
1950.102915	51799.337063
1951.837975	52007.528671
1953.570946	52161.073427
1955.303561	52357.992308
1957.035820	52496.345455
1958.767722	52642.730070
1960.497538	52759.770629
1962.225269	52908.723077
1963.954375	53049.206993
1965.683126	53158.755245
1967.409793	53242.604196
1969.136106	53348.537063
1970.863792	53485.886713
1972.585942	53625.787413
1974.311193	53771.009790
1976.032637	53931.456643
1977.757182	54042.025874
1979.479646	54176.697902
1981.198308	54287.633566
1982.920068	54410.176224
1984.638026	54525.276224
1986.357357	54619.432168
1988.072889	54698.256643
1989.793241	54813.190210
1991.509795	54906.486014
1993.222552	55055.389510
1994.938405	55168.990909
1996.652186	55293.785315
1998.365617	55430.859441
2000.076977	55531.441958
2001.789709	55658.800000
2003.498651	55782.564336
2005.210685	55899.981818
2006.917211	56039.070629
2008.626828	56101.047552
2010.334379	56168.736364
2012.041581	56277.223776
2013.746718	56349.910490
2015.451509	56404.858042
2017.157671	56448.151748
2018.860051	56501.258042
2020.563802	56542.935664
2022.265491	56585.146154
2023.966835	56628.625874
2025.667833	56666.904196
2027.366770	56725.767832
2029.067079	56756.891608
2030.763613	56772.209091
2032.461518	56848.502797
2034.157364	56864.904196
2035.856296	56933.113287
2037.549742	56979.393007
2039.244559	57023.287413
2040.939034	57100.105594
2042.629740	57101.574825
2044.323530	57131.714685
2046.013553	57120.190909
2047.704947	57107.586014
2049.394288	57061.130769
2051.084999	56978.913986
2052.771947	56965.276923
2054.458556	56905.574825
2056.146534	56884.908392
2057.830753	56843.481119
2059.516343	56817.476923
2061.201593	56833.901399
2062.884794	56781.455245
2064.569366	56737.890909
2066.248475	56733.230769
2067.932369	56744.354545
2069.610802	56737.197902
2071.292313	56733.091608
2072.970072	56776.655245
2074.647495	56777.307692
2076.326287	56809.717483
2078.003037	56819.029371
2079.677745	56853.755245
2081.353822	56838.534266
2083.027859	56821.460140
2084.701560	56796.288811
2086.374926	56848.093007
2088.046253	56836.182517
2089.717246	56832.362238
2091.387905	56792.220979
2093.058230	56829.910490
2094.728221	56830.183916
2096.396176	56868.013986
2098.063798	56914.579720
2099.729385	57009.934965
2101.396341	57101.125175
2103.061264	57247.039860
2104.725855	57340.139161
2106.388414	57456.470629
2108.052341	57534.876923
2109.714237	57614.671329
2111.375803	57681.321678
2113.037037	57776.635664
2114.696243	57804.939860
2116.355118	57876.787413
2118.013664	57943.625874
2119.671880	58025.323077
2121.326372	58089.139860
2122.983929	58187.332168
2124.641157	58216.110490
2126.294663	58274.799301
2127.949537	58319.843357
2129.600692	58308.652448
2131.254910	58316.306294
2132.905411	58323.395804
2134.557278	58316.179021
2136.203737	58337.348252
2137.854951	58386.089510
2139.502451	58425.546853
2141.151318	58500.320979
2142.798166	58577.616783
2144.444689	58625.325874
2146.090886	58717.014685
2147.733375	58761.702098
2149.378922	58780.420280
2151.020762	58797.628671
2152.665659	58846.395804
2154.306850	58872.435664
2155.947719	58905.935664
2157.588263	58948.074825
2159.226795	58937.223776
2160.866693	58914.070629
2162.502891	58861.729371
2164.140455	58833.327273
2165.777697	58841.487413
2167.412929	58818.917483
2169.047840	58837.127273
2170.682428	58837.339860
2172.316696	58888.730070
2173.947270	58949.438462
2175.580896	58994.839161
2177.210830	59035.780420
2178.842129	59057.177622
2180.471423	59048.168531
2182.100398	59026.461538
2183.729053	59055.108392
2185.357389	59066.790909
2186.983723	59037.969930
2188.609738	59003.850350
2190.233751	58977.762937
2191.859130	58950.726573
2193.482508	58930.330070
2195.107251	58868.733566
2196.728313	58862.899301
2198.349058	58833.783217
2199.971168	58797.448252
2201.591280	58791.181818
2203.209395	58791.918881
2204.827195	58801.344056
2206.444680	58785.383217
2208.061849	58821.145455
2209.678703	58877.746853
2211.295241	58890.071329
2212.909787	58922.104196
2214.522340	58923.976923
2216.136257	58975.979021
2217.748183	58998.426573
2219.361472	59042.995804
2220.972771	59072.632168
2222.582080	59094.033566
2224.192753	59137.315385
2225.801437	59194.679021
2227.409808	59292.847552
2229.016193	59365.456643
2230.623941	59421.274126
2232.229702	59516.260140
2233.835152	59564.172028
2235.438617	59624.389510
2237.043445	59680.790210
2238.646289	59721.734965
2240.247150	59755.274825
2241.849374	59790.637063
2243.449616	59812.551049
2245.051220	59870.695804
2246.649171	59916.078322
2248.248485	60012.774825
2249.845819	60084.343357
2251.442845	60201.213287
2253.041233	60270.315385
2254.635972	60353.660140
2256.228734	60412.811189
2257.822859	60459.589510
2259.418345	60479.540559
2261.010186	60479.020979
2262.601721	60483.370629
2264.194618	60460.691608
2265.782205	60487.080420
2267.374488	60490.802098
2268.961465	60455.849650
2270.551469	60459.909091
2272.136169	60406.767832
2273.725563	60361.069930
2275.309655	60249.055944
2276.895107	60139.009790
2278.478591	60047.346154
2280.065100	59970.779720
2281.647976	59906.365734
2283.230549	59854.162937
2284.812818	59870.716084
2286.391457	59857.822378
2287.973121	59871.371329
2289.551156	59901.909091
2291.132214	59888.086014
2292.709645	59872.825874
2294.285113	59820.590909
2295.863603	59792.690210
2297.438469	59768.842657
2299.013034	59687.453846
2300.587299	59623.641259
2302.161263	59572.027972
2303.734926	59545.946853
2305.308290	59512.502098
2306.878035	59498.733566
2308.447481	59509.423776
2310.019945	59533.472727
2311.587135	59551.736364
2313.157343	59623.993706
2314.723936	59668.406993
2316.291889	59728.811888
2317.857886	59788.918182
2319.423586	59877.274825
2320.988988	59943.251748
2322.552437	60023.422378
2324.117245	60095.543357
2325.678445	60133.120979
2327.242659	60168.589510
2328.801611	60188.576923
2330.363578	60178.093007
2331.923593	60203.267133
2333.483314	60192.364336
2335.041085	60197.604196
2336.598561	60211.583217
2338.155743	60202.077622
2339.710977	60205.251748
2341.265918	60209.246853
2342.820564	60213.581119
2344.374917	60173.686713
2345.928977	60159.190909
2347.482742	60124.983916
2349.034564	60087.067832
2350.584442	60054.360839
2352.137328	60003.108392
2353.684972	59957.067832
2355.235623	59926.145455
2356.782683	59894.649650
2358.331101	59859.842657
2359.879228	59820.595105
2361.423766	59810.241958
2362.969662	59809.486713
2364.513620	59793.403497
2366.058935	59776.009091
2367.600665	59748.736364
2369.143752	59707.897203
2370.684903	59690.195105
2372.225765	59661.269930
2373.766338	59673.982517
2375.306622	59666.154545
2376.846617	59642.828671
2378.383034	59627.393007
2379.922452	59652.326573
2381.458293	59660.641958
2382.995490	59679.018182
2384.529112	59682.178322
2386.065734	59667.316783
2387.600426	59695.349650
2389.133188	59740.913986
2390.665663	59788.622378
2392.196210	59848.839860
2393.729755	59866.796503
2395.258089	59898.191608
2396.787780	59945.424476
2398.317184	59998.357343
2399.846304	60037.755944
2401.375139	60067.718881
2402.898768	60047.937063
2404.427033	60069.003497
2405.950096	60104.048252
2407.477792	60130.858042
2408.998649	60174.830769
2410.524139	60182.931469
2412.046068	60209.862238
2413.569353	60259.202098
2415.090716	60289.206294
2416.610160	60291.294406
2418.130959	60318.924476
2419.649840	60333.913287
2421.168438	60328.068531
2422.685119	60361.197902
2424.203154	60385.133566
2425.720908	60419.023776
2427.235111	60471.208392
2428.749033	60540.161538
2430.262675	60584.366434
2431.777672	60618.755944
2433.289120	60621.621678
2434.801923	60643.981818
2436.312812	60695.157343
2437.823423	60716.445455
2439.332122	60731.518182
2440.843807	60742.151049
2442.351949	60767.774126
2443.859813	60808.134266
2445.367399	60868.037762
2446.871444	60935.825175
2448.378474	60969.276224
2449.883597	61021.195105
2451.388441	61059.500000
2452.891379	61108.187413
2454.394041	61145.909790
2455.896426	61142.292308
2457.396906	61137.045455
2458.898739	61113.823077
2460.398667	61137.218881
2461.898320	61178.193706
2463.397698	61213.654545
2464.895173	61261.539860
2466.390746	61325.193007
2467.889299	61379.077622
2469.384324	61410.299301
2470.880701	61470.534965
2472.373552	61517.700000
2473.867756	61563.455944
2475.361686	61605.996503
2476.852092	61648.247552
2478.345476	61686.583217
2479.836962	61725.792308
2481.326551	61761.079021
2482.815868	61793.662238
2484.303289	61798.997902
2485.793686	61778.526573
2487.280565	61763.094406
2488.768795	61768.156643
2490.253508	61768.702797
2491.737952	61782.781818
2493.223746	61771.300000
2494.707649	61753.918182
2496.192902	61761.069231
2497.673022	61778.317483
2499.156115	61786.593007
2500.637317	61802.027273
2502.118250	61796.660839
2503.597294	61801.804895
2505.076069	61790.583916
2506.554576	61773.734266
2508.032815	61743.946154
2509.510785	61709.033566
2510.985250	61641.943357
2512.462685	61605.328671
2513.936616	61556.037762
2515.411897	61478.909790
2516.886911	61423.729371
2518.358425	61375.942657
2519.831288	61338.627972
2521.302269	61292.707692
2522.774600	61249.828671
2524.241817	61168.784615
2525.712001	61101.967133
2527.180304	61063.108392
2528.648342	61011.116084
2530.116115	60992.525874
2531.583623	60958.068531
2533.050866	60929.527273
2534.514617	60914.886713
2535.979718	60908.065734
2537.442942	60927.893706
2538.907516	60931.446154
2540.368600	60940.311189
2541.831034	60948.760140
2543.293205	60969.744755
2544.751890	61009.797902
2546.215147	61009.851049
2547.673307	61042.365035
2549.132816	61046.219580
2550.587231	61038.055944
2552.046217	61000.220280
2553.503331	60979.311888
2554.958574	60962.437063
2556.413555	60926.809091
2557.866668	60926.522378
2559.321129	60927.134965
2560.773720	60912.965035
2562.226052	60938.230769
2563.676517	60949.052448
2565.129937	60993.395105
2566.578275	61016.993007
2568.029569	61079.216084
2569.478996	61092.135664
2570.924951	61150.181119
2572.373861	61177.277622
2573.819301	61198.075524
2575.266088	61232.480420
2576.711013	61245.390909
2578.155679	61244.026573
2579.601693	61245.468531
2581.044241	61217.996503
2582.488136	61197.253147
2583.928566	61193.385315
2585.370343	61206.160140
2586.810261	61184.452448
2588.251526	61229.074825
2589.689329	61275.144755
2591.130082	61313.870629
2592.565773	61404.918182
2594.004413	61446.613986
2595.441195	61489.790210
2596.876122	61555.563636
2598.313996	61558.034965
2599.746813	61578.961538
2601.180977	61572.056643
2602.613287	61599.541259
2604.046943	61598.619580
2605.478746	61629.860839
2606.910295	61660.027972
2608.341592	61656.989510
2609.771036	61713.532867
2611.200228	61692.120280
2612.627570	61746.790210
2614.056257	61759.438462
2615.484693	61740.895804
2616.909681	61769.044056
2618.336016	61773.762937
2619.760502	61846.154545
2621.186334	61870.566434
2622.608722	61916.985315
2624.032456	61958.640559
2625.454343	61972.699301
2626.875981	62022.030070
2628.295773	62027.032168
2629.716911	62086.651748
2631.137799	62080.753846
2632.555249	62154.463636
2633.975638	62202.553147
2635.392590	62222.073427
2636.809293	62301.456643
2638.225748	62325.135664
2639.641955	62360.076923
2641.057914	62358.618881
2642.472032	62336.527972
2643.885902	62343.536364
2645.297934	62366.500699
2646.711309	62426.470629
2648.121255	62477.457343
2649.534137	62576.057343
2650.943590	62655.074825
2652.352797	62727.279021
2653.760168	62824.337063
2655.170473	62899.284615
2656.578943	62966.360140
2657.985577	63028.520280
2659.391966	63065.462238
2660.796521	63112.634965
2662.202420	63192.574825
2663.606486	63252.693007
2665.010307	63311.748951
2666.413884	63354.373427
2667.815630	63402.446154
2669.218719	63402.730070
2670.618390	63394.875524
2672.019405	63408.722378
2673.417004	63390.401399
2674.817533	63409.218881
2676.214646	63389.368531
2677.613103	63392.730070
2679.009733	63412.720280
2680.406120	63421.788811
2681.802265	63444.100000
2683.196585	63467.539161
2684.592246	63487.288811
2685.984499	63517.685315
2687.378094	63522.255245
2688.769865	63527.396503
2690.162979	63526.185315
2691.554269	63548.337063
2692.943736	63555.380420
2694.332963	63566.072028
2695.721951	63579.992308
2697.112280	63574.048951
2698.497626	63589.676224
2699.885895	63611.791608
2701.272344	63613.479021
2702.658554	63634.304895
2704.044525	63622.148252
2705.427098	63619.595804
2706.811013	63640.925874
2708.194690	63664.020979
2709.578128	63695.427273
2710.958172	63720.468531
2712.339556	63737.429371
2713.719126	63749.327273
2715.100036	63772.273427
2716.479132	63789.763636
2717.856414	63791.860140
2719.235037	63813.694406
2720.611847	63820.329371
2721.988420	63835.573427
2723.364758	63857.276923
2724.739285	63865.122378
2726.115152	63880.007692
2727.487632	63887.449650
2728.863028	63887.689510
2730.233464	63893.414685
2731.605241	63893.455245
2732.976783	63895.726573
2734.346517	63898.934266
2735.717592	63904.037762
2737.086858	63900.230070
2738.455891	63902.698601
2739.823118	63900.295105
2741.190112	63899.657343
2742.556872	63899.765035
2743.923401	63900.473427
2745.288124	63896.624476
2746.652615	63894.984615
2748.016875	63891.974825
2749.380902	63888.602797
2750.744698	63887.799301
2752.105120	63886.508392
2753.468452	63885.113986
2754.826842	63890.220280
2756.188142	63892.168531
2757.546072	63896.141958
2758.906910	63899.051748
2760.265949	63902.234266
2761.621619	63909.525175
2762.980197	63903.056643
2764.335408	63898.186713
2765.690390	63890.982517
2767.043576	63883.406294
2768.399668	63878.821678
2769.752395	63877.313287
2771.104895	63882.827273
2772.457166	63886.258741
2773.810776	63893.350350
2775.161024	63897.500699
2776.509478	63905.857343
2777.860838	63912.137063
2779.208838	63907.034266
2780.558176	63906.662937
2781.905722	63905.313986
2783.253042	63903.900699
2784.600135	63906.577622
2785.945437	63909.915385
2787.290512	63916.702098
2788.635362	63914.254545
2789.979986	63915.972028
2791.321258	63912.111189
2792.663868	63910.227273
2794.006252	63902.399301
2795.348411	63898.141259
2796.687221	63893.495804
2798.028931	63891.993007
2799.367293	63891.271329
2800.706991	63894.772028
2802.044905	63898.416783
2803.381034	63896.701399
2804.716939	63893.513287
2806.054182	63894.370629
2807.389641	63894.149650
2808.724877	63893.734965
2810.058330	63892.017483
2811.393120	63892.624476
2812.724570	63894.076923
2814.058915	63894.826573
2815.388362	63894.604895
2816.719146	63898.572028
2818.049708	63897.663636
2819.378491	63897.244056
2820.708610	63897.177622
2822.036951	63895.698601
2823.365071	63898.808392
2824.691413	63900.862238
2826.019092	63900.700000
2827.343437	63900.196503
2828.669119	63896.551748
2829.993025	63897.702797
2831.316712	63896.389510
2832.641734	63898.704196
2833.963426	63898.508392
2835.284900	63902.254545
2836.606155	63902.885315
2837.927191	63905.316783
2839.246454	63906.451748
2840.567053	63903.301399
2841.885881	63899.595804
2843.204490	63898.032867
2844.521328	63895.944755
2845.837949	63902.006993
2847.154353	63896.549650
2848.468987	63897.794406
2849.784957	63895.839860
2851.097606	63898.693706
2852.411590	63897.002797
2853.725358	63899.722378
2855.038909	63897.758741
2856.350694	63896.399301
2857.660712	63894.460839
2858.972065	63893.051748
2860.280103	63890.915385
2861.589475	63892.671329
2862.898633	63888.890210
2864.207575	63889.716783
2865.514753	63887.188811
2866.820169	63889.620979
2868.126919	63884.337762
2869.431906	63886.723776
2870.736680	63886.109091
2872.039692	63884.551748
2873.345585	63880.011888
2874.646624	63877.053147
2875.948997	63871.551049
2877.249610	63870.953147
2878.551557	63873.233566
2879.853290	63875.420979
2881.151720	63876.974126
2882.451483	63879.864336
2883.749489	63877.139860
2885.047283	63885.041259
2886.343321	63885.116783
2887.640692	63886.558741
2888.936307	63885.886014
2890.231711	63887.683217
2891.526904	63884.556643
2892.818800	63884.433566
2894.113572	63886.951748
2895.405047	63885.220280
2896.697855	63883.920979
2897.990453	63885.825874
2899.279757	63886.237063
2900.570393	63892.360839
2901.859278	63895.183916
2903.149495	63897.876923
2904.436421	63898.723077
2905.724679	63905.609790
2907.011188	63905.533566
2908.297489	63908.770629
2909.583581	63904.630070
2910.867925	63903.323077
2912.155140	63901.789510
2913.437529	63899.016783
2914.721250	63896.914685
2916.003225	63897.355944
2917.284992	63899.539161
2918.565015	63896.737063
2919.847907	63896.639161
2921.129054	63902.196503
2922.406919	63904.414685
2923.687653	63908.431469
2924.965106	63907.379021
2926.242353	63914.123077
2927.517858	63909.353147
2928.796231	63906.869231
2930.069790	63908.259441
2931.346216	63908.930769
2932.620901	63908.484615
2933.893845	63910.772727
2935.168121	63909.977622
2936.440657	63912.401399
2937.712988	63914.422378
2938.982047	63916.669231
2940.253971	63918.206993
2941.524157	63921.555944
2942.794139	63920.252448
2944.063918	63924.601399
2945.331961	63925.646154
2946.598267	63927.202797
2947.864372	63925.212587
2949.131806	63926.749650
2950.397506	63924.113287
2951.663003	63923.127972
2952.928298	63922.311888
2954.190328	63924.989510
2955.453688	63925.955944
2956.716847	63928.779720
2957.978274	63929.829371
2959.241030	63930.476923
2960.502054	63932.086014
2961.761348	63935.083916
2963.020442	63935.745455
2964.279335	63938.007692
2965.538028	63940.633566
2966.796521	63940.336364
2968.053285	63942.445455
2969.309849	63945.206294
2970.564686	63942.793706
2971.820851	63943.141259
2973.073762	63942.553846
2974.328002	63940.119580
2975.582043	63941.462238
2976.834358	63940.188811
2978.086474	63939.968531
2979.336866	63942.309790
2980.590113	63946.189510
2981.838583	63949.999301
2983.089908	63952.083217
2984.337983	63954.858042
2985.585862	63959.920280
2986.833543	63965.276224
2988.081027	63963.634266
2989.326790	63962.579021
2990.572357	63965.337762
2991.819251	63965.206993
2993.062901	63965.985315
2994.307879	63971.395105
2995.549613	63974.288811
2996.794199	63979.645455
2998.037066	63978.109790
2999.276692	63983.876224
3000.519168	63989.062937
3001.758404	63988.244755
3002.998968	63985.893706
3004.237816	63986.720280
3005.476468	63987.350350
3006.713406	63988.657343
3007.951670	63986.323077
3009.188219	63988.990210
3010.424575	63989.329371
3011.660737	63993.202797
3012.895185	63991.016783
3014.129441	63997.131469
3015.363503	63998.937762
3016.595853	63999.994406
3017.826491	64003.852448
3019.059975	64004.251049
3020.291747	64007.517483
3021.521809	64011.325874
3022.751679	64007.461538
3023.979839	64011.324476
3025.209325	64009.838462
3026.437102	64010.523077
3027.664688	64005.048951
3028.893601	64008.091608
3030.117771	64007.534266
3031.344784	64009.843357
3032.568573	64012.068531
3033.793689	64012.903497
3035.017098	64017.513986
3036.240317	64022.300000
3037.461831	64029.658741
3038.686186	64034.920280
3039.905806	64037.332168
3041.126752	64039.906993
3042.347509	64035.462937
3043.566562	64037.886713
3044.786940	64035.367832
3046.004102	64035.808392
3047.222590	64032.595105
3048.439375	64031.933566
3049.655973	64032.848951
3050.872382	64039.374825
3052.085579	64045.622378
3053.301613	64045.165035
3054.514435	64047.940559
3055.730094	64048.151049
3056.941030	64047.417483
3058.153291	64048.910490
3059.365366	64050.436364
3060.577253	64055.234965
3061.787444	64056.211189
3062.997448	64059.432867
3064.207266	64062.679021
3065.415388	64063.581119
3066.623325	64064.802098
3067.829566	64065.940559
3069.037132	64066.807692
3070.243003	64069.597902
3071.448690	64069.813986
3072.654191	64069.886713
3073.857999	64068.562238
3075.063131	64068.988112
3076.266570	64067.444056
3077.468318	64066.077622
3078.669881	64067.604196
3079.871261	64063.088112
3081.072457	64065.837762
3082.271963	64069.176224
3083.471286	64069.029371
3084.671932	64070.886014
3085.870888	64069.719580
3087.066650	64071.127972
3088.265241	64068.051049
3089.460638	64071.011888
3090.657358	64072.387413
3091.850886	64077.329371
3093.047242	64082.196503
3094.241912	64084.955245
3095.433391	64090.025874
3096.629201	64092.860140
3097.820318	64089.386014
3099.012757	64086.698601
3100.202009	64083.629371
3101.394086	64084.537762
3102.584480	64079.247552
3103.771688	64080.614685
3104.960219	64080.176224
3106.150071	64082.783916
3107.336740	64087.948252
3108.523228	64090.644755
3109.709538	64089.860839
3110.897169	64093.137762
3112.081618	64094.728671
3113.264388	64097.814685
3114.449980	64099.263636
3115.633893	64105.022378
3116.816127	64103.464336
3117.998182	64105.299301
3119.180059	64102.985315
3120.361758	64104.753846
3121.541780	64106.425874
3122.720125	64102.371329
3123.901290	64100.873427
3125.079280	64102.593007
3126.257094	64105.348951
3127.434730	64106.809091
3128.610691	64105.980420
3129.786475	64109.266434
3130.963581	64107.121678
3132.139012	64105.611888
3133.312770	64101.237762
3134.484855	64102.637762
3135.658262	64100.288811
3136.831492	64099.789510
3138.003051	64100.711189
3139.175930	64099.422378
3140.345642	64101.143357
3141.516675	64098.692308
3142.686038	64098.612587
3143.853730	64102.277622
3145.024238	64101.387413
3146.190088	64099.704895
3147.360246	64099.041958
3148.525748	64104.493706
3149.691075	64106.518881
3150.856229	64108.776923
3152.021210	64111.969930
3153.187510	64109.924476
3154.349158	64109.109790
3155.512125	64107.910490
3156.674920	64108.490909
3157.837542	64113.347552
3158.998499	64109.195804
3160.159283	64110.606993
3161.319895	64111.855245
3162.478843	64116.908392
3163.637620	64117.455944
3164.796225	64120.364336
3165.954657	64120.704196
3167.112919	64121.859441
3168.269518	64123.807692
3169.424456	64125.580420
3170.580713	64125.293007
3171.735309	64127.309091
3172.889735	64121.805594
3174.042501	64119.458741
3175.195096	64115.713986
3176.347522	64111.126573
3177.499778	64106.552448
3178.651863	64107.937063
3179.800803	64104.909790
3180.952549	64107.660839
3182.102637	64104.729371
3183.251069	64108.478322
3184.399331	64109.827273
3185.547425	64110.688112
3186.695350	64109.150350
3187.841619	64109.870629
3188.987720	64111.059441
3190.132167	64108.639161
3191.276446	64108.964336
3192.420557	64110.332168
3193.565985	64110.753147
3194.708275	64110.066434
3195.850398	64107.059441
3196.992353	64109.704196
3198.134141	64107.790909
3199.275762	64105.498601
3200.414248	64105.247552
3201.554051	64106.007692
3202.695172	64102.736364
3203.833158	64100.974126
3204.969495	64098.547552
3206.105666	64098.235664
3207.243154	64099.475524
3208.378994	64099.688811
3209.516151	64101.126573
3210.648695	64103.624476
3211.785521	64108.709091
3212.917735	64111.197203
3214.051266	64114.111888
3215.184633	64112.465035
3216.314872	64107.695804
3217.447909	64109.236364
3218.577820	64107.398601
3219.709047	64105.636364
3220.837150	64103.213287
3221.968049	64102.695105
3223.097304	64103.600699
3224.224916	64106.509091
3225.349405	64109.793007
3226.478170	64112.707692
3227.603813	64113.655245
3228.729294	64112.588112
3229.853133	64111.301399
3230.979766	64114.679720
3232.101802	64115.222378
3233.225154	64115.520280
3234.348344	64115.631469
3235.471372	64117.939161
3236.592760	64120.507692
3237.713986	64123.158741
3238.833575	64124.830769
3239.953002	64120.908392
3241.070791	64115.363636
3242.191372	64112.777622
3243.308840	64111.875524
3244.426147	64108.165734
3245.543294	64104.244755
3246.658805	64104.541259
3247.775630	64101.593007
3248.889346	64099.820280
3250.005851	64101.312587
3251.120722	64102.895804
3252.232484	64101.401399
3253.344086	64097.410490
3254.457004	64100.683916
3255.569762	64103.258042
3256.679414	64105.423776
3257.790381	64102.887413
3258.901189	64104.566434
3260.010365	64108.828671
3261.117911	64096.353147
3262.226770	64087.209790
3263.335472	64081.267133
3264.441071	64079.906993
3265.547984	64078.380420
3266.653268	64081.061538
3267.759866	64082.737063
3268.863364	64084.023077
3269.968177	64087.340559
3271.072832	64095.453147
3272.174388	64103.598601
3273.275788	64103.890210
3274.378502	64091.998601
3275.481060	64089.154545
3276.580521	64087.644755
3277.682766	64090.125874
3278.781915	64092.332867
3279.879440	64094.041259
3280.976809	64094.121678
3282.076960	64098.628671
3283.174019	64100.742657
3284.270922	64107.190909
3285.367670	64108.218881
3286.459860	64107.867133
3287.556298	64105.234965
3288.651114	64108.338462
3289.745776	64109.407692
3290.838816	64108.113287
3291.931701	64108.741259
3293.022967	64106.593706
3294.115544	64104.314685
3295.206502	64104.917483
3296.295840	64100.946853
3297.385025	64102.878322
3298.475523	64102.225874
3299.562936	64103.617483
3300.650196	64106.260140
3301.738769	64109.023776
3302.827190	64108.506294
3303.911063	64108.936364
3304.999178	64108.769930
3306.084211	64110.340559
3307.167629	64112.535664
3308.252359	64110.983916
3309.335473	64108.322378
3310.419900	64111.033566
3311.501248	64110.857343
3312.583908	64112.641259
3313.664954	64115.503497
3314.745849	64117.162238
3315.825130	64119.081818
3316.904261	64122.043357
3317.984704	64121.849650
3319.062072	64123.325874
3320.140752	64125.986014
3321.217820	64124.317483
3322.294739	64124.692308
3323.370046	64125.400699
3324.445204	64123.641259
3325.521673	64125.094406
3326.595072	64124.690909
3327.668322	64126.445455
3328.742882	64124.819580
3329.815834	64123.326573
3330.887177	64118.330070
3331.959831	64114.520280
3333.029419	64115.618881
3334.100317	64117.832168
3335.169608	64116.700699
3336.240210	64122.153846
3337.309205	64120.802098
3338.376594	64123.436364
3339.442378	64129.498601
3340.512388	64126.577622
3341.579335	64124.173427
3342.643220	64123.540559
3343.709873	64121.758741
3344.774921	64124.466434
3345.838366	64125.427273
3346.901665	64130.108392
3347.964817	64132.616783
3349.027823	64140.466434
3350.090683	64138.580420
3351.151941	64143.495105
3352.210142	64147.208392
3353.272563	64143.287413
3354.331929	64142.727273
3355.391149	64139.191608
3356.451679	64137.758741
3357.507699	64137.114685
3358.566483	64133.567133
3359.620760	64135.884615
3360.677801	64136.441958
3361.733243	64142.702098
3362.789995	64143.054545
3363.845148	64146.101399
3364.898704	64149.589510
3365.950664	64151.816783
3367.005385	64150.707692
3368.057057	64150.295804
3369.108586	64152.052448
3370.161423	64152.924476
3371.211213	64152.948252
3372.262312	64158.339860
3373.310365	64155.413986
3374.361177	64157.360839
3375.408945	64154.167832
3376.456570	64153.645455
3377.504052	64151.386713
3378.549942	64147.068531
3379.597140	64146.753147
3380.641296	64148.346853
3381.688210	64148.009790
3382.733532	64154.678322
3383.775813	64155.123776
3384.817954	64158.900000
3385.861402	64156.183217
3386.904709	64160.490210
3387.946427	64162.307692
3388.988003	64163.597203
3390.029438	64161.931469
3391.069285	64162.296503
3392.107543	64163.100699
3393.147109	64161.868531
3394.186535	64157.215385
3395.224373	64163.242657
3396.260624	64159.891608
3397.296736	64162.636364
3398.334155	64162.757343
3399.368541	64164.238462
3400.404234	64166.072727
3401.439788	64169.412587
3402.472311	64172.743357
3403.507587	64176.168531
3404.539832	64174.168531
3405.571939	64169.943357
3406.602462	64165.840559
3407.634292	64167.983916
3408.665984	64165.750350
3409.694648	64168.344056
3410.723175	64165.776224
3411.753008	64166.102098
3412.782704	64168.413986
3413.809374	64172.984615
3414.837351	64178.060839
3415.862303	64180.699301
3416.890005	64181.113986
3417.914684	64185.141958
3418.940669	64183.418182
3419.965074	64186.874126
3420.989343	64187.947552
3422.012033	64192.745455
3423.034587	64192.190909
3424.058447	64192.404895
3425.079287	64193.469231
3426.099991	64195.629970
3427.122002	64197.534865
3428.140994	64198.856643
3429.159850	64199.268032
3430.180013	64198.441758
3431.197159	64196.050549
