-118.059454	65.391209
-115.389854	62.961538
-112.723189	60.871129
-110.057276	59.185714
-107.394295	57.971029
-104.729885	57.292807
-102.068405	57.216783
-99.405496	60.708392
-96.747693	61.346853
-94.088461	59.648252
-91.429977	62.778322
-88.774417	63.131469
-86.117429	63.918881
-83.465539	65.244056
-80.812218	62.140559
-78.161818	65.087413
-75.509988	63.829371
-72.863249	65.762238
-70.215081	64.311888
-67.567655	67.698601
-64.923143	66.786014
-62.277203	66.348252
-59.636344	68.725874
-56.994056	70.357343
-54.354677	71.713986
-51.713868	72.736364
-49.073800	68.595804
-46.438804	68.888112
-43.802380	68.351049
-41.168858	68.881119
-38.533908	66.194406
-35.904023	66.688112
-33.270546	65.296503
-30.642131	66.041259
-28.014450	66.818881
-25.385340	65.635664
-22.761287	61.265035
-20.133645	43.914685
-17.511056	1.704196
-14.889199	31.728671
-12.268072	185.848252
-9.647675	387.580420
-7.030167	545.304895
-4.411230	653.246853
-1.795178	703.946154
0.820145	705.489510
3.434741	650.953147
6.046454	546.520280
8.659596	395.902797
11.267704	217.488112
13.879394	46.719580
16.486053	-6.751748
19.094140	40.409790
21.701503	84.367133
24.303841	88.109091
26.909757	86.300699
29.510651	87.723776
32.112973	87.773427
34.710278	85.556643
37.311158	87.404196
39.907023	89.130070
42.504317	92.647552
45.100891	92.913986
47.692456	95.331469
50.285449	98.360839
52.875581	98.432867
55.467141	98.311189
58.055841	100.024476
60.645968	102.124476
63.231096	102.050350
65.817652	102.948951
68.403494	103.833566
70.986482	105.192308
73.570896	108.230070
76.148182	110.373427
78.729034	113.003497
81.307037	116.016084
83.884330	117.490210
86.463049	119.553846
89.036786	123.825874
91.611951	125.251748
94.184272	130.088112
96.755885	136.057343
99.324658	140.323776
101.894858	147.628671
104.462220	158.726573
107.031007	167.972028
109.596958	184.451049
112.160074	204.515385
114.726746	233.780420
117.284197	278.413287
119.847333	359.260140
122.405509	496.240559
124.967240	741.686014
127.524014	1175.199301
130.082215	1863.283217
132.635462	2838.895105
135.188012	4107.211888
137.744112	5601.451748
140.295264	7219.576224
142.845719	8863.554545
145.395476	10388.455245
147.942414	11676.820280
150.488657	12679.487413
153.036325	13345.765734
155.583297	13734.325874
158.125334	13918.775524
160.666677	13971.074126
163.207327	13954.669231
165.749403	13916.355944
168.288667	13895.330070
170.825123	13855.551748
173.360887	13841.864336
175.898077	13812.358042
178.434576	13794.342657
180.968269	13773.341958
183.499158	13771.495804
186.029360	13785.132867
188.560986	13808.476224
191.089811	13827.346154
193.615837	13865.972727
196.141177	13896.590909
198.667942	13937.260140
201.191911	13934.111888
203.715195	13939.746154
206.237794	13917.189510
208.757600	13905.275524
211.276723	13887.658741
213.795163	13899.198601
216.315027	13897.481119
218.827890	13905.579720
221.344284	13910.402098
223.859996	13938.616783
226.370818	13961.045455
228.883065	13992.597902
231.392530	14004.800699
233.901316	14024.578322
236.409423	14025.605594
238.918955	14030.034266
241.423606	14045.720979
243.927581	14044.044755
246.432980	14041.859441
248.933504	14028.953147
251.437552	14012.600699
253.934628	13993.869231
256.435228	13996.423776
258.933056	13992.416783
261.430211	13986.846154
263.926693	13996.734266
266.418312	13987.545455
268.913451	13960.581119
271.405823	13951.743357
273.897525	13925.933566
276.386464	13896.236364
278.876827	13853.118881
281.364427	13825.523776
283.849268	13796.116084
286.337624	13783.646154
288.819040	13768.851748
291.303970	13763.928671
293.784055	13762.082517
296.267652	13748.214685
298.746406	13732.485315
301.226584	13738.965734
303.704009	13726.675524
306.180771	13711.946853
308.656870	13715.745455
311.130220	13744.247552
313.602908	13758.953147
316.074935	13785.913287
318.546301	13816.079720
321.014922	13828.493007
323.482885	13863.021678
325.952269	13877.739860
328.416831	13891.803497
330.884897	13915.788811
333.348143	13926.519580
335.810731	13942.673427
338.272663	13969.104895
340.733938	13994.990909
343.192479	13999.111189
345.652442	13998.644056
348.109672	13980.756643
350.566248	13954.271329
353.022170	13932.963636
355.475362	13877.832168
357.929977	13832.220280
360.379790	13794.677622
362.833099	13754.860839
365.281610	13708.859441
367.729469	13669.856643
370.178751	13633.746154
372.623239	13595.949650
375.069149	13567.424476
377.514409	13537.316783
379.956951	13523.604895
382.398845	13503.997203
384.840092	13477.924476
387.278623	13479.362937
389.718576	13489.656643
392.155815	13492.086713
394.590342	13497.084615
397.028357	13527.514685
399.461595	13556.353846
401.896254	13581.737762
404.326141	13619.458741
406.759513	13656.585315
409.188115	13702.981119
411.616075	13740.105594
414.045457	13750.667133
416.470073	13787.611888
418.896111	13795.232867
421.321508	13799.268531
423.746265	13824.513986
426.166264	13836.688811
428.587684	13838.336364
431.006407	13829.542657
433.426551	13842.583217
435.844000	13843.853846
438.262869	13849.853147
440.679045	13857.467133
443.090473	13863.379021
445.505379	13887.469930
447.917594	13923.007692
450.329175	13956.155944
452.740122	13988.841259
455.148383	14002.193007
457.556011	14032.031469
459.963007	14045.872028
462.369372	14065.048252
464.773054	14063.167133
467.176106	14081.187413
469.578528	14083.678322
471.980320	14092.876224
474.379435	14102.186014
476.779969	14117.565734
479.179874	14104.137063
481.575056	14097.530070
483.973705	14085.729371
486.367634	14069.671329
488.760937	14042.269930
491.153614	14020.348951
493.545666	13996.057343
495.939136	13963.993007
498.327894	13933.054545
500.713986	13902.937063
503.101498	13856.417483
505.488387	13823.841958
507.872612	13795.402098
510.258255	13781.435664
512.641237	13778.779021
515.021558	13778.097902
517.403298	13781.920280
519.782379	13805.423776
522.162879	13813.936364
524.540721	13826.620280
526.915908	13844.945455
529.290477	13833.264336
531.666464	13816.646853
534.039799	13795.802098
536.414551	13770.725874
538.784618	13765.748951
541.154069	13759.734266
543.524938	13755.750350
545.891127	13738.104895
548.258734	13732.116783
550.623695	13722.265035
552.988043	13721.950350
555.351778	13709.709790
557.716931	13699.824476
560.077412	13672.279021
562.439311	13639.561538
564.798569	13633.044755
567.155190	13625.338462
569.515255	13628.846853
571.868629	13634.623077
574.225448	13640.417483
576.579632	13661.492308
578.933208	13665.422378
581.286175	13669.441958
583.636510	13671.134266
585.988263	13666.583217
588.333339	13646.492308
590.683879	13641.932168
593.027745	13635.727972
595.377073	13608.823776
597.721752	13604.873427
600.063807	13572.311888
602.407279	13556.398601
604.748128	13536.520280
607.088375	13498.959441
609.426001	13467.011888
611.767062	13434.944056
614.103485	13414.644056
616.441325	13396.740559
618.776548	13383.623776
621.109155	13380.172028
623.443178	13377.152448
625.774587	13374.185315
628.105398	13352.153846
630.435612	13354.010490
632.765227	13357.576224
635.090220	13359.714685
637.420653	13346.203497
639.746466	13346.011189
642.069671	13365.090909
644.394293	13367.575524
646.716309	13377.576923
649.037731	13398.420979
651.356551	13415.990210
653.676786	13419.503497
655.996428	13439.769231
658.313469	13450.086713
660.629918	13464.513287
662.943769	13492.779021
665.259036	13491.369231
667.571706	13504.678322
669.885791	13533.020280
672.195276	13549.790909
674.506177	13562.577622
676.814485	13553.202098
679.122205	13559.828671
681.431339	13553.863636
683.735881	13564.043357
686.039837	13559.949650
688.343207	13565.813287
690.647991	13581.434965
692.948189	13577.465035
695.249801	13568.988811
697.550829	13568.412587
699.847274	13558.302098
702.145135	13534.188811
704.442412	13504.144755
706.739106	13496.368531
709.031224	13472.618182
711.326753	13464.933566
713.617708	13449.159441
715.910078	13455.385315
718.199873	13460.885315
720.489087	13467.988811
722.777722	13474.140559
725.063784	13481.960140
727.351261	13498.913287
729.636166	13511.555944
731.920494	13522.778322
734.202253	13534.393007
736.485426	13545.649650
738.768022	13550.983916
741.046062	13565.190210
743.325517	13594.444755
745.604395	13601.367133
747.882699	13613.269231
750.156453	13632.904196
752.431620	13638.708392
754.706214	13645.505594
756.978249	13639.155245
759.251697	13637.718881
761.522587	13656.876224
763.790921	13665.179720
766.060668	13662.323077
768.327861	13673.323776
770.594483	13674.432867
772.860535	13660.373427
775.124036	13645.590210
777.388950	13645.876923
779.653294	13633.311189
781.913109	13616.676923
784.174336	13622.979720
786.434996	13625.756643
788.693110	13648.803497
790.948679	13650.556643
793.207639	13645.941259
795.460100	13657.986014
797.717927	13670.279720
799.971236	13665.988112
802.222005	13638.533566
804.474186	13636.413986
806.723828	13610.960839
808.974883	13584.937762
811.221426	13577.420280
813.469381	13545.953147
815.714802	13532.967133
817.961634	13502.158042
820.207905	13477.579720
822.449671	13464.493706
824.694821	13457.653147
826.933498	13428.237063
829.175557	13380.083916
831.413118	13370.619580
833.652091	13343.809790
835.888537	13323.189510
838.126394	13323.742657
840.361726	13315.202098
842.594535	13323.859441
844.828755	13325.602098
847.060452	13344.513986
849.291595	13364.115385
851.522183	13379.086713
853.752217	13372.862937
855.981697	13370.720280
858.206695	13387.643357
860.435068	13389.342657
862.658961	13387.797902
864.884266	13387.701399
867.105095	13380.974126
869.329296	13384.220280
871.549024	13374.623077
873.770162	13365.593706
875.990750	13359.811189
878.208829	13341.646853
880.428317	13315.776224
882.643339	13276.707692
884.857814	13264.397902
887.071740	13239.771329
889.285120	13229.820280
891.497952	13217.585315
893.710238	13206.513986
895.920021	13206.997902
898.129259	13196.110490
900.337952	13208.167832
902.544146	13219.904196
904.751749	13240.437762
906.956854	13251.384615
909.161416	13240.409091
911.363483	13269.915385
913.566959	13300.090909
915.767941	13343.764336
917.968381	13375.954545
920.170230	13410.918881
922.365688	13457.397902
924.564505	13494.927972
926.758883	13536.793706
928.956619	13562.155944
931.149919	13600.197902
933.344628	13632.641958
935.536851	13651.078322
937.728535	13675.715385
939.919682	13690.039860
942.108346	13705.283916
944.296474	13722.757343
946.482121	13750.320979
948.671120	13794.951049
950.855696	13821.068531
953.039737	13855.270629
955.227128	13893.040559
957.406215	13946.536364
959.588653	14017.444056
961.770557	14081.789510
963.949986	14143.500699
966.126943	14198.747552
968.305308	14262.330070
970.485080	14307.750350
972.658503	14359.890909
974.835272	14419.233566
977.007634	14453.934266
979.181404	14503.520979
981.350770	14530.143357
983.523480	14586.704895
985.693725	14633.730070
987.863441	14681.608392
990.032628	14745.250350
992.197418	14789.533566
994.365549	14845.152448
996.529286	14897.926573
998.694429	14965.557343
1000.857113	15022.716783
1003.019272	15057.323077
1005.178974	15097.074126
1007.338151	15104.532867
1009.498735	15130.562238
1011.656865	15129.719580
1013.814470	15130.232867
1015.971552	15157.216084
1018.128110	15179.579021
1020.280289	15231.302797
1022.433875	15312.369930
1024.586939	15404.072028
1026.737554	15492.279720
1028.889576	15584.684615
1031.037224	15690.010490
1033.188204	15767.653846
1035.334813	15839.110490
1037.480903	15899.376224
1039.626475	15945.696503
1041.773452	15985.930070
1043.914140	16022.798601
1046.058158	16058.960839
1048.199735	16094.892308
1050.340796	16125.688811
1052.483261	16142.874126
1054.619447	16173.024476
1056.758958	16183.167133
1058.894115	16188.933566
1061.032596	16187.186014
1063.166723	16169.982517
1065.300337	16151.623776
1067.435356	16120.763636
1069.566025	16089.126573
1071.698099	16043.534965
1073.827744	15979.588811
1075.956877	15921.552448
1078.085498	15853.620280
1080.213608	15790.723776
1082.339292	15738.328671
1084.464466	15682.452448
1086.591044	15609.067133
1088.713284	15532.504895
1090.836929	15483.820280
1092.956239	15410.660140
1095.080779	15350.276224
1097.199073	15288.746154
1099.318772	15243.704196
1101.436052	15211.199301
1103.552826	15163.768531
1105.669093	15139.975524
1107.782944	15112.622378
1109.898200	15045.634965
1112.009132	15000.427972
1114.123377	14947.609790
1116.233301	14915.463636
1118.344629	14874.969930
1120.455452	14845.402098
1122.561959	14817.144755
1124.671776	14800.270629
1126.777278	14785.925175
1128.884183	14751.926573
1130.984873	14728.374825
1133.090775	14661.440559
1135.192368	14605.738462
1137.295364	14584.783916
1139.397859	14532.569231
1141.494147	14490.993007
1143.595643	14460.516084
1145.692835	14412.179021
1147.789530	14399.388811
1149.885726	14368.923776
1151.981425	14368.587413
1154.076625	14363.227972
1156.169429	14363.666434
1158.263636	14323.153846
1160.351651	14364.976224
1162.444864	14371.500699
1164.531889	14363.010490
1166.622213	14363.664336
1168.708250	14383.467133
1170.797584	14393.586713
1172.880737	14394.798601
1174.965292	14413.695804
1177.051249	14431.855245
1179.132924	14474.689510
1181.216001	14458.369930
1183.296692	14462.302098
1185.376891	14486.948252
1187.456599	14455.181119
1189.535816	14442.796503
1191.612651	14444.918182
1193.687105	14426.993007
1195.764850	14426.949650
1197.838326	14406.004196
1199.913202	14418.669231
1201.983811	14411.597203
1204.055821	14473.186713
1206.125456	14478.545455
1208.196491	14497.225175
1210.267038	14506.295804
1212.333324	14526.062238
1214.401011	14542.048951
1216.466326	14550.500000
1218.533041	14523.365035
1220.595500	14520.819580
1222.661244	14518.377622
1224.722734	14486.632867
1226.785625	14494.545455
1228.846148	14564.376224
1230.906187	14550.146853
1232.965744	14542.182517
1235.022935	14616.347552
1237.079645	14625.545455
1239.133991	14655.845455
1241.191619	14718.173427
1243.246884	14755.842657
1245.297908	14777.510490
1247.350332	14856.819580
1249.402276	14901.106294
1251.451862	14967.451049
1253.500969	15057.120979
1255.549598	15056.338462
1257.597748	15132.630769
1259.645419	15242.109091
1261.688860	15257.136364
1263.735577	15331.288811
1265.779940	15449.326573
1267.823827	15553.059441
1269.865362	15607.854545
1271.904548	15763.386014
1273.947007	15881.133566
1275.985243	16040.743357
1278.024878	16223.251748
1280.064038	16388.927972
1282.098979	16625.834266
1284.135319	16896.097902
1286.169315	17142.345455
1288.204708	17387.741958
1290.235889	17677.681119
1292.268467	17938.755245
1294.300574	18131.062937
1296.330340	18395.200699
1298.361504	18531.011189
1300.388460	18712.355245
1302.416814	18823.095105
1304.440963	18909.235664
1306.468378	19019.942657
1308.491590	19166.511189
1310.516200	19131.923077
1312.538476	18831.779021
1314.562149	20063.180420
1316.583489	23661.737063
1318.604361	29033.593007
1320.624766	35568.802098
1322.640978	42576.577622
1324.658587	49592.458741
1326.673868	56880.069930
1328.692408	63662.043357
1330.706759	67147.272028
1332.718784	66617.758042
1334.734066	62143.513287
1336.745163	54835.667133
1338.757657	47088.825874
1340.765968	39521.327972
1342.777534	32069.725874
1344.783062	25317.623077
1346.791845	19934.071329
1348.796450	16554.955944
1350.804309	15866.879021
1352.811706	16469.548951
1354.813072	16421.983217
1356.815834	16296.893706
1358.818137	16135.172028
1360.819980	16003.569930
1362.821363	15858.723077
1364.820433	15777.164336
1366.819044	15714.567133
1368.817197	15628.431469
1370.814891	15593.547552
1372.808423	15534.316783
1374.803351	15528.042657
1376.797821	15484.003497
1378.791835	15420.113287
1380.783542	15407.405594
1382.774794	15358.018881
1384.763740	15354.467133
1386.754081	15313.641958
1388.743967	15309.714685
1390.731549	15282.474126
1392.718678	15280.790210
1394.703505	15333.455944
1396.689727	15324.048252
1398.673649	15377.051748
1400.657118	15352.955944
1402.640134	15349.608392
1404.620853	15360.308392
1406.602966	15370.148951
1408.582783	15401.748951
1410.562148	15425.493007
1412.537375	15439.141958
1414.515840	15495.044056
1416.492012	15574.316084
1418.467735	15657.281818
1420.443008	15709.648951
1422.415990	15787.353846
1424.388524	15818.913986
1426.360610	15892.515385
1428.332249	15952.179021
1430.299759	16042.493007
1432.272343	16090.286014
1434.237122	16131.203497
1436.206972	16155.142657
1438.172699	16192.490210
1440.139818	16214.259441
1442.104654	16220.462238
1444.065370	16221.467832
1446.031154	16225.218182
1447.990983	16234.862238
1449.952206	16262.371329
1451.914821	16298.242657
1453.873321	16350.781119
1455.831378	16374.346853
1457.788994	16386.404895
1459.746167	16396.070629
1461.701065	16410.870629
1463.657356	16424.113986
1465.611372	16402.586713
1467.564947	16379.779021
1469.516250	16386.816783
1471.468946	16355.391608
1473.419369	16302.950350
1475.369354	16248.791608
1477.318900	16222.559441
1479.266177	16175.301399
1481.211186	16139.397902
1483.157588	16098.402797
1485.103552	16091.139860
1487.049079	16083.338462
1488.992340	16056.993007
1490.935166	16054.665734
1492.875728	16063.803497
1494.817681	16053.648252
1496.757372	16033.155944
1498.696629	16052.800699
1500.635450	16033.611888
1502.572012	16020.725874
1504.509965	16022.127273
1506.445659	16032.413986
1508.380920	16059.200699
1510.313925	16080.848252
1512.246497	16110.626573
1514.178637	16122.404895
1516.110345	16151.774825
1518.039799	16210.613986
1519.970644	16235.281818
1521.901057	16296.125874
1523.827398	16298.200000
1525.755130	16333.657343
1527.680611	16334.302098
1529.605663	16367.227273
1531.530286	16388.972727
1533.454480	16446.462937
1535.376426	16475.169231
1537.299763	16459.740559
1539.220853	16484.609790
1541.139700	16518.682517
1543.059935	16533.474825
1544.977928	16576.751748
1546.895494	16578.618182
1548.810818	16595.059441
1550.727532	16588.020979
1552.640191	16603.767133
1554.556054	16663.705594
1556.469677	16697.177622
1558.381062	16711.029371
1560.293837	16721.069930
1562.202562	16755.372727
1564.112676	16774.997203
1566.022367	16816.700000
1567.931635	16805.052448
1569.838669	16777.090210
1571.743470	16792.986713
1573.649660	16792.920280
1575.553618	16786.840559
1577.457155	16792.482517
1579.360272	16781.528671
1581.261159	16774.789510
1583.163435	16753.381818
1585.063483	16741.974126
1586.964918	16753.293007
1588.862320	16768.080420
1590.759303	16734.481119
1592.655868	16767.506294
1594.553821	16827.494406
1596.445939	16829.982517
1598.341250	16835.020979
1600.236144	16856.289510
1602.128816	16893.058042
1604.021071	16907.335664
1605.911107	16934.285315
1607.800727	16960.430769
1609.689932	17005.408392
1611.578722	17031.247552
1613.465294	17079.981818
1615.353254	17144.125874
1617.237197	17165.976923
1619.122527	17176.379021
1621.007444	17195.212587
1622.890147	17228.205594
1624.774237	17239.702098
1626.654315	17266.397203
1628.535781	17279.820979
1630.415036	17284.050350
1632.295677	17284.223077
1634.170514	17308.419580
1636.050332	17342.805594
1637.926146	17362.641958
1639.801549	17374.681119
1641.678338	17417.239161
1643.549331	17415.125874
1645.423505	17451.886014
1647.293680	17472.767832
1649.167037	17464.559441
1651.038190	17467.565035
1652.907141	17470.169930
1654.777477	17452.518881
1656.643821	17434.162937
1658.511550	17480.404895
1660.377080	17467.999301
1662.243996	17440.039161
1664.106923	17415.883916
1665.971235	17403.938462
1667.833351	17391.420280
1669.695062	17373.460140
1671.558159	17324.747552
1673.419060	17327.642657
1675.277769	17344.021678
1677.136074	17333.865734
1678.995764	17353.612587
1680.849686	17402.855944
1682.706782	17411.841259
1684.563475	17409.458741
1686.416191	17409.195804
1688.272079	17388.176224
1690.123993	17356.613287
1691.975506	17345.704196
1693.826618	17315.148252
1695.677330	17304.183217
1697.527641	17260.702098
1699.375767	17255.923077
1701.225278	17234.039161
1703.069040	17188.753147
1704.917751	17169.853147
1706.760716	17113.827273
1708.606848	17091.525874
1710.449017	17059.436364
1712.294352	17077.676923
1714.133946	17064.302098
1715.974924	17034.422378
1717.817285	17012.631469
1719.655690	16983.102098
1721.495478	16983.146154
1723.333091	16913.296503
1725.170308	16875.972028
1727.005352	16815.006294
1728.841779	16768.186713
1730.676034	16728.509091
1732.509894	16697.782517
1734.343360	16682.140559
1736.172881	16640.719580
1738.005560	16593.601399
1739.834295	16560.777622
1741.666187	16512.672028
1743.494137	16443.693007
1745.321696	16375.182517
1747.148862	16311.667832
1748.975637	16210.090909
1750.802020	16146.806993
1752.624467	16061.128671
1754.450069	16028.490909
1756.271736	15943.923776
1758.094785	15894.909790
1759.915672	15821.147552
1761.736171	15772.644056
1763.558051	15724.088112
1765.374231	15682.090909
1767.193563	15627.825874
1769.008968	15588.318182
1770.827523	15536.679021
1772.642153	15535.151049
1774.456396	15519.638462
1776.270253	15515.748951
1778.083723	15483.848951
1779.895040	15482.561538
1781.707737	15437.146154
1783.520049	15425.599301
1785.328443	15410.800000
1787.138217	15389.562238
1788.944077	15360.313287
1790.753082	15331.684615
1792.558174	15290.867133
1794.364647	15286.917483
1796.170736	15255.960839
1797.972914	15260.883217
1799.778237	15238.465734
1801.579651	15203.573427
1803.382445	15169.339860
1805.181333	15155.160140
1806.981602	15141.997902
1808.781489	15127.109790
1810.579234	15096.903497
1812.376599	15077.267832
1814.173584	15067.562937
1815.970188	15074.941259
1817.764653	15064.228671
1819.560497	15078.749650
1821.350686	15043.058042
1823.145772	15031.539161
1824.935206	15012.144056
1826.727776	14999.004895
1828.518211	14987.391608
1830.306512	14967.747552
1832.097948	14951.119580
1833.883738	14937.453147
1835.670908	14916.409790
1837.455946	14896.217483
1839.244118	14898.498601
1841.028404	14902.327273
1842.810560	14895.762238
1844.594096	14887.109790
1846.375503	14878.798601
1848.158289	14876.176923
1849.937194	14859.012587
1851.717479	14844.632168
1853.495637	14842.604895
1855.275174	14820.695105
1857.052586	14800.381119
1858.827874	14786.718182
1860.604540	14810.781818
1862.379084	14828.546853
1864.155006	14828.190909
1865.925307	14843.439161
1867.698736	14861.990210
1869.470045	14874.553147
1871.240983	14891.056643
1873.013299	14915.128671
1874.780001	14932.683916
1876.549829	14950.653147
1878.315793	14975.397203
1880.084880	14976.574825
1881.850106	14995.574825
1883.614964	14999.804196
1885.381199	14989.267832
1887.143575	15002.291608
1888.905584	15007.920280
1890.667225	15003.476923
1892.428500	15004.379720
1894.189407	15001.181818
1895.949948	15006.099301
1897.708379	15029.043357
1899.466444	15050.916783
1901.222402	15074.767133
1902.979736	15114.680420
1904.736705	15157.348252
1906.491567	15213.653846
1908.244325	15252.099301
1909.996718	15275.974825
1911.750488	15291.193007
1913.502154	15315.945455
1915.251718	15352.181119
1917.002657	15409.000699
1918.753234	15454.811189
1920.499971	15496.572727
1922.248085	15562.040559
1923.994099	15610.655944
1925.741488	15689.139161
1927.486780	15740.311189
1929.229974	15773.534965
1930.974543	15816.312587
1932.717017	15868.700699
1934.459130	15922.968531
1936.200883	15996.582517
1937.942276	16083.335664
1939.681576	16142.582517
1941.420517	16214.914685
1943.159099	16281.859441
1944.895590	16346.642657
1946.631723	16414.167133
1948.369230	16450.414685
1950.102915	16500.300000
1951.837975	16564.913986
1953.570946	16613.589510
1955.303561	16666.257343
1957.035820	16731.594406
1958.767722	16787.446853
1960.497538	16837.972727
1962.225269	16899.174126
1963.954375	16945.825175
1965.683126	16993.932867
1967.409793	17032.470629
1969.136106	17067.193706
1970.863792	17126.188112
1972.585942	17198.578322
1974.311193	17259.758042
1976.032637	17332.748951
1977.757182	17395.118881
1979.479646	17444.945455
1981.198308	17488.634266
1982.920068	17538.611888
1984.638026	17579.448252
1986.357357	17619.575524
1988.072889	17676.737063
1989.793241	17731.122378
1991.509795	17778.029371
1993.222552	17843.556643
1994.938405	17907.558741
1996.652186	17987.274825
1998.365617	18042.210490
2000.076977	18090.520280
2001.789709	18151.697203
2003.498651	18227.930070
2005.210685	18279.261538
2006.917211	18343.337063
2008.626828	18379.309790
2010.334379	18397.368531
2012.041581	18429.824476
2013.746718	18450.968531
2015.451509	18480.065035
2017.157671	18524.295804
2018.860051	18555.461538
2020.563802	18604.230769
2022.265491	18641.769930
2023.966835	18685.796503
2025.667833	18703.404895
2027.366770	18730.565734
2029.067079	18718.501399
2030.763613	18722.144755
2032.461518	18741.504895
2034.157364	18732.679720
2035.856296	18748.557343
2037.549742	18772.234965
2039.244559	18785.973427
2040.939034	18800.050350
2042.629740	18770.825175
2044.323530	18778.227972
2046.013553	18758.651049
2047.704947	18747.200000
2049.394288	18714.652448
2051.084999	18677.376923
2052.771947	18665.672727
2054.458556	18647.804895
2056.146534	18642.718182
2057.830753	18641.742657
2059.516343	18649.316084
2061.201593	18649.232168
2062.884794	18616.463636
2064.569366	18624.616084
2066.248475	18619.113287
2067.932369	18630.217483
2069.610802	18610.178322
2071.292313	18601.836364
2072.970072	18601.293706
2074.647495	18607.708392
2076.326287	18610.257343
2078.003037	18631.513287
2079.677745	18657.376224
2081.353822	18650.862238
2083.027859	18638.911189
2084.701560	18644.418881
2086.374926	18649.911189
2088.046253	18638.007692
2089.717246	18619.015385
2091.387905	18592.646853
2093.058230	18583.418182
2094.728221	18585.926573
2096.396176	18585.774126
2098.063798	18620.344056
2099.729385	18680.606294
2101.396341	18739.777622
2103.061264	18815.654545
2104.725855	18889.767133
2106.388414	18955.348252
2108.052341	19001.862238
2109.714237	19039.988112
2111.375803	19070.462238
2113.037037	19128.721678
2114.696243	19145.413287
2116.355118	19176.308392
2118.013664	19206.387413
2119.671880	19257.739161
2121.326372	19295.700699
2122.983929	19342.634965
2124.641157	19364.909790
2126.294663	19380.515385
2127.949537	19383.325175
2129.600692	19362.474825
2131.254910	19360.047552
2132.905411	19362.309091
2134.557278	19363.195105
2136.203737	19351.629371
2137.854951	19377.177622
2139.502451	19385.702098
2141.151318	19427.614685
2142.798166	19472.675524
2144.444689	19492.026573
2146.090886	19516.987413
2147.733375	19514.074126
2149.378922	19519.867832
2151.020762	19535.421678
2152.665659	19563.650350
2154.306850	19583.974126
2155.947719	19591.015385
2157.588263	19626.749650
2159.226795	19622.134266
2160.866693	19636.695804
2162.502891	19635.028671
2164.140455	19620.674126
2165.777697	19621.910490
2167.412929	19622.980420
2169.047840	19651.769930
2170.682428	19677.027273
2172.316696	19709.587413
2173.947270	19757.961538
2175.580896	19801.621678
2177.210830	19820.804196
2178.842129	19848.345455
2180.471423	19856.300000
2182.100398	19840.509790
2183.729053	19835.786713
2185.357389	19827.084615
2186.983723	19802.679720
2188.609738	19774.162238
2190.233751	19767.182517
2191.859130	19759.087413
2193.482508	19769.397902
2195.107251	19763.870629
2196.728313	19756.420979
2198.349058	19754.616084
2199.971168	19749.333566
2201.591280	19737.045455
2203.209395	19751.144056
2204.827195	19758.666434
2206.444680	19753.149650
2208.061849	19771.281119
2209.678703	19805.967133
2211.295241	19809.348252
2212.909787	19830.813287
2214.522340	19820.400699
2216.136257	19831.905594
2217.748183	19835.916783
2219.361472	19851.211189
2220.972771	19857.744056
2222.582080	19895.606993
2224.192753	19907.451049
2225.801437	19935.940559
2227.409808	19979.175524
2229.016193	20019.348252
2230.623941	20050.865734
2232.229702	20101.855944
2233.835152	20140.060140
2235.438617	20199.597902
2237.043445	20239.272028
2238.646289	20249.236364
2240.247150	20259.339860
2241.849374	20287.707692
2243.449616	20275.920280
2245.051220	20298.906993
2246.649171	20316.233566
2248.248485	20378.572028
2249.845819	20420.149650
2251.442845	20479.860140
2253.041233	20529.153846
2254.635972	20576.118881
2256.228734	20612.883217
2257.822859	20627.244755
2259.418345	20652.367133
2261.010186	20672.411189
2262.601721	20700.515385
2264.194618	20731.695105
2265.782205	20777.976923
2267.374488	20809.271329
2268.961465	20794.668531
2270.551469	20797.043357
2272.136169	20766.740559
2273.725563	20727.379720
2275.309655	20641.016084
2276.895107	20540.037762
2278.478591	20472.278322
2280.065100	20403.549650
2281.647976	20365.665734
2283.230549	20337.827972
2284.812818	20339.080420
2286.391457	20335.269930
2287.973121	20344.075524
2289.551156	20367.538462
2291.132214	20378.308392
2292.709645	20391.590210
2294.285113	20374.979720
2295.863603	20360.390909
2297.438469	20337.783916
2299.013034	20289.971329
2300.587299	20248.900000
2302.161263	20217.581119
2303.734926	20194.041958
2305.308290	20156.051748
2306.878035	20127.644056
2308.447481	20115.355245
2310.019945	20136.032867
2311.587135	20165.625175
2313.157343	20212.382517
2314.723936	20246.219580
2316.291889	20274.260140
2317.857886	20338.889510
2319.423586	20406.895804
2320.988988	20467.850350
2322.552437	20520.202098
2324.117245	20555.287413
2325.678445	20589.058741
2327.242659	20622.346853
2328.801611	20631.535664
2330.363578	20632.760839
2331.923593	20633.697902
2333.483314	20630.876923
2335.041085	20625.925175
2336.598561	20653.867133
2338.155743	20650.186014
2339.710977	20655.384615
2341.265918	20658.018881
2342.820564	20646.866434
2344.374917	20636.265035
2345.928977	20650.820979
2347.482742	20627.123776
2349.034564	20611.854545
2350.584442	20578.720280
2352.137328	20560.268531
2353.684972	20525.186713
2355.235623	20511.841259
2356.782683	20484.646853
2358.331101	20458.934965
2359.879228	20426.458741
2361.423766	20411.097902
2362.969662	20412.000699
2364.513620	20407.382517
2366.058935	20408.086713
2367.600665	20413.136364
2369.143752	20404.632867
2370.684903	20410.301399
2372.225765	20401.809790
2373.766338	20418.531469
2375.306622	20410.032867
2376.846617	20390.236364
2378.383034	20379.340559
2379.922452	20399.134266
2381.458293	20393.861538
2382.995490	20404.751049
2384.529112	20447.994406
2386.065734	20474.962238
2387.600426	20508.709790
2389.133188	20546.885315
2390.665663	20588.200699
2392.196210	20624.506993
2393.729755	20636.809091
2395.258089	20661.593007
2396.787780	20701.230769
2398.317184	20736.948252
2399.846304	20746.616783
2401.375139	20757.258042
2402.898768	20757.116084
2404.427033	20760.823776
2405.950096	20761.536364
2407.477792	20765.896503
2408.998649	20785.197203
2410.524139	20797.617483
2412.046068	20835.139161
2413.569353	20884.951049
2415.090716	20913.746853
2416.610160	20921.355245
2418.130959	20933.434965
2419.649840	20968.971329
2421.168438	20988.726573
2422.685119	21025.334965
2424.203154	21053.080420
2425.720908	21098.125175
2427.235111	21134.111189
2428.749033	21203.717483
2430.262675	21261.044056
2431.777672	21305.731469
2433.289120	21303.772028
2434.801923	21339.668531
2436.312812	21386.499301
2437.823423	21424.860839
2439.332122	21448.172028
2440.843807	21483.617483
2442.351949	21520.376224
2443.859813	21563.463636
2445.367399	21609.039860
2446.871444	21682.086014
2448.378474	21721.065035
2449.883597	21768.413986
2451.388441	21793.883916
2452.891379	21831.100699
2454.394041	21853.244056
2455.896426	21855.138462
2457.396906	21874.541259
2458.898739	21878.137762
2460.398667	21907.019580
2461.898320	21943.429371
2463.397698	21996.855944
2464.895173	22057.395804
2466.390746	22108.453147
2467.889299	22169.497902
2469.384324	22197.889510
2470.880701	22248.777622
2472.373552	22297.804196
2473.867756	22348.353846
2475.361686	22389.775524
2476.852092	22423.839161
2478.345476	22468.497902
2479.836962	22498.318881
2481.326551	22548.432168
2482.815868	22596.015385
2484.303289	22609.641259
2485.793686	22606.544056
2487.280565	22591.512587
2488.768795	22599.108392
2490.253508	22591.148252
2491.737952	22596.016084
2493.223746	22557.504895
2494.707649	22532.031469
2496.192902	22525.948951
2497.673022	22509.354545
2499.156115	22491.244755
2500.637317	22479.832867
2502.118250	22445.406993
2503.597294	22427.476224
2505.076069	22398.503497
2506.554576	22368.913986
2508.032815	22350.500000
2509.510785	22314.541958
2510.985250	22235.064336
2512.462685	22211.114685
2513.936616	22172.682517
2515.411897	22102.196503
2516.886911	22036.070629
2518.358425	21983.827273
2519.831288	21924.941958
2521.302269	21884.768531
2522.774600	21815.281119
2524.241817	21751.037063
2525.712001	21700.490210
2527.180304	21640.026573
2528.648342	21576.676923
2530.116115	21546.865734
2531.583623	21510.090210
2533.050866	21483.189510
2534.514617	21447.684615
2535.979718	21427.538462
2537.442942	21413.553147
2538.907516	21399.678322
2540.368600	21378.281119
2541.831034	21372.271329
2543.293205	21351.418881
2544.751890	21345.802797
2546.215147	21328.469231
2547.673307	21324.188811
2549.132816	21320.715385
2550.587231	21322.079720
2552.046217	21281.620979
2553.503331	21269.760140
2554.958574	21257.701399
2556.413555	21247.174126
2557.866668	21263.746853
2559.321129	21273.055245
2560.773720	21286.926573
2562.226052	21306.703497
2563.676517	21324.466434
2565.129937	21345.167832
2566.578275	21367.367133
2568.029569	21409.222378
2569.478996	21407.738462
2570.924951	21438.095105
2572.373861	21447.320280
2573.819301	21474.669930
2575.266088	21501.525175
2576.711013	21520.393706
2578.155679	21538.772727
2579.601693	21541.225175
2581.044241	21519.569930
2582.488136	21509.300699
2583.928566	21527.755245
2585.370343	21526.851049
2586.810261	21520.625874
2588.251526	21546.944056
2589.689329	21593.606294
2591.130082	21644.666434
2592.565773	21708.142657
2594.004413	21758.662238
2595.441195	21806.183217
2596.876122	21855.769231
2598.313996	21853.767133
2599.746813	21877.212587
2601.180977	21878.643357
2602.613287	21882.602797
2604.046943	21871.955245
2605.478746	21883.125175
2606.910295	21906.371329
2608.341592	21879.067133
2609.771036	21875.056643
2611.200228	21847.676923
2612.627570	21847.462937
2614.056257	21840.025175
2615.484693	21829.942657
2616.909681	21853.783916
2618.336016	21866.607692
2619.760502	21942.693007
2621.186334	21969.365035
2622.608722	22023.497203
2624.032456	22047.986014
2625.454343	22058.167133
2626.875981	22090.727972
2628.295773	22112.955944
2629.716911	22148.548252
2631.137799	22154.599301
2632.555249	22211.069930
2633.975638	22242.100699
2635.392590	22254.657343
2636.809293	22307.577622
2638.225748	22319.105594
2639.641955	22345.838462
2641.057914	22343.742657
2642.472032	22350.409790
2643.885902	22384.076923
2645.297934	22432.325874
2646.711309	22491.539860
2648.121255	22536.174825
2649.534137	22607.042657
2650.943590	22653.440559
2652.352797	22680.016084
2653.760168	22704.385315
2655.170473	22725.781119
2656.578943	22758.959441
2657.985577	22800.879720
2659.391966	22814.935664
2660.796521	22853.336364
2662.202420	22921.202098
2663.606486	22992.881818
2665.010307	23044.350350
2666.413884	23089.508392
2667.815630	23119.813287
2669.218719	23101.651049
2670.618390	23075.893706
2672.019405	23063.446154
2673.417004	23050.938462
2674.817533	23061.106993
2676.214646	23021.367133
2677.613103	23011.524476
2679.009733	23037.639860
2680.406120	23054.574126
2681.802265	23074.655245
2683.196585	23099.119580
2684.592246	23078.862238
2685.984499	23104.458042
2687.378094	23110.211189
2688.769865	23114.982517
2690.162979	23116.339860
2691.554269	23139.898601
2692.943736	23161.109091
2694.332963	23174.957343
2695.721951	23216.860839
2697.112280	23221.551049
2698.497626	23263.505594
2699.885895	23309.423776
2701.272344	23306.460140
2702.658554	23375.842657
2704.044525	23379.348252
2705.427098	23392.041259
2706.811013	23418.181818
2708.194690	23443.072727
2709.578128	23497.830070
2710.958172	23519.153846
2712.339556	23554.679720
2713.719126	23568.800000
2715.100036	23624.876224
2716.479132	23687.714685
2717.856414	23723.367832
2719.235037	23796.309091
2720.611847	23822.420979
2721.988420	23882.679021
2723.364758	23941.925874
2724.739285	23974.926573
2726.115152	24028.894406
2727.487632	24054.576224
2728.863028	24077.974126
2730.233464	24096.979720
2731.605241	24137.684615
2732.976783	24161.690909
2734.346517	24218.621678
2735.717592	24270.490210
2737.086858	24305.570629
2738.455891	24367.493706
2739.823118	24429.049650
2741.190112	24483.047552
2742.556872	24560.474825
2743.923401	24621.618881
2745.288124	24708.058741
2746.652615	24755.987413
2748.016875	24837.869231
2749.380902	24864.652448
2750.744698	24937.458042
2752.105120	24952.295804
2753.468452	24931.316783
2754.826842	24933.241259
2756.188142	24927.358741
2757.546072	24925.977622
2758.906910	24920.673427
2760.265949	24900.917483
2761.621619	24929.173427
2762.980197	24928.918182
2764.335408	24981.309790
2765.690390	25003.060140
2767.043576	25061.621678
2768.399668	25064.467832
2769.752395	25088.569930
2771.104895	25146.300699
2772.457166	25181.236364
2773.810776	25231.611189
2775.161024	25251.108392
2776.509478	25285.712587
2777.860838	25337.853846
2779.208838	25354.192308
2780.558176	25379.720280
2781.905722	25401.174825
2783.253042	25405.337762
2784.600135	25371.465734
2785.945437	25383.162937
2787.290512	25389.045455
2788.635362	25400.238462
2789.979986	25428.789510
2791.321258	25478.129371
2792.663868	25538.991608
2794.006252	25609.172028
2795.348411	25662.257343
2796.687221	25734.554545
2798.028931	25808.169231
2799.367293	25842.306294
2800.706991	25865.148951
2802.044905	25920.921678
2803.381034	25948.625874
2804.716939	25987.753846
2806.054182	26047.623077
2807.389641	26117.850350
2808.724877	26134.548252
2810.058330	26201.088112
2811.393120	26260.962937
2812.724570	26290.343357
2814.058915	26313.373427
2815.388362	26327.222378
2816.719146	26348.253147
2818.049708	26395.707692
2819.378491	26398.461538
2820.708610	26454.030070
2822.036951	26499.818881
2823.365071	26521.145455
2824.691413	26527.477622
2826.019092	26575.204196
2827.343437	26573.044755
2828.669119	26544.390909
2829.993025	26534.605594
2831.316712	26537.220280
2832.641734	26512.295804
2833.963426	26522.538462
2835.284900	26520.779720
2836.606155	26576.791608
2837.927191	26574.283916
2839.246454	26594.349650
2840.567053	26608.548951
2841.885881	26617.882517
2843.204490	26604.854545
2844.521328	26639.102098
2845.837949	26633.958741
2847.154353	26654.698601
2848.468987	26667.833566
2849.784957	26694.661538
2851.097606	26716.490210
2852.411590	26744.851049
2853.725358	26738.181818
2855.038909	26762.467133
2856.350694	26798.664336
2857.660712	26796.269231
2858.972065	26812.300699
2860.280103	26866.563636
2861.589475	26885.569231
2862.898633	26995.758741
2864.207575	27073.013986
2865.514753	27116.960839
2866.820169	27171.868531
2868.126919	27207.509091
2869.431906	27226.901399
2870.736680	27282.150350
2872.039692	27333.731469
2873.345585	27295.155245
2874.646624	27334.632867
2875.948997	27335.113287
2877.249610	27331.604196
2878.551557	27359.544056
2879.853290	27334.346853
2881.151720	27320.055944
2882.451483	27294.490909
2883.749489	27250.800000
2885.047283	27231.382517
2886.343321	27260.584615
2887.640692	27249.639161
2888.936307	27224.105594
2890.231711	27258.527972
2891.526904	27211.566434
2892.818800	27212.109091
2894.113572	27189.388112
2895.405047	27165.094406
2896.697855	27130.150350
2897.990453	27070.704196
2899.279757	27040.335664
2900.570393	27049.341259
2901.859278	27067.148252
2903.149495	27073.239161
2904.436421	27066.713986
2905.724679	27064.432168
2907.011188	27072.958042
2908.297489	27118.279720
2909.583581	27086.404895
2910.867925	27093.542657
2912.155140	27055.799301
2913.437529	27045.562937
2914.721250	27026.003497
2916.003225	27044.218182
2917.284992	27077.007692
2918.565015	27086.155944
2919.847907	27075.804895
2921.129054	27064.347552
2922.406919	27107.867832
2923.687653	27088.830070
2924.965106	27048.800000
2926.242353	27039.404196
2927.517858	26981.048951
2928.796231	26953.076224
2930.069790	26915.439161
2931.346216	26904.483916
2932.620901	26910.546853
2933.893845	26879.237762
2935.168121	26882.669231
2936.440657	26870.700000
2937.712988	26874.875524
2938.982047	26833.858741
2940.253971	26815.699301
2941.524157	26760.746853
2942.794139	26728.868531
2944.063918	26716.992308
2945.331961	26721.988112
2946.598267	26713.251748
2947.864372	26692.542657
2949.131806	26670.760839
2950.397506	26643.621678
2951.663003	26667.099301
2952.928298	26619.318881
2954.190328	26613.893007
2955.453688	26583.556643
2956.716847	26568.764336
2957.978274	26584.051049
2959.241030	26623.072727
2960.502054	26683.928671
2961.761348	26723.100699
2963.020442	26722.987413
2964.279335	26716.337762
2965.538028	26686.112587
2966.796521	26730.877622
2968.053285	26677.653147
2969.309849	26704.041958
2970.564686	26701.039860
2971.820851	26727.965734
2973.073762	26720.244755
2974.328002	26765.345455
2975.582043	26778.580420
2976.834358	26794.053846
2978.086474	26794.548252
2979.336866	26793.914685
2980.590113	26801.132168
2981.838583	26811.949650
2983.089908	26800.837063
2984.337983	26816.658042
2985.585862	26842.334965
2986.833543	26848.278322
2988.081027	26834.398601
2989.326790	26852.595105
2990.572357	26860.677622
2991.819251	26876.497203
2993.062901	26911.827972
2994.307879	26961.989510
2995.549613	26985.816783
2996.794199	26993.988112
2998.037066	27052.129371
2999.276692	27076.706993
3000.519168	27129.795105
3001.758404	27120.526573
3002.998968	27163.181818
3004.237816	27191.168531
3005.476468	27195.109790
3006.713406	27202.531469
3007.951670	27221.183916
3009.188219	27246.850350
3010.424575	27256.225175
3011.660737	27295.412587
3012.895185	27336.832168
3014.129441	27317.904196
3015.363503	27351.500699
3016.595853	27353.391608
3017.826491	27402.213986
3019.059975	27389.477622
3020.291747	27408.682517
3021.521809	27434.005594
3022.751679	27441.018182
3023.979839	27461.837063
3025.209325	27489.094406
3026.437102	27505.052448
3027.664688	27486.890210
3028.893601	27490.516084
3030.117771	27514.650350
3031.344784	27531.303497
3032.568573	27530.491608
3033.793689	27522.890909
3035.017098	27565.760140
3036.240317	27568.890210
3037.461831	27566.302797
3038.686186	27577.242657
3039.905806	27606.946154
3041.126752	27582.722378
3042.347509	27566.883217
3043.566562	27594.213986
3044.786940	27591.528671
3046.004102	27603.343357
3047.222590	27600.077622
3048.439375	27592.001399
3049.655973	27604.945455
3050.872382	27604.217483
3052.085579	27586.693706
3053.301613	27596.778322
3054.514435	27601.841259
3055.730094	27585.596503
3056.941030	27594.693706
3058.153291	27596.813287
3059.365366	27596.124476
3060.577253	27610.191608
3061.787444	27624.725874
3062.997448	27624.290559
3064.207266	27642.229371
3065.415388	27643.131119
3066.623325	27656.458042
3067.829566	27686.512937
3069.037132	27663.863636
3070.243003	27694.982168
3071.448690	27722.251748
3072.654191	27718.234615
3073.857999	27747.311888
3075.063131	27764.829021
3076.266570	27770.802797
3077.468318	27796.648601
3078.669881	27803.571329
3079.871261	27825.155944
3081.072457	27855.713986
3082.271963	27844.203497
3083.471286	27805.237762
3084.671932	27823.667133
3085.870888	27797.878322
3087.066650	27777.745455
3088.265241	27765.267133
3089.460638	27749.907692
3090.657358	27752.700000
3091.850886	27757.406993
3093.047242	27781.313287
3094.241912	27804.216783
3095.433391	27835.413986
3096.629201	27805.565035
3097.820318	27827.235664
3099.012757	27834.178322
3100.202009	27871.441958
3101.394086	27903.051748
3102.584480	27917.451049
3103.771688	27946.148252
3104.960219	27963.602797
3106.150071	28000.810490
3107.336740	28004.510490
3108.523228	27992.637762
3109.709538	27960.292308
3110.897169	27892.737762
3112.081618	27881.495105
3113.264388	27872.875524
3114.449980	27891.894406
3115.633893	27890.250350
3116.816127	27889.026573
3117.998182	27937.692308
3119.180059	27981.021678
3120.361758	28031.995105
3121.541780	28008.691608
3122.720125	28030.727273
3123.901290	28006.355245
3125.079280	28007.887413
3126.257094	28015.912587
3127.434730	28008.561538
3128.610691	27982.465035
3129.786475	27955.159441
3130.963581	27961.939161
3132.139012	27978.358042
3133.312770	27995.351748
3134.484855	27994.251748
3135.658262	27980.846154
3136.831492	28044.193706
3138.003051	28093.990909
3139.175930	28149.632168
3140.345642	28204.378322
3141.516675	28201.576224
3142.686038	28191.923776
3143.853730	28190.663636
3145.024238	28193.321678
3146.190088	28188.757343
3147.360246	28185.163636
3148.525748	28191.262238
3149.691075	28171.096503
3150.856229	28187.906294
3152.021210	28181.395804
3153.187510	28126.568531
3154.349158	28055.562937
3155.512125	27968.968531
3156.674920	27857.487413
3157.837542	27746.218881
3158.998499	27671.386014
3160.159283	27593.020280
3161.319895	27531.557343
3162.478843	27547.285315
3163.637620	27539.516084
3164.796225	27554.955245
3165.954657	27597.669231
3167.112919	27636.618881
3168.269518	27694.142657
3169.424456	27739.699301
3170.580713	27732.309790
3171.735309	27765.285315
3172.889735	27816.089510
3174.042501	27788.719580
3175.195096	27835.857343
3176.347522	27860.560839
3177.499778	27884.648951
3178.651863	27910.572727
3179.800803	27963.623776
3180.952549	28032.933566
3182.102637	28095.886014
3183.251069	28166.766434
3184.399331	28248.009790
3185.547425	28363.033566
3186.695350	28482.567133
3187.841619	28559.018182
3188.987720	28634.183217
3190.132167	28644.027273
3191.276446	28678.173427
3192.420557	28675.729371
3193.565985	28666.375524
3194.708275	28638.858042
3195.850398	28623.006294
3196.992353	28593.707692
3198.134141	28593.674825
3199.275762	28590.549650
3200.414248	28627.866434
3201.554051	28633.941259
3202.695172	28625.918881
3203.833158	28649.733566
3204.969495	28657.869231
3206.105666	28684.202098
3207.243154	28701.123776
3208.378994	28725.004196
3209.516151	28721.840559
3210.648695	28691.007692
3211.785521	28689.429371
3212.917735	28658.952448
3214.051266	28617.825874
3215.184633	28541.788811
3216.314872	28483.113986
3217.447909	28423.192308
3218.577820	28324.546154
3219.709047	28255.123776
3220.837150	28245.929371
3221.968049	28232.388112
3223.097304	28219.846853
3224.224916	28249.708392
3225.349405	28289.467133
3226.478170	28339.291608
3227.603813	28368.340559
3228.729294	28431.558042
3229.853133	28483.054545
3230.979766	28487.270629
3232.101802	28468.428671
3233.225154	28464.997902
3234.348344	28462.226573
3235.471372	28436.002797
3236.592760	28415.374126
3237.713986	28400.200000
3238.833575	28398.386713
3239.953002	28418.183217
3241.070791	28439.844755
3242.191372	28522.633566
3243.308840	28573.202797
3244.426147	28670.641958
3245.543294	28734.811888
3246.658805	28824.620979
3247.775630	28885.641259
3248.889346	28967.061538
3250.005851	28997.366434
3251.120722	29014.986014
3252.232484	29060.572727
3253.344086	29055.076923
3254.457004	29026.419580
3255.569762	29046.261538
3256.679414	29039.081119
3257.790381	29052.537762
3258.901189	29033.290909
3260.010365	29069.792308
3261.117911	29086.911189
3262.226770	29146.209790
3263.335472	29178.441958
3264.441071	29225.221678
3265.547984	29278.540559
3266.653268	29280.456643
3267.759866	29305.455245
3268.863364	29360.899301
3269.968177	29348.472727
3271.072832	29360.521678
3272.174388	29400.187413
3273.275788	29426.764336
3274.378502	29435.567133
3275.481060	29503.329371
3276.580521	29514.359441
3277.682766	29535.153846
3278.781915	29544.596503
3279.879440	29561.818881
3280.976809	29573.762937
3282.076960	29570.642657
3283.174019	29485.210490
3284.270922	29480.820280
3285.367670	29439.782517
3286.459860	29397.826573
3287.556298	29375.328671
3288.651114	29356.127273
3289.745776	29327.476923
3290.838816	29337.720979
3291.931701	29340.676224
3293.022967	29356.301399
3294.115544	29357.047552
3295.206502	29343.442657
3296.295840	29281.038462
3297.385025	29302.968531
3298.475523	29248.013986
3299.562936	29240.746154
3300.650196	29240.303497
3301.738769	29253.197902
3302.827190	29261.560140
3303.911063	29293.424476
3304.999178	29343.278322
3306.084211	29376.959441
3307.167629	29449.716783
3308.252359	29474.296503
3309.335473	29513.723776
3310.419900	29568.922378
3311.501248	29564.700699
3312.583908	29563.995105
3313.664954	29566.498601
3314.745849	29577.716783
3315.825130	29535.773427
3316.904261	29564.800699
3317.984704	29597.532867
3319.062072	29613.341259
3320.140752	29689.333566
3321.217820	29710.635664
3322.294739	29764.937063
3323.370046	29820.951049
3324.445204	29842.400000
3325.521673	29847.260839
3326.595072	29871.153147
3327.668322	29893.171329
3328.742882	29883.001399
3329.815834	29872.171329
3330.887177	29840.323776
3331.959831	29828.818182
3333.029419	29801.776224
3334.100317	29733.857343
3335.169608	29684.771329
3336.240210	29640.446154
3337.309205	29590.262238
3338.376594	29563.916783
3339.442378	29522.254545
3340.512388	29465.718881
3341.579335	29437.128671
3342.643220	29376.237762
3343.709873	29370.203497
3344.774921	29361.459441
3345.838366	29358.964336
3346.901665	29331.702797
3347.964817	29351.393007
3349.027823	29309.611888
3350.090683	29334.902098
3351.151941	29309.313986
3352.210142	29260.763636
3353.272563	29250.149650
3354.331929	29259.589510
3355.391149	29252.848951
3356.451679	29326.448951
3357.507699	29397.839860
3358.566483	29470.979021
3359.620760	29538.513287
3360.677801	29600.489510
3361.733243	29626.260140
3362.789995	29705.081818
3363.845148	29726.947552
3364.898704	29738.096503
3365.950664	29775.222378
3367.005385	29783.215385
3368.057057	29801.932168
3369.108586	29875.295105
3370.161423	29894.338462
3371.211213	29899.620979
3372.262312	29934.576224
3373.310365	29957.713287
3374.361177	29989.905594
3375.408945	30001.622378
3376.456570	30024.416783
3377.504052	30001.267832
3378.549942	29996.194406
3379.597140	29965.853846
3380.641296	29982.397203
3381.688210	29971.620280
3382.733532	29912.758042
3383.775813	29900.071329
3384.817954	29886.537063
3385.861402	29879.776224
3386.904709	29829.176923
3387.946427	29798.073427
3388.988003	29803.086014
3390.029438	29820.662937
3391.069285	29852.712587
3392.107543	29900.757343
3393.147109	29988.276923
3394.186535	30014.012587
3395.224373	30030.558042
3396.260624	30041.534965
3397.296736	30030.287413
3398.334155	30027.733566
3399.368541	29981.741259
3400.404234	29975.690210
3401.439788	29979.265734
3402.472311	30027.832168
3403.507587	30043.666434
3404.539832	30068.987413
3405.571939	30115.273427
3406.602462	30146.588112
3407.634292	30158.708392
3408.665984	30149.972727
3409.694648	30190.100000
3410.723175	30199.783217
3411.753008	30186.630070
3412.782704	30185.563636
3413.809374	30196.657343
3414.837351	30246.035664
3415.862303	30217.583217
3416.890005	30239.608392
3417.914684	30238.168531
3418.940669	30241.402797
3419.965074	30245.262238
3420.989343	30210.874126
3422.012033	30206.561538
3423.034587	30141.906993
3424.058447	30089.153147
3425.079287	30030.982517
3426.099991	29986.569830
3427.122002	29952.484141
3428.140994	29932.814785
3429.159850	29931.651099
3430.180013	29953.082418
3431.197159	30001.198077
