-118.059454	23.881868
-115.389854	19.549451
-112.723189	16.113586
-110.057276	13.515884
-107.394295	11.697952
-104.729885	10.601399
-102.068405	10.167832
-99.405496	12.437063
-96.747693	13.647552
-94.088461	13.181818
-91.429977	10.104895
-88.774417	10.462937
-86.117429	7.243357
-83.465539	8.956643
-80.812218	7.172028
-78.161818	6.544755
-75.509988	7.370629
-72.863249	7.678322
-70.215081	6.502098
-67.567655	10.809091
-64.923143	12.158042
-62.277203	10.863636
-59.636344	8.267832
-56.994056	9.081119
-54.354677	8.355245
-51.713868	9.642657
-49.073800	9.556643
-46.438804	10.925874
-43.802380	11.307692
-41.168858	12.627972
-38.533908	12.467133
-35.904023	14.236364
-33.270546	13.363636
-30.642131	10.036364
-28.014450	7.933566
-25.385340	7.306294
-22.761287	4.003497
-20.133645	2.381119
-17.511056	-3.827273
-14.889199	6.232168
-12.268072	36.625175
-9.647675	77.698601
-7.030167	108.206294
-4.411230	130.174126
-1.795178	140.350350
0.820145	139.462937
3.434741	126.903497
6.046454	105.304895
8.659596	75.789510
11.267704	40.369231
13.879394	8.352448
16.486053	-1.107692
19.094140	5.463636
21.701503	13.946853
24.303841	12.870629
26.909757	14.006993
29.510651	11.938462
32.112973	12.219580
34.710278	12.682517
37.311158	13.577622
39.907023	14.451748
42.504317	13.638462
45.100891	15.745455
47.692456	18.962238
50.285449	20.993007
52.875581	23.273427
55.467141	22.130769
58.055841	22.277622
60.645968	21.606993
63.231096	21.996503
65.817652	22.560839
68.403494	21.167832
70.986482	21.330769
73.570896	19.872028
76.148182	20.195804
78.729034	22.636364
81.307037	23.507692
83.884330	26.807692
86.463049	29.595105
89.036786	31.554545
91.611951	30.641259
94.184272	30.201399
96.755885	28.225874
99.324658	28.879021
101.894858	27.484615
104.462220	26.405594
107.031007	25.623776
109.596958	28.027273
112.160074	32.095105
114.726746	40.049650
117.284197	49.355245
119.847333	62.744056
122.405509	88.437762
124.967240	137.709091
127.524014	219.411888
130.082215	352.357343
132.635462	536.855245
135.188012	780.090210
137.744112	1062.022378
140.295264	1371.281818
142.845719	1684.760839
145.395476	1975.830070
147.942414	2218.757343
150.488657	2405.974126
153.036325	2535.632867
155.583297	2611.169231
158.125334	2639.934266
160.666677	2647.204895
163.207327	2643.149650
165.749403	2636.602797
168.288667	2635.105594
170.825123	2635.151748
173.360887	2640.955245
175.898077	2641.800000
178.434576	2638.787413
180.968269	2639.669930
183.499158	2638.748252
186.029360	2639.383916
188.560986	2636.965035
191.089811	2641.528671
193.615837	2645.523077
196.141177	2649.560839
198.667942	2660.570629
201.191911	2660.473427
203.715195	2666.143357
206.237794	2666.658042
208.757600	2669.245455
211.276723	2675.424476
213.795163	2677.783217
216.315027	2681.237762
218.827890	2681.221678
221.344284	2686.860140
223.859996	2688.718182
226.370818	2694.218881
228.883065	2698.263636
231.392530	2698.238462
233.901316	2706.502098
236.409423	2703.876923
238.918955	2704.417483
241.423606	2705.137762
243.927581	2698.350350
246.432980	2695.310490
248.933504	2689.471329
251.437552	2689.225175
253.934628	2682.982517
256.435228	2688.052448
258.933056	2686.889510
261.430211	2687.880420
263.926693	2687.116783
266.418312	2679.949650
268.913451	2676.033566
271.405823	2671.879021
273.897525	2663.232867
276.386464	2658.362238
278.876827	2651.904895
281.364427	2647.328671
283.849268	2638.606993
286.337624	2640.615385
288.819040	2636.193007
291.303970	2639.761538
293.784055	2644.527972
296.267652	2648.809091
298.746406	2655.658741
301.226584	2652.462238
303.704009	2652.518881
306.180771	2656.913986
308.656870	2658.763636
311.130220	2667.974126
313.602908	2671.178322
316.074935	2678.696503
318.546301	2686.725175
321.014922	2697.983217
323.482885	2707.689510
325.952269	2706.689510
328.416831	2707.051748
330.884897	2704.211189
333.348143	2709.829371
335.810731	2711.176923
338.272663	2712.933566
340.733938	2722.089510
343.192479	2724.771329
345.652442	2727.246853
348.109672	2726.928671
350.566248	2726.768531
353.022170	2721.520280
355.475362	2707.348252
357.929977	2698.797203
360.379790	2692.859441
362.833099	2684.647552
365.281610	2669.060839
367.729469	2662.758741
370.178751	2658.225175
372.623239	2651.796503
375.069149	2647.465035
377.514409	2640.700000
379.956951	2646.673427
382.398845	2646.162937
384.840092	2646.290909
387.278623	2649.505594
389.718576	2656.276224
392.155815	2657.072727
394.590342	2656.374825
397.028357	2667.490210
399.461595	2676.404196
401.896254	2683.725175
404.326141	2690.427972
406.759513	2695.255944
409.188115	2704.495105
411.616075	2709.309091
414.045457	2708.009091
416.470073	2710.962937
418.896111	2717.445455
421.321508	2714.974126
423.746265	2712.942657
426.166264	2712.872028
428.587684	2715.560839
431.006407	2717.762238
433.426551	2716.047552
435.844000	2712.160140
438.262869	2708.323776
440.679045	2707.659441
443.090473	2707.109091
445.505379	2716.670629
447.917594	2727.053846
450.329175	2733.344755
452.740122	2734.668531
455.148383	2740.011189
457.556011	2746.943357
459.963007	2752.106993
462.369372	2759.221678
464.773054	2754.797902
467.176106	2756.067832
469.578528	2760.402797
471.980320	2762.947552
474.379435	2765.197902
476.779969	2763.466434
479.179874	2757.863636
481.575056	2748.238462
483.973705	2738.992308
486.367634	2727.649650
488.760937	2729.264336
491.153614	2727.063636
493.545666	2719.181818
495.939136	2721.018881
498.327894	2719.898601
500.713986	2717.026573
503.101498	2710.711888
505.488387	2705.985315
507.872612	2697.109091
510.258255	2692.260140
512.641237	2682.549650
515.021558	2679.904196
517.403298	2688.926573
519.782379	2691.390210
522.162879	2695.878322
524.540721	2702.083916
526.915908	2702.602098
529.290477	2710.086014
531.666464	2715.410490
534.039799	2719.450350
536.414551	2716.178322
538.784618	2716.159441
541.154069	2709.916084
543.524938	2706.341259
545.891127	2704.791608
548.258734	2700.762937
550.623695	2695.708392
552.988043	2689.987413
555.351778	2681.945455
557.716931	2684.648951
560.077412	2675.670629
562.439311	2673.725874
564.798569	2670.601399
567.155190	2673.006294
569.515255	2675.690909
571.868629	2675.247552
574.225448	2681.262937
576.579632	2686.772727
578.933208	2685.349650
581.286175	2686.091608
583.636510	2688.426573
585.988263	2691.978322
588.333339	2685.490210
590.683879	2689.809091
593.027745	2686.053846
595.377073	2686.518182
597.721752	2684.409091
600.063807	2672.305594
602.407279	2669.759441
604.748128	2660.025175
607.088375	2642.600000
609.426001	2637.596503
611.767062	2632.211189
614.103485	2626.170629
616.441325	2626.139161
618.776548	2625.436364
621.109155	2626.698601
623.443178	2626.974825
625.774587	2624.089510
628.105398	2616.988112
630.435612	2620.388112
632.765227	2617.346154
635.090220	2609.615385
637.420653	2604.144755
639.746466	2600.765734
642.069671	2603.399301
644.394293	2607.385315
646.716309	2611.099301
649.037731	2616.764336
651.356551	2617.945455
653.676786	2619.682517
655.996428	2624.360140
658.313469	2628.820979
660.629918	2630.302797
662.943769	2630.651049
665.259036	2625.352448
667.571706	2629.396503
669.885791	2635.928671
672.195276	2638.372028
674.506177	2642.104196
676.814485	2646.883217
679.122205	2651.662937
681.431339	2652.205594
683.735881	2658.087413
686.039837	2657.518881
688.343207	2654.697902
690.647991	2658.227273
692.948189	2656.400699
695.249801	2652.497203
697.550829	2646.821678
699.847274	2637.030070
702.145135	2630.782517
704.442412	2628.179720
706.739106	2631.058741
709.031224	2630.059441
711.326753	2634.053846
713.617708	2635.804895
715.910078	2640.779021
718.199873	2647.112587
720.489087	2650.204895
722.777722	2653.267832
725.063784	2652.411189
727.351261	2649.861538
729.636166	2653.888112
731.920494	2657.714685
734.202253	2667.608392
736.485426	2674.459441
738.768022	2679.993007
741.046062	2684.992308
743.325517	2686.269231
745.604395	2683.338462
747.882699	2686.125874
750.156453	2690.845455
752.431620	2684.076923
754.706214	2676.434266
756.978249	2671.951748
759.251697	2671.462238
761.522587	2674.823776
763.790921	2677.241958
766.060668	2677.567133
768.327861	2679.298601
770.594483	2677.489510
772.860535	2683.848951
775.124036	2684.578322
777.388950	2684.137063
779.653294	2682.003497
781.913109	2678.028671
784.174336	2677.690909
786.434996	2679.351049
788.693110	2683.574825
790.948679	2686.748252
793.207639	2688.180420
795.460100	2694.550350
797.717927	2690.267832
799.971236	2691.452448
802.222005	2678.818182
804.474186	2677.307692
806.723828	2668.612587
808.974883	2660.556643
811.221426	2658.887413
813.469381	2653.675524
815.714802	2652.910490
817.961634	2650.446154
820.207905	2649.023776
822.449671	2641.939860
824.694821	2632.379021
826.933498	2624.034266
829.175557	2613.648252
831.413118	2609.837063
833.652091	2599.787413
835.888537	2597.458741
838.126394	2605.350350
840.361726	2605.252448
842.594535	2613.345455
844.828755	2616.699301
847.060452	2628.424476
849.291595	2631.090909
851.522183	2635.726573
853.752217	2633.476923
855.981697	2635.504196
858.206695	2633.811888
860.435068	2634.625874
862.658961	2630.253846
864.884266	2636.440559
867.105095	2632.304895
869.329296	2631.061538
871.549024	2628.761538
873.770162	2634.173427
875.990750	2636.422378
878.208829	2638.523776
880.428317	2639.539860
882.643339	2636.858042
884.857814	2636.833566
887.071740	2637.482517
889.285120	2633.081119
891.497952	2633.725874
893.710238	2624.737063
895.920021	2622.646154
898.129259	2620.957343
900.337952	2625.895804
902.544146	2640.742657
904.751749	2643.301399
906.956854	2646.470629
909.161416	2643.863636
911.363483	2649.943357
913.566959	2651.456643
915.767941	2659.780420
917.968381	2668.946154
920.170230	2675.843357
922.365688	2687.483916
924.564505	2696.631469
926.758883	2711.413986
928.956619	2717.106993
931.149919	2716.838462
933.344628	2723.622378
935.536851	2725.183217
937.728535	2728.437762
939.919682	2733.483916
942.108346	2742.227273
944.296474	2750.994406
946.482121	2756.914685
948.671120	2768.227273
950.855696	2776.564336
953.039737	2783.772028
955.227128	2782.719580
957.406215	2793.539161
959.588653	2808.459441
961.770557	2817.085315
963.949986	2822.446154
966.126943	2833.963636
968.305308	2833.632168
970.485080	2842.148252
972.658503	2852.146154
974.835272	2866.806993
977.007634	2880.004196
979.181404	2892.658741
981.350770	2905.017483
983.523480	2919.811888
985.693725	2937.809790
987.863441	2946.334266
990.032628	2959.065734
992.197418	2970.286713
994.365549	2979.982517
996.529286	2991.323077
998.694429	3006.370629
1000.857113	3021.535664
1003.019272	3036.234266
1005.178974	3045.088112
1007.338151	3048.436364
1009.498735	3054.403497
1011.656865	3057.509091
1013.814470	3063.113986
1015.971552	3068.129371
1018.128110	3078.295105
1020.280289	3090.876923
1022.433875	3102.138462
1024.586939	3127.042657
1026.737554	3146.106993
1028.889576	3169.290909
1031.037224	3189.333566
1033.188204	3210.706993
1035.334813	3229.416084
1037.480903	3243.623776
1039.626475	3258.075524
1041.773452	3263.962238
1043.914140	3276.724476
1046.058158	3274.997902
1048.199735	3276.028671
1050.340796	3281.627972
1052.483261	3276.595804
1054.619447	3279.873427
1056.758958	3276.605594
1058.894115	3279.509790
1061.032596	3271.606294
1063.166723	3270.602098
1065.300337	3269.665734
1067.435356	3262.916084
1069.566025	3255.389510
1071.698099	3239.909091
1073.827744	3225.088811
1075.956877	3212.757343
1078.085498	3197.455944
1080.213608	3182.190909
1082.339292	3168.883217
1084.464466	3159.162238
1086.591044	3146.239860
1088.713284	3131.416783
1090.836929	3122.857343
1092.956239	3102.015385
1095.080779	3081.985315
1097.199073	3066.845455
1099.318772	3046.456643
1101.436052	3026.185315
1103.552826	3012.472727
1105.669093	2998.376224
1107.782944	2997.254545
1109.898200	2989.553846
1112.009132	2982.534965
1114.123377	2973.415385
1116.233301	2964.353846
1118.344629	2952.783916
1120.455452	2949.381119
1122.561959	2945.347552
1124.671776	2937.980420
1126.777278	2935.630070
1128.884183	2937.907692
1130.984873	2932.027273
1133.090775	2930.011189
1135.192368	2923.135664
1137.295364	2914.772028
1139.397859	2900.044755
1141.494147	2887.034266
1143.595643	2877.471329
1145.692835	2873.246853
1147.789530	2860.167133
1149.885726	2853.648252
1151.981425	2856.965035
1154.076625	2854.399301
1156.169429	2848.055245
1158.263636	2848.904196
1160.351651	2854.890210
1162.444864	2860.549650
1164.531889	2862.561538
1166.622213	2870.146154
1168.708250	2869.258741
1170.797584	2867.792308
1172.880737	2862.734965
1174.965292	2867.872028
1177.051249	2875.619580
1179.132924	2883.140559
1181.216001	2884.782517
1183.296692	2888.561538
1185.376891	2892.653846
1187.456599	2890.004895
1189.535816	2885.058042
1191.612651	2883.751748
1193.687105	2875.115385
1195.764850	2872.413287
1197.838326	2870.634965
1199.913202	2872.107692
1201.983811	2877.181119
1204.055821	2891.858042
1206.125456	2897.947552
1208.196491	2904.676224
1210.267038	2908.493007
1212.333324	2909.278322
1214.401011	2913.287413
1216.466326	2917.020979
1218.533041	2912.951748
1220.595500	2910.484615
1222.661244	2904.812587
1224.722734	2895.362238
1226.785625	2898.596503
1228.846148	2909.341958
1230.906187	2910.746154
1232.965744	2915.243357
1235.022935	2927.353147
1237.079645	2928.090909
1239.133991	2937.498601
1241.191619	2953.355245
1243.246884	2963.208392
1245.297908	2975.797902
1247.350332	2996.891608
1249.402276	3010.995105
1251.451862	3030.216783
1253.500969	3052.225175
1255.549598	3061.969930
1257.597748	3074.913986
1259.645419	3084.065035
1261.688860	3087.617483
1263.735577	3099.763636
1265.779940	3114.941259
1267.823827	3132.845455
1269.865362	3145.627273
1271.904548	3173.923776
1273.947007	3199.575524
1275.985243	3232.190210
1278.024878	3270.831469
1280.064038	3307.023077
1282.098979	3355.364336
1284.135319	3409.339860
1286.169315	3466.730769
1288.204708	3516.645455
1290.235889	3575.506294
1292.268467	3636.520280
1294.300574	3681.813287
1296.330340	3738.022378
1298.361504	3768.743357
1300.388460	3808.129371
1302.416814	3832.055245
1304.440963	3853.795804
1306.468378	3888.121678
1308.491590	3907.956643
1310.516200	3904.761538
1312.538476	3811.280420
1314.562149	3436.863636
1316.583489	2234.530070
1318.604361	2409.010490
1320.624766	6192.535664
1322.640978	13999.108392
1324.658587	24650.495804
1326.673868	34052.749650
1328.692408	40613.969231
1330.706759	43910.890210
1332.718784	43783.534965
1334.734066	40266.607692
1336.745163	33541.255944
1338.757657	24177.918182
1340.765968	13573.207692
1342.777534	5441.560839
1344.783062	1518.624476
1346.791845	1250.881818
1348.796450	2758.437762
1350.804309	3251.617483
1352.811706	3308.664336
1354.813072	3301.786713
1356.815834	3274.513287
1358.818137	3244.943357
1360.819980	3223.511888
1362.821363	3206.171329
1364.820433	3189.727273
1366.819044	3181.572028
1368.817197	3169.309091
1370.814891	3162.969930
1372.808423	3156.589510
1374.803351	3158.091608
1376.797821	3153.390909
1378.791835	3137.704895
1380.783542	3132.472028
1382.774794	3126.719580
1384.763740	3123.074126
1386.754081	3114.658042
1388.743967	3116.036364
1390.731549	3107.283916
1392.718678	3103.089510
1394.703505	3112.061538
1396.689727	3114.686713
1398.673649	3125.079021
1400.657118	3130.330070
1402.640134	3129.576923
1404.620853	3141.682517
1406.602966	3143.500000
1408.582783	3152.864336
1410.562148	3168.783217
1412.537375	3180.707692
1414.515840	3190.155944
1416.492012	3200.318881
1418.467735	3220.505594
1420.443008	3235.246853
1422.415990	3243.656643
1424.388524	3252.410490
1426.360610	3260.467133
1428.332249	3267.638462
1430.299759	3278.910490
1432.272343	3290.223776
1434.237122	3302.800000
1436.206972	3314.128671
1438.172699	3316.854545
1440.139818	3326.262238
1442.104654	3340.067832
1444.065370	3348.183916
1446.031154	3350.207692
1447.990983	3356.206993
1449.952206	3358.856643
1451.914821	3363.286713
1453.873321	3374.412587
1455.831378	3372.316084
1457.788994	3377.775524
1459.746167	3378.830070
1461.701065	3382.393706
1463.657356	3389.027273
1465.611372	3394.153147
1467.564947	3393.158741
1469.516250	3387.031469
1471.468946	3374.988112
1473.419369	3364.216084
1475.369354	3353.944755
1477.318900	3344.803497
1479.266177	3331.900000
1481.211186	3326.215385
1483.157588	3319.938462
1485.103552	3319.950350
1487.049079	3321.282517
1488.992340	3317.072727
1490.935166	3314.774825
1492.875728	3311.120280
1494.817681	3316.504895
1496.757372	3323.576224
1498.696629	3328.661538
1500.635450	3327.789510
1502.572012	3326.749650
1504.509965	3320.581119
1506.445659	3313.720979
1508.380920	3311.662937
1510.313925	3310.713986
1512.246497	3306.517483
1514.178637	3309.044056
1516.110345	3314.606993
1518.039799	3337.940559
1519.970644	3352.965035
1521.901057	3368.939161
1523.827398	3373.867832
1525.755130	3380.239161
1527.680611	3377.732867
1529.605663	3378.988112
1531.530286	3383.379021
1533.454480	3388.398601
1535.376426	3391.693706
1537.299763	3389.400699
1539.220853	3397.405594
1541.139700	3415.803497
1543.059935	3425.841259
1544.977928	3433.967133
1546.895494	3435.332168
1548.810818	3438.997902
1550.727532	3436.851748
1552.640191	3430.660839
1554.556054	3435.912587
1556.469677	3431.015385
1558.381062	3427.323776
1560.293837	3424.984615
1562.202562	3430.266434
1564.112676	3434.288112
1566.022367	3440.623776
1567.931635	3442.045455
1569.838669	3438.028671
1571.743470	3442.665035
1573.649660	3443.390210
1575.553618	3443.348951
1577.457155	3452.513986
1579.360272	3449.237762
1581.261159	3458.090909
1583.163435	3461.654545
1585.063483	3464.216783
1586.964918	3464.986014
1588.862320	3467.862937
1590.759303	3459.537762
1592.655868	3459.760140
1594.553821	3479.016084
1596.445939	3482.767832
1598.341250	3490.431469
1600.236144	3500.187413
1602.128816	3509.138462
1604.021071	3524.869231
1605.911107	3529.142657
1607.800727	3538.741259
1609.689932	3544.946154
1611.578722	3550.372727
1613.465294	3553.360839
1615.353254	3569.227273
1617.237197	3577.080420
1619.122527	3577.152448
1621.007444	3584.200699
1622.890147	3594.546154
1624.774237	3593.986014
1626.654315	3604.703497
1628.535781	3604.656643
1630.415036	3612.297902
1632.295677	3614.676923
1634.170514	3618.575524
1636.050332	3622.953846
1637.926146	3626.946154
1639.801549	3625.425874
1641.678338	3628.213287
1643.549331	3623.256643
1645.423505	3628.506294
1647.293680	3625.551748
1649.167037	3624.593007
1651.038190	3615.753147
1652.907141	3615.148951
1654.777477	3613.161538
1656.643821	3605.398601
1658.511550	3615.638462
1660.377080	3608.769231
1662.243996	3607.920979
1664.106923	3600.644755
1665.971235	3601.129371
1667.833351	3606.456643
1669.695062	3608.824476
1671.558159	3610.732867
1673.419060	3612.793706
1675.277769	3616.883916
1677.136074	3617.520979
1678.995764	3620.617483
1680.849686	3636.986713
1682.706782	3639.469231
1684.563475	3640.632867
1686.416191	3639.302797
1688.272079	3644.786713
1690.123993	3652.350350
1691.975506	3656.593007
1693.826618	3659.707692
1695.677330	3646.839161
1697.527641	3624.974126
1699.375767	3618.687413
1701.225278	3607.757343
1703.069040	3593.970629
1704.917751	3579.059441
1706.760716	3557.132867
1708.606848	3546.257343
1710.449017	3542.875524
1712.294352	3539.760140
1714.133946	3526.693007
1715.974924	3516.425874
1717.817285	3506.381818
1719.655690	3494.184615
1721.495478	3498.255944
1723.333091	3482.815385
1725.170308	3472.277622
1727.005352	3466.914685
1728.841779	3460.189510
1730.676034	3456.516084
1732.509894	3451.668531
1734.343360	3438.372727
1736.172881	3429.552448
1738.005560	3421.701399
1739.834295	3407.650350
1741.666187	3391.839860
1743.494137	3379.836364
1745.321696	3356.089510
1747.148862	3340.710490
1748.975637	3326.048951
1750.802020	3308.939860
1752.624467	3289.944755
1754.450069	3275.046154
1756.271736	3259.527972
1758.094785	3257.471329
1759.915672	3249.248252
1761.736171	3234.144056
1763.558051	3231.019580
1765.374231	3227.202797
1767.193563	3220.506294
1769.008968	3221.991608
1770.827523	3214.469231
1772.642153	3209.922378
1774.456396	3207.096503
1776.270253	3205.581119
1778.083723	3207.827273
1779.895040	3212.153846
1781.707737	3208.308392
1783.520049	3200.850350
1785.328443	3200.776224
1787.138217	3193.923077
1788.944077	3189.248951
1790.753082	3183.988112
1792.558174	3164.755944
1794.364647	3158.841259
1796.170736	3151.214685
1797.972914	3139.546853
1799.778237	3139.614685
1801.579651	3133.416783
1803.382445	3123.769231
1805.181333	3115.352448
1806.981602	3111.239161
1808.781489	3103.097203
1810.579234	3102.743357
1812.376599	3103.662937
1814.173584	3098.195804
1815.970188	3103.940559
1817.764653	3101.111888
1819.560497	3097.182517
1821.350686	3099.781818
1823.145772	3091.820979
1824.935206	3088.497902
1826.727776	3084.625175
1828.518211	3078.613986
1830.306512	3076.520280
1832.097948	3083.476224
1833.883738	3083.634965
1835.670908	3083.527273
1837.455946	3086.534266
1839.244118	3085.723077
1841.028404	3088.118881
1842.810560	3089.812587
1844.594096	3089.152448
1846.375503	3084.725874
1848.158289	3079.393007
1849.937194	3075.700000
1851.717479	3074.341958
1853.495637	3070.403497
1855.275174	3061.939161
1857.052586	3064.271329
1858.827874	3059.093706
1860.604540	3061.635664
1862.379084	3069.602098
1864.155006	3071.330769
1865.925307	3078.750350
1867.698736	3077.612587
1869.470045	3082.004895
1871.240983	3083.301399
1873.013299	3088.946154
1874.780001	3092.780420
1876.549829	3101.497902
1878.315793	3108.882517
1880.084880	3106.400699
1881.850106	3120.704895
1883.614964	3122.810490
1885.381199	3123.137063
1887.143575	3127.049650
1888.905584	3128.393706
1890.667225	3124.806993
1892.428500	3121.965734
1894.189407	3129.386713
1895.949948	3134.220280
1897.708379	3141.951049
1899.466444	3147.530070
1901.222402	3151.262937
1902.979736	3168.655245
1904.736705	3166.981119
1906.491567	3174.073427
1908.244325	3178.049650
1909.996718	3187.344056
1911.750488	3190.118881
1913.502154	3204.127972
1915.251718	3218.025175
1917.002657	3231.279021
1918.753234	3241.018182
1920.499971	3254.885315
1922.248085	3266.446154
1923.994099	3277.160140
1925.741488	3283.542657
1927.486780	3299.895105
1929.229974	3309.793706
1930.974543	3325.531469
1932.717017	3340.164336
1934.459130	3361.325175
1936.200883	3376.606643
1937.942276	3393.045455
1939.681576	3402.489161
1941.420517	3415.976923
1943.159099	3421.588462
1944.895590	3425.743357
1946.631723	3437.253497
1948.369230	3447.186713
1950.102915	3465.774476
1951.837975	3481.292308
1953.570946	3498.766783
1955.303561	3520.175524
1957.035820	3534.696154
1958.767722	3541.206993
1960.497538	3546.834965
1962.225269	3556.993706
1963.954375	3565.978322
1965.683126	3573.704895
1967.409793	3586.144755
1969.136106	3594.416783
1970.863792	3611.107692
1972.585942	3629.134266
1974.311193	3645.322378
1976.032637	3665.278322
1977.757182	3677.397203
1979.479646	3682.656643
1981.198308	3699.172028
1982.920068	3712.706993
1984.638026	3716.144755
1986.357357	3732.642657
1988.072889	3742.660140
1989.793241	3742.851049
1991.509795	3747.576923
1993.222552	3759.648252
1994.938405	3767.009091
1996.652186	3788.083217
1998.365617	3799.657343
2000.076977	3813.448252
2001.789709	3830.439161
2003.498651	3844.279720
2005.210685	3855.557343
2006.917211	3879.354545
2008.626828	3885.768531
2010.334379	3895.490210
2012.041581	3908.451748
2013.746718	3909.556643
2015.451509	3922.618881
2017.157671	3931.591608
2018.860051	3937.137762
2020.563802	3944.442657
2022.265491	3939.709790
2023.966835	3937.638462
2025.667833	3937.553846
2027.366770	3945.461538
2029.067079	3950.374126
2030.763613	3948.691608
2032.461518	3952.693007
2034.157364	3950.089510
2035.856296	3961.153846
2037.549742	3965.436364
2039.244559	3969.212587
2040.939034	3974.600000
2042.629740	3971.346154
2044.323530	3972.175524
2046.013553	3972.910490
2047.704947	3978.386014
2049.394288	3973.118881
2051.084999	3958.760140
2052.771947	3963.989510
2054.458556	3956.709091
2056.146534	3954.033566
2057.830753	3953.577622
2059.516343	3953.002797
2061.201593	3956.314685
2062.884794	3952.629371
2064.569366	3950.016084
2066.248475	3951.189510
2067.932369	3959.423077
2069.610802	3955.692308
2071.292313	3952.038462
2072.970072	3958.932867
2074.647495	3957.119580
2076.326287	3959.953147
2078.003037	3966.314685
2079.677745	3963.979021
2081.353822	3958.305594
2083.027859	3953.174126
2084.701560	3952.340559
2086.374926	3949.135664
2088.046253	3949.523776
2089.717246	3947.465734
2091.387905	3949.174825
2093.058230	3957.041958
2094.728221	3960.774126
2096.396176	3971.659441
2098.063798	3984.682517
2099.729385	4003.522378
2101.396341	4015.235664
2103.061264	4028.176224
2104.725855	4035.672028
2106.388414	4040.190210
2108.052341	4051.200000
2109.714237	4059.116084
2111.375803	4065.462238
2113.037037	4067.709790
2114.696243	4059.787413
2116.355118	4067.048951
2118.013664	4068.292308
2119.671880	4079.060140
2121.326372	4080.564336
2122.983929	4085.938462
2124.641157	4081.513287
2126.294663	4086.230769
2127.949537	4099.811189
2129.600692	4105.854545
2131.254910	4111.410490
2132.905411	4115.401399
2134.557278	4112.539860
2136.203737	4120.406294
2137.854951	4131.825175
2139.502451	4140.459441
2141.151318	4147.402797
2142.798166	4152.605594
2144.444689	4157.349650
2146.090886	4166.146853
2147.733375	4182.807692
2149.378922	4185.398601
2151.020762	4189.432168
2152.665659	4201.455944
2154.306850	4198.502797
2155.947719	4205.985315
2157.588263	4215.225874
2159.226795	4206.411888
2160.866693	4196.475524
2162.502891	4193.404196
2164.140455	4189.201399
2165.777697	4188.002098
2167.412929	4188.144755
2169.047840	4184.028671
2170.682428	4187.320280
2172.316696	4202.740559
2173.947270	4210.787413
2175.580896	4224.951049
2177.210830	4233.916783
2178.842129	4234.388112
2180.471423	4234.171329
2182.100398	4231.438462
2183.729053	4231.765734
2185.357389	4229.525175
2186.983723	4221.507692
2188.609738	4212.618182
2190.233751	4212.358741
2191.859130	4217.437762
2193.482508	4222.925175
2195.107251	4218.354545
2196.728313	4220.417483
2198.349058	4211.362238
2199.971168	4201.564336
2201.591280	4183.220979
2203.209395	4178.189510
2204.827195	4161.193007
2206.444680	4151.604895
2208.061849	4150.849650
2209.678703	4151.653846
2211.295241	4158.230070
2212.909787	4167.248951
2214.522340	4173.153846
2216.136257	4182.388112
2217.748183	4186.743357
2219.361472	4194.082517
2220.972771	4193.519580
2222.582080	4195.802098
2224.192753	4194.215385
2225.801437	4203.165035
2227.409808	4212.139161
2229.016193	4219.792308
2230.623941	4231.108392
2232.229702	4246.848252
2233.835152	4255.567832
2235.438617	4266.721678
2237.043445	4278.183217
2238.646289	4280.944755
2240.247150	4282.593007
2241.849374	4285.863636
2243.449616	4289.571329
2245.051220	4292.490210
2246.649171	4299.139161
2248.248485	4316.435664
2249.845819	4328.602797
2251.442845	4349.980420
2253.041233	4355.528671
2254.635972	4368.513287
2256.228734	4376.913986
2257.822859	4381.720280
2259.418345	4385.778322
2261.010186	4395.769930
2262.601721	4396.178322
2264.194618	4399.115385
2265.782205	4408.751049
2267.374488	4416.184615
2268.961465	4416.655944
2270.551469	4412.748951
2272.136169	4402.097902
2273.725563	4400.995105
2275.309655	4386.231469
2276.895107	4369.127972
2278.478591	4360.526573
2280.065100	4359.865035
2281.647976	4348.927972
2283.230549	4347.324825
2284.812818	4350.187413
2286.391457	4352.557692
2287.973121	4353.774825
2289.551156	4352.888462
2291.132214	4356.706294
2292.709645	4366.495455
2294.285113	4359.145455
2295.863603	4356.152797
2297.438469	4357.850350
2299.013034	4347.238112
2300.587299	4338.765035
2302.161263	4333.121329
2303.734926	4327.636364
2305.308290	4330.459441
2306.878035	4331.644056
2308.447481	4334.813287
2310.019945	4338.534965
2311.587135	4352.041259
2313.157343	4354.809091
2314.723936	4356.841958
2316.291889	4359.202098
2317.857886	4360.702797
2319.423586	4369.541259
2320.988988	4374.918881
2322.552437	4378.428671
2324.117245	4389.827972
2325.678445	4393.573427
2327.242659	4401.756643
2328.801611	4398.900000
2330.363578	4399.482517
2331.923593	4395.378322
2333.483314	4395.019580
2335.041085	4396.238462
2336.598561	4396.122378
2338.155743	4390.493007
2339.710977	4388.884615
2341.265918	4385.809091
2342.820564	4392.024476
2344.374917	4389.558741
2345.928977	4402.446154
2347.482742	4395.684615
2349.034564	4396.094406
2350.584442	4396.997902
2352.137328	4392.274126
2353.684972	4387.051049
2355.235623	4374.172727
2356.782683	4363.039860
2358.331101	4353.283916
2359.879228	4345.933566
2361.423766	4344.192308
2362.969662	4346.672727
2364.513620	4355.306294
2366.058935	4353.299301
2367.600665	4350.708392
2369.143752	4344.050350
2370.684903	4335.762238
2372.225765	4332.365035
2373.766338	4329.836364
2375.306622	4331.383916
2376.846617	4332.425175
2378.383034	4338.200699
2379.922452	4351.293007
2381.458293	4370.877622
2382.995490	4380.683916
2384.529112	4389.979021
2386.065734	4388.323776
2387.600426	4391.197902
2389.133188	4394.995804
2390.665663	4403.562238
2392.196210	4410.837063
2393.729755	4413.695804
2395.258089	4420.206993
2396.787780	4422.600699
2398.317184	4425.803497
2399.846304	4429.248951
2401.375139	4426.880420
2402.898768	4430.311189
2404.427033	4434.446154
2405.950096	4436.932867
2407.477792	4441.893706
2408.998649	4454.173427
2410.524139	4461.900699
2412.046068	4472.918881
2413.569353	4487.531469
2415.090716	4498.355245
2416.610160	4506.258042
2418.130959	4513.286713
2419.649840	4526.039161
2421.168438	4537.215385
2422.685119	4549.095105
2424.203154	4548.374825
2425.720908	4555.380420
2427.235111	4556.215385
2428.749033	4562.837762
2430.262675	4570.344755
2431.777672	4576.436364
2433.289120	4587.474825
2434.801923	4595.486713
2436.312812	4609.125175
2437.823423	4627.124476
2439.332122	4638.918881
2440.843807	4654.224476
2442.351949	4661.734965
2443.859813	4674.995804
2445.367399	4686.143357
2446.871444	4699.644755
2448.378474	4709.327972
2449.883597	4727.879021
2451.388441	4740.929371
2452.891379	4752.960839
2454.394041	4762.895105
2455.896426	4762.011189
2457.396906	4766.111189
2458.898739	4765.955245
2460.398667	4771.385315
2461.898320	4791.247552
2463.397698	4809.752448
2464.895173	4824.156643
2466.390746	4849.818182
2467.889299	4872.210490
2469.384324	4886.600000
2470.880701	4905.744755
2472.373552	4912.388112
2473.867756	4921.025175
2475.361686	4929.372028
2476.852092	4934.096503
2478.345476	4945.300000
2479.836962	4961.188112
2481.326551	4967.268531
2482.815868	4979.962238
2484.303289	4994.833566
2485.793686	4993.540559
2487.280565	4993.616783
2488.768795	4996.554545
2490.253508	4987.121678
2491.737952	4986.095105
2493.223746	4976.629371
2494.707649	4977.046853
2496.192902	4969.656643
2497.673022	4967.575524
2499.156115	4961.662238
2500.637317	4970.428671
2502.118250	4968.583916
2503.597294	4958.237063
2505.076069	4943.374126
2506.554576	4931.974825
2508.032815	4916.788811
2509.510785	4905.267832
2510.985250	4875.994406
2512.462685	4859.213287
2513.936616	4838.565734
2515.411897	4826.547552
2516.886911	4804.862937
2518.358425	4792.548951
2519.831288	4766.074825
2521.302269	4750.704196
2522.774600	4743.271329
2524.241817	4727.749650
2525.712001	4716.959441
2527.180304	4695.365734
2528.648342	4667.497902
2530.116115	4657.455245
2531.583623	4642.597902
2533.050866	4627.869930
2534.514617	4610.025874
2535.979718	4599.520280
2537.442942	4587.279021
2538.907516	4594.957343
2540.368600	4599.827972
2541.831034	4595.888112
2543.293205	4598.080420
2544.751890	4594.588112
2546.215147	4590.860839
2547.673307	4584.189510
2549.132816	4582.454545
2550.587231	4584.993007
2552.046217	4581.098601
2553.503331	4582.179720
2554.958574	4571.269930
2556.413555	4567.311189
2557.866668	4569.744056
2559.321129	4569.618881
2560.773720	4566.202098
2562.226052	4571.357343
2563.676517	4571.469231
2565.129937	4570.938462
2566.578275	4581.231469
2568.029569	4583.491608
2569.478996	4584.209790
2570.924951	4589.502098
2572.373861	4582.150350
2573.819301	4591.186713
2575.266088	4598.915385
2576.711013	4600.014685
2578.155679	4599.841958
2579.601693	4607.546853
2581.044241	4605.099301
2582.488136	4610.318182
2583.928566	4613.467832
2585.370343	4612.720979
2586.810261	4620.227273
2588.251526	4625.984615
2589.689329	4633.836364
2591.130082	4648.368531
2592.565773	4662.609091
2594.004413	4667.080420
2595.441195	4668.746154
2596.876122	4675.305594
2598.313996	4679.004895
2599.746813	4692.837762
2601.180977	4682.320979
2602.613287	4688.379720
2604.046943	4686.262238
2605.478746	4683.673427
2606.910295	4688.246154
2608.341592	4689.429371
2609.771036	4697.413986
2611.200228	4682.207692
2612.627570	4679.556643
2614.056257	4675.286014
2615.484693	4679.377622
2616.909681	4688.546154
2618.336016	4690.065035
2619.760502	4710.262238
2621.186334	4712.088112
2622.608722	4722.755245
2624.032456	4734.074126
2625.454343	4743.334965
2626.875981	4754.599301
2628.295773	4753.313287
2629.716911	4757.993706
2631.137799	4756.044056
2632.555249	4774.922378
2633.975638	4778.521678
2635.392590	4784.902098
2636.809293	4790.081119
2638.225748	4788.600000
2639.641955	4795.555944
2641.057914	4796.934266
2642.472032	4796.497203
2643.885902	4801.239860
2645.297934	4805.418881
2646.711309	4809.765035
2648.121255	4818.293007
2649.534137	4835.305594
2650.943590	4844.295804
2652.352797	4854.006993
2653.760168	4855.024476
2655.170473	4866.588811
2656.578943	4881.824476
2657.985577	4891.488112
2659.391966	4891.794406
2660.796521	4898.729371
2662.202420	4909.780420
2663.606486	4923.530070
2665.010307	4932.513986
2666.413884	4938.951049
2667.815630	4944.886014
2669.218719	4942.202098
2670.618390	4943.520979
2672.019405	4954.646853
2673.417004	4962.698601
2674.817533	4968.975524
2676.214646	4967.399301
2677.613103	4971.724476
2679.009733	4980.791608
2680.406120	4982.848252
2681.802265	4983.816084
2683.196585	4978.341259
2684.592246	4973.948252
2685.984499	4975.825175
2687.378094	4977.666434
2688.769865	4977.274126
2690.162979	4975.776224
2691.554269	4978.817483
2692.943736	4984.753846
2694.332963	4994.536364
2695.721951	5000.355245
2697.112280	4998.323776
2698.497626	5004.948951
2699.885895	5007.911189
2701.272344	5013.308392
2702.658554	5020.483217
2704.044525	5018.339860
2705.427098	5018.614685
2706.811013	5014.636364
2708.194690	5022.048951
2709.578128	5039.772727
2710.958172	5053.459441
2712.339556	5055.588112
2713.719126	5063.241259
2715.100036	5074.624476
2716.479132	5093.567832
2717.856414	5103.322378
2719.235037	5114.874825
2720.611847	5117.124476
2721.988420	5127.284615
2723.364758	5135.448951
2724.739285	5149.058741
2726.115152	5169.886014
2727.487632	5175.337063
2728.863028	5190.365035
2730.233464	5210.984615
2731.605241	5227.367832
2732.976783	5252.389510
2734.346517	5260.996503
2735.717592	5278.293007
2737.086858	5284.706993
2738.455891	5289.400699
2739.823118	5299.206993
2741.190112	5301.386014
2742.556872	5306.856643
2743.923401	5312.979720
2745.288124	5331.198601
2746.652615	5345.503497
2748.016875	5363.400000
2749.380902	5380.320979
2750.744698	5386.397203
2752.105120	5400.017483
2753.468452	5398.225874
2754.826842	5404.849650
2756.188142	5412.420979
2757.546072	5409.239860
2758.906910	5405.504895
2760.265949	5399.434965
2761.621619	5391.755245
2762.980197	5394.485315
2764.335408	5402.613287
2765.690390	5411.766434
2767.043576	5422.321678
2768.399668	5437.174126
2769.752395	5453.681818
2771.104895	5470.847552
2772.457166	5478.888112
2773.810776	5486.097902
2775.161024	5487.840559
2776.509478	5482.039161
2777.860838	5484.211888
2779.208838	5499.525874
2780.558176	5512.896503
2781.905722	5522.441958
2783.253042	5530.917483
2784.600135	5530.320280
2785.945437	5532.548951
2787.290512	5527.323776
2788.635362	5537.223077
2789.979986	5550.967133
2791.321258	5564.400699
2792.663868	5568.845455
2794.006252	5588.568531
2795.348411	5607.248252
2796.687221	5623.751049
2798.028931	5631.148951
2799.367293	5635.127972
2800.706991	5628.807692
2802.044905	5636.737762
2803.381034	5645.144056
2804.716939	5668.041958
2806.054182	5693.611888
2807.389641	5714.011888
2808.724877	5728.610490
2810.058330	5747.359441
2811.393120	5767.713287
2812.724570	5771.984615
2814.058915	5770.266434
2815.388362	5764.732168
2816.719146	5760.261538
2818.049708	5759.995105
2819.378491	5751.297203
2820.708610	5758.390210
2822.036951	5768.410490
2823.365071	5769.353846
2824.691413	5775.155944
2826.019092	5780.410490
2827.343437	5790.621678
2828.669119	5787.797203
2829.993025	5791.604196
2831.316712	5794.820979
2832.641734	5799.997203
2833.963426	5801.214685
2835.284900	5801.073427
2836.606155	5816.368531
2837.927191	5816.060140
2839.246454	5808.105594
2840.567053	5808.244755
2841.885881	5802.879021
2843.204490	5794.285315
2844.521328	5796.459441
2845.837949	5793.411888
2847.154353	5803.613986
2848.468987	5816.055245
2849.784957	5836.039161
2851.097606	5849.067832
2852.411590	5869.438462
2853.725358	5875.153846
2855.038909	5867.737063
2856.350694	5880.878322
2857.660712	5875.111189
2858.972065	5868.247552
2860.280103	5874.011888
2861.589475	5877.444056
2862.898633	5896.789510
2864.207575	5905.544056
2865.514753	5916.178322
2866.820169	5921.335664
2868.126919	5933.537063
2869.431906	5928.953846
2870.736680	5924.513986
2872.039692	5931.972028
2873.345585	5929.216084
2874.646624	5941.362937
2875.948997	5948.243357
2877.249610	5953.796503
2878.551557	5957.295804
2879.853290	5955.204196
2881.151720	5964.633566
2882.451483	5958.670629
2883.749489	5946.919580
2885.047283	5938.486713
2886.343321	5935.146154
2887.640692	5925.520979
2888.936307	5927.367133
2890.231711	5932.887413
2891.526904	5926.346154
2892.818800	5928.339860
2894.113572	5934.728671
2895.405047	5939.699301
2896.697855	5943.436364
2897.990453	5925.318881
2899.279757	5920.105594
2900.570393	5930.673427
2901.859278	5931.522378
2903.149495	5930.301399
2904.436421	5933.518881
2905.724679	5934.437063
2907.011188	5938.921678
2908.297489	5947.155944
2909.583581	5946.807692
2910.867925	5941.432867
2912.155140	5932.810490
2913.437529	5918.672028
2914.721250	5910.461538
2916.003225	5914.825874
2917.284992	5920.446853
2918.565015	5928.315385
2919.847907	5932.085315
2921.129054	5930.444755
2922.406919	5942.200699
2923.687653	5931.160839
2924.965106	5922.707692
2926.242353	5918.274825
2927.517858	5903.585315
2928.796231	5889.633566
2930.069790	5877.939161
2931.346216	5878.515385
2932.620901	5884.992308
2933.893845	5887.824476
2935.168121	5893.947552
2936.440657	5895.815385
2937.712988	5894.689510
2938.982047	5888.879720
2940.253971	5896.665734
2941.524157	5887.470629
2942.794139	5883.428671
2944.063918	5878.929371
2945.331961	5875.874126
2946.598267	5880.921678
2947.864372	5876.375524
2949.131806	5881.939860
2950.397506	5885.844755
2951.663003	5895.141958
2952.928298	5880.661538
2954.190328	5889.442657
2955.453688	5885.188112
2956.716847	5877.719580
2957.978274	5882.500699
2959.241030	5888.213287
2960.502054	5889.551748
2961.761348	5897.800699
2963.020442	5890.818182
2964.279335	5896.657343
2965.538028	5891.369930
2966.796521	5908.048951
2968.053285	5889.461538
2969.309849	5899.661538
2970.564686	5899.214685
2971.820851	5903.685315
2973.073762	5907.978322
2974.328002	5915.097902
2975.582043	5916.036364
2976.834358	5921.944755
2978.086474	5920.993007
2979.336866	5921.393706
2980.590113	5921.858741
2981.838583	5927.260140
2983.089908	5926.962238
2984.337983	5930.739860
2985.585862	5938.458042
2986.833543	5938.311189
2988.081027	5942.746853
2989.326790	5942.409790
2990.572357	5951.851049
2991.819251	5951.418182
2993.062901	5953.296503
2994.307879	5960.228671
2995.549613	5961.967832
2996.794199	5966.560839
2998.037066	5977.915385
2999.276692	5980.347552
3000.519168	6000.407692
3001.758404	5996.661538
3002.998968	6004.406993
3004.237816	6007.734965
3005.476468	6013.979021
3006.713406	6012.909091
3007.951670	6015.548951
3009.188219	6021.164336
3010.424575	6016.976923
3011.660737	6020.616084
3012.895185	6014.642657
3014.129441	6014.093706
3015.363503	6019.688112
3016.595853	6019.236364
3017.826491	6020.769231
3019.059975	6028.014685
3020.291747	6035.523077
3021.521809	6048.753147
3022.751679	6067.697902
3023.979839	6071.195105
3025.209325	6071.195804
3026.437102	6071.816783
3027.664688	6067.901399
3028.893601	6068.061538
3030.117771	6070.846853
3031.344784	6067.747552
3032.568573	6058.931469
3033.793689	6068.695804
3035.017098	6064.948252
3036.240317	6071.373427
3037.461831	6077.953147
3038.686186	6070.527972
3039.905806	6077.258741
3041.126752	6076.881119
3042.347509	6080.028671
3043.566562	6085.718881
3044.786940	6091.332867
3046.004102	6088.404196
3047.222590	6090.374825
3048.439375	6086.795804
3049.655973	6086.923776
3050.872382	6094.860140
3052.085579	6094.224476
3053.301613	6100.284615
3054.514435	6104.244755
3055.730094	6101.754545
3056.941030	6107.164336
3058.153291	6111.165734
3059.365366	6114.609790
3060.577253	6107.017483
3061.787444	6097.014685
3062.997448	6087.188462
3064.207266	6093.623776
3065.415388	6096.177972
3066.623325	6094.899301
3067.829566	6110.045105
3069.037132	6109.043357
3070.243003	6127.128322
3071.448690	6143.419580
3072.654191	6145.236713
3073.857999	6145.882517
3075.063131	6144.698951
3076.266570	6141.948951
3077.468318	6139.346503
3078.669881	6131.123776
3079.871261	6136.118182
3081.072457	6136.770629
3082.271963	6151.227273
3083.471286	6155.542657
3084.671932	6161.558042
3085.870888	6163.368531
3087.066650	6152.455245
3088.265241	6146.447552
3089.460638	6149.309091
3090.657358	6152.360140
3091.850886	6152.702098
3093.047242	6151.757343
3094.241912	6160.572727
3095.433391	6168.323077
3096.629201	6169.068531
3097.820318	6162.560839
3099.012757	6149.501399
3100.202009	6163.943357
3101.394086	6159.257343
3102.584480	6157.150350
3103.771688	6162.868531
3104.960219	6165.548252
3106.150071	6178.713986
3107.336740	6181.803497
3108.523228	6184.600699
3109.709538	6185.484615
3110.897169	6176.795105
3112.081618	6171.104895
3113.264388	6175.187413
3114.449980	6193.172028
3115.633893	6200.688112
3116.816127	6205.083916
3117.998182	6207.277622
3119.180059	6206.065035
3120.361758	6208.715385
3121.541780	6203.383217
3122.720125	6200.594406
3123.901290	6188.030070
3125.079280	6188.488112
3126.257094	6185.002098
3127.434730	6182.202098
3128.610691	6189.229371
3129.786475	6190.330070
3130.963581	6194.092308
3132.139012	6193.452448
3133.312770	6204.417483
3134.484855	6207.566434
3135.658262	6210.647552
3136.831492	6218.832867
3138.003051	6222.769930
3139.175930	6231.181818
3140.345642	6243.176923
3141.516675	6238.697203
3142.686038	6245.268531
3143.853730	6235.398601
3145.024238	6235.546154
3146.190088	6242.363636
3147.360246	6260.186713
3148.525748	6260.433566
3149.691075	6260.188811
3150.856229	6270.792308
3152.021210	6269.853846
3153.187510	6255.581119
3154.349158	6240.727273
3155.512125	6217.881119
3156.674920	6200.779720
3157.837542	6169.462937
3158.998499	6154.718182
3160.159283	6147.683217
3161.319895	6144.698601
3162.478843	6141.488811
3163.637620	6145.593706
3164.796225	6152.199301
3165.954657	6148.197203
3167.112919	6150.983916
3168.269518	6153.689510
3169.424456	6165.247552
3170.580713	6169.820979
3171.735309	6175.912587
3172.889735	6185.100000
3174.042501	6179.586014
3175.195096	6190.833566
3176.347522	6184.209091
3177.499778	6183.593706
3178.651863	6172.465734
3179.800803	6170.890210
3180.952549	6186.081119
3182.102637	6197.000000
3183.251069	6215.113986
3184.399331	6230.915385
3185.547425	6257.323776
3186.695350	6276.631469
3187.841619	6289.623077
3188.987720	6309.869930
3190.132167	6301.567133
3191.276446	6309.279021
3192.420557	6302.568531
3193.565985	6297.799301
3194.708275	6299.568531
3195.850398	6298.382517
3196.992353	6295.324476
3198.134141	6290.792308
3199.275762	6291.407692
3200.414248	6298.922378
3201.554051	6314.449650
3202.695172	6320.670629
3203.833158	6320.979720
3204.969495	6326.269930
3206.105666	6326.451748
3207.243154	6321.528671
3208.378994	6334.251049
3209.516151	6331.769930
3210.648695	6331.229371
3211.785521	6332.559441
3212.917735	6325.581119
3214.051266	6319.372727
3215.184633	6309.207692
3216.314872	6288.137063
3217.447909	6266.720280
3218.577820	6246.018182
3219.709047	6225.339161
3220.837150	6221.798601
3221.968049	6214.481119
3223.097304	6204.566434
3224.224916	6215.140559
3225.349405	6221.515385
3226.478170	6230.010490
3227.603813	6231.941259
3228.729294	6249.451049
3229.853133	6262.955944
3230.979766	6265.310490
3232.101802	6275.002098
3233.225154	6279.837762
3234.348344	6276.148951
3235.471372	6262.316783
3236.592760	6251.491608
3237.713986	6250.143357
3238.833575	6249.389510
3239.953002	6264.149650
3241.070791	6267.571329
3242.191372	6283.141259
3243.308840	6302.030070
3244.426147	6326.005594
3245.543294	6348.027972
3246.658805	6365.446853
3247.775630	6379.560140
3248.889346	6396.622378
3250.005851	6404.441259
3251.120722	6415.309091
3252.232484	6425.453846
3253.344086	6428.393706
3254.457004	6422.219580
3255.569762	6426.035664
3256.679414	6431.061538
3257.790381	6436.787413
3258.901189	6433.046853
3260.010365	6445.760140
3261.117911	6457.813287
3262.226770	6471.495804
3263.335472	6472.327273
3264.441071	6481.188811
3265.547984	6486.608392
3266.653268	6493.573427
3267.759866	6507.842657
3268.863364	6514.937063
3269.968177	6520.960839
3271.072832	6527.093007
3272.174388	6538.438462
3273.275788	6556.003497
3274.378502	6558.269930
3275.481060	6567.355245
3276.580521	6557.856643
3277.682766	6554.814685
3278.781915	6562.255944
3279.879440	6568.139161
3280.976809	6575.600699
3282.076960	6574.390909
3283.174019	6566.335664
3284.270922	6568.812587
3285.367670	6563.477622
3286.459860	6558.164336
3287.556298	6543.334965
3288.651114	6529.889510
3289.745776	6520.165734
3290.838816	6514.983916
3291.931701	6515.060839
3293.022967	6514.891608
3294.115544	6520.632168
3295.206502	6515.340559
3296.295840	6502.221678
3297.385025	6508.448951
3298.475523	6497.098601
3299.562936	6496.834965
3300.650196	6494.006993
3301.738769	6501.356643
3302.827190	6518.490909
3303.911063	6527.983916
3304.999178	6541.191608
3306.084211	6546.197203
3307.167629	6558.472028
3308.252359	6558.864336
3309.335473	6558.286713
3310.419900	6559.600000
3311.501248	6569.288811
3312.583908	6569.730070
3313.664954	6566.770629
3314.745849	6570.620280
3315.825130	6575.348951
3316.904261	6581.948951
3317.984704	6590.909790
3319.062072	6584.267832
3320.140752	6599.601399
3321.217820	6597.616084
3322.294739	6600.246154
3323.370046	6611.767832
3324.445204	6623.011189
3325.521673	6615.896503
3326.595072	6615.274126
3327.668322	6623.215385
3328.742882	6630.019580
3329.815834	6632.224476
3330.887177	6620.823776
3331.959831	6619.348951
3333.029419	6625.247552
3334.100317	6616.605594
3335.169608	6617.939161
3336.240210	6615.286014
3337.309205	6598.925874
3338.376594	6599.045455
3339.442378	6601.115385
3340.512388	6597.686713
3341.579335	6593.200000
3342.643220	6587.760140
3343.709873	6579.862238
3344.774921	6578.255245
3345.838366	6572.715385
3346.901665	6560.686014
3347.964817	6557.403497
3349.027823	6539.775524
3350.090683	6528.486713
3351.151941	6532.116783
3352.210142	6529.932867
3353.272563	6521.344056
3354.331929	6528.167832
3355.391149	6536.500699
3356.451679	6550.129371
3357.507699	6567.539161
3358.566483	6586.339860
3359.620760	6599.303497
3360.677801	6611.766434
3361.733243	6615.181119
3362.789995	6624.890909
3363.845148	6627.831469
3364.898704	6633.862238
3365.950664	6636.901399
3367.005385	6640.473427
3368.057057	6646.429371
3369.108586	6655.310490
3370.161423	6663.918182
3371.211213	6670.033566
3372.262312	6664.596503
3373.310365	6669.623077
3374.361177	6663.915385
3375.408945	6657.382517
3376.456570	6649.423077
3377.504052	6656.786713
3378.549942	6661.684615
3379.597140	6651.231469
3380.641296	6649.647552
3381.688210	6648.155245
3382.733532	6647.518881
3383.775813	6659.870629
3384.817954	6666.237762
3385.861402	6676.001399
3386.904709	6669.271329
3387.946427	6670.962238
3388.988003	6675.254545
3390.029438	6690.861538
3391.069285	6694.260140
3392.107543	6696.196503
3393.147109	6709.834266
3394.186535	6715.990210
3395.224373	6718.881119
3396.260624	6723.843357
3397.296736	6721.139860
3398.334155	6722.097902
3399.368541	6717.423077
3400.404234	6710.654545
3401.439788	6705.155944
3402.472311	6713.198601
3403.507587	6710.394406
3404.539832	6722.941958
3405.571939	6738.352448
3406.602462	6739.118182
3407.634292	6738.831469
3408.665984	6735.674126
3409.694648	6751.862937
3410.723175	6751.409790
3411.753008	6733.976923
3412.782704	6719.335664
3413.809374	6713.049650
3414.837351	6716.372727
3415.862303	6715.798601
3416.890005	6728.071329
3417.914684	6730.983217
3418.940669	6728.578322
3419.965074	6733.930769
3420.989343	6731.386014
3422.012033	6738.636364
3423.034587	6704.415385
3424.058447	6682.918881
3425.079287	6663.590909
3426.099991	6644.656344
3427.122002	6630.294106
3428.140994	6622.720280
3429.159850	6624.150949
3430.180013	6636.802198
3431.197159	6662.890110
