-118.059454	86.534341
-115.389854	91.573626
-112.723189	95.718731
-110.057276	98.991508
-107.394295	101.413811
-104.729885	103.007493
-102.068405	103.794406
-99.405496	103.307692
-96.747693	103.416084
-94.088461	99.498601
-91.429977	97.352448
-88.774417	98.435664
-86.117429	99.034965
-83.465539	100.074126
-80.812218	101.811888
-78.161818	98.963636
-75.509988	100.076224
-72.863249	100.243357
-70.215081	100.633566
-67.567655	99.867832
-64.923143	100.039161
-62.277203	99.306993
-59.636344	100.863636
-56.994056	102.425874
-54.354677	102.716084
-51.713868	104.706294
-49.073800	103.832168
-46.438804	102.840559
-43.802380	103.140559
-41.168858	104.790909
-38.533908	104.437063
-35.904023	102.775524
-33.270546	102.183217
-30.642131	102.033566
-28.014450	104.979720
-25.385340	104.776224
-22.761287	97.818182
-20.133645	68.960839
-17.511056	13.330769
-14.889199	49.199301
-12.268072	276.074126
-9.647675	578.248951
-7.030167	816.297902
-4.411230	974.288811
-1.795178	1055.240559
0.820145	1054.509790
3.434741	977.536364
6.046454	820.023077
8.659596	597.602098
11.267704	324.190210
13.879394	74.890210
16.486053	-15.996503
19.094140	55.333566
21.701503	118.511888
24.303841	128.513986
26.909757	129.527972
29.510651	130.229371
32.112973	127.454545
34.710278	127.213986
37.311158	127.123776
39.907023	132.483217
42.504317	133.044056
45.100891	136.820979
47.692456	137.811888
50.285449	140.957343
52.875581	141.700000
55.467141	147.783217
58.055841	150.304196
60.645968	151.528671
63.231096	154.306993
65.817652	155.812587
68.403494	158.404895
70.986482	162.050350
73.570896	162.504895
76.148182	164.609091
78.729034	163.298601
81.307037	165.153846
83.884330	165.531469
86.463049	171.162238
89.036786	173.533566
91.611951	180.298601
94.184272	185.048252
96.755885	188.245455
99.324658	198.655245
101.894858	212.329371
104.462220	222.920280
107.031007	241.181818
109.596958	259.690210
112.160074	286.911189
114.726746	328.732867
117.284197	394.161538
119.847333	507.344755
122.405509	707.414685
124.967240	1053.427273
127.524014	1659.269231
130.082215	2636.685315
132.635462	4020.931469
135.188012	5825.700000
137.744112	7964.888112
140.295264	10270.790909
142.845719	12613.718182
145.395476	14792.582517
147.942414	16624.958741
150.488657	18054.305594
153.036325	19005.046154
155.583297	19561.036364
158.125334	19808.198601
160.666677	19874.992308
163.207327	19848.944755
165.749403	19802.278322
168.288667	19769.834266
170.825123	19743.623776
173.360887	19736.826573
175.898077	19707.646154
178.434576	19670.974126
180.968269	19662.057343
183.499158	19664.225175
186.029360	19677.209091
188.560986	19694.228671
191.089811	19719.314685
193.615837	19746.372028
196.141177	19793.339161
198.667942	19836.886713
201.191911	19838.706993
203.715195	19807.653147
206.237794	19768.660140
208.757600	19755.134965
211.276723	19772.252448
213.795163	19786.683217
216.315027	19799.286014
218.827890	19830.449650
221.344284	19849.790210
223.859996	19902.323077
226.370818	19957.874825
228.883065	19976.739860
231.392530	19966.625874
233.901316	19967.913986
236.409423	19970.995804
238.918955	19975.605594
241.423606	19997.248951
243.927581	19990.744755
246.432980	20003.251748
248.933504	19984.256643
251.437552	19966.344056
253.934628	19971.434965
256.435228	19956.091608
258.933056	19950.069231
261.430211	19925.967832
263.926693	19926.121678
266.418312	19919.512587
268.913451	19890.162937
271.405823	19877.857343
273.897525	19849.218182
276.386464	19816.781119
278.876827	19749.628671
281.364427	19722.861538
283.849268	19684.825175
286.337624	19647.932168
288.819040	19624.855944
291.303970	19598.830769
293.784055	19607.221678
296.267652	19603.592308
298.746406	19600.967133
301.226584	19611.142657
303.704009	19587.915385
306.180771	19561.030070
308.656870	19523.356643
311.130220	19557.351049
313.602908	19546.627273
316.074935	19557.479720
318.546301	19590.094406
321.014922	19618.286713
323.482885	19671.448252
325.952269	19697.972028
328.416831	19752.424476
330.884897	19803.453147
333.348143	19818.816084
335.810731	19844.766434
338.272663	19866.337762
340.733938	19914.476923
343.192479	19912.662937
345.652442	19900.118881
348.109672	19882.121678
350.566248	19851.844056
353.022170	19809.734965
355.475362	19746.909790
357.929977	19695.882517
360.379790	19623.793007
362.833099	19557.184615
365.281610	19476.604895
367.729469	19407.739860
370.178751	19336.555245
372.623239	19276.490210
375.069149	19212.484615
377.514409	19167.860839
379.956951	19140.733566
382.398845	19113.344755
384.840092	19101.658042
387.278623	19115.122378
389.718576	19118.130769
392.155815	19136.638462
394.590342	19153.375524
397.028357	19204.117483
399.461595	19246.758741
401.896254	19291.786014
404.326141	19334.411888
406.759513	19383.792308
409.188115	19431.603497
411.616075	19473.755944
414.045457	19493.881818
416.470073	19537.441259
418.896111	19551.067832
421.321508	19549.236364
423.746265	19572.669930
426.166264	19596.667133
428.587684	19613.154545
431.006407	19623.288811
433.426551	19647.110490
435.844000	19665.772028
438.262869	19677.896503
440.679045	19699.159441
443.090473	19717.541259
445.505379	19748.682517
447.917594	19800.959441
450.329175	19827.413287
452.740122	19876.509091
455.148383	19912.070629
457.556011	19949.355944
459.963007	19969.822378
462.369372	19985.100000
464.773054	19993.089510
467.176106	20013.047552
469.578528	20012.370629
471.980320	20012.254545
474.379435	20013.527972
476.779969	20041.758741
479.179874	20009.691608
481.575056	20006.484615
483.973705	19979.783916
486.367634	19944.465734
488.760937	19918.720979
491.153614	19892.590909
493.545666	19872.521678
495.939136	19823.682517
498.327894	19773.560839
500.713986	19731.467133
503.101498	19683.158741
505.488387	19652.848951
507.872612	19608.413287
510.258255	19596.033566
512.641237	19570.605594
515.021558	19554.001399
517.403298	19549.326573
519.782379	19555.560839
522.162879	19575.736364
524.540721	19570.393007
526.915908	19576.469231
529.290477	19570.674825
531.666464	19583.474825
534.039799	19570.791608
536.414551	19570.299301
538.784618	19543.767133
541.154069	19520.766434
543.524938	19494.774825
545.891127	19452.588811
548.258734	19426.551748
550.623695	19427.086014
552.988043	19407.520280
555.351778	19380.343357
557.716931	19382.827972
560.077412	19372.532168
562.439311	19343.301399
564.798569	19357.751049
567.155190	19361.855245
569.515255	19378.002098
571.868629	19377.411189
574.225448	19365.821678
576.579632	19382.332168
578.933208	19401.536364
581.286175	19398.036364
583.636510	19383.452448
585.988263	19368.309790
588.333339	19344.351748
590.683879	19338.524476
593.027745	19329.043357
595.377073	19315.542657
597.721752	19284.834266
600.063807	19226.137762
602.407279	19188.441259
604.748128	19160.850350
607.088375	19115.128671
609.426001	19069.332168
611.767062	19040.649650
614.103485	19024.234965
616.441325	19022.738462
618.776548	19010.139860
621.109155	18993.658741
623.443178	18966.970629
625.774587	18934.492308
628.105398	18890.636364
630.435612	18878.852448
632.765227	18861.437063
635.090220	18854.422378
637.420653	18834.341259
639.746466	18870.730769
642.069671	18896.308392
644.394293	18930.449650
646.716309	18951.279021
649.037731	18988.898601
651.356551	19010.432867
653.676786	19020.041259
655.996428	19051.262238
658.313469	19060.323776
660.629918	19069.723077
662.943769	19095.238462
665.259036	19082.313287
667.571706	19106.845455
669.885791	19113.013287
672.195276	19136.090909
674.506177	19143.211189
676.814485	19170.850350
679.122205	19181.005594
681.431339	19179.332168
683.735881	19199.620280
686.039837	19171.400000
688.343207	19159.589510
690.647991	19171.633566
692.948189	19146.562937
695.249801	19153.976923
697.550829	19148.514685
699.847274	19123.423776
702.145135	19107.328671
704.442412	19114.295105
706.739106	19110.902098
709.031224	19112.303497
711.326753	19103.111189
713.617708	19068.339860
715.910078	19058.700000
718.199873	19055.953147
720.489087	19058.735664
722.777722	19077.005594
725.063784	19077.169930
727.351261	19069.038462
729.636166	19080.530070
731.920494	19099.498601
734.202253	19113.337762
736.485426	19145.227972
738.768022	19170.986014
741.046062	19195.018881
743.325517	19230.734965
745.604395	19242.120280
747.882699	19270.713287
750.156453	19302.300000
752.431620	19299.648252
754.706214	19305.166434
756.978249	19306.413986
759.251697	19306.201399
761.522587	19335.895804
763.790921	19354.490909
766.060668	19367.255245
768.327861	19368.661538
770.594483	19362.404196
772.860535	19334.232867
775.124036	19305.619580
777.388950	19284.018881
779.653294	19225.776224
781.913109	19198.323077
784.174336	19190.179021
786.434996	19181.742657
788.693110	19214.094406
790.948679	19225.437762
793.207639	19235.495804
795.460100	19264.125874
797.717927	19285.706993
799.971236	19296.695105
802.222005	19274.234266
804.474186	19262.429371
806.723828	19235.186713
808.974883	19214.420280
811.221426	19195.020280
813.469381	19167.924476
815.714802	19161.295804
817.961634	19129.592308
820.207905	19088.008392
822.449671	19059.976224
824.694821	19025.215385
826.933498	18976.886014
829.175557	18894.098601
831.413118	18869.271329
833.652091	18837.059441
835.888537	18810.728671
838.126394	18797.133566
840.361726	18801.690909
842.594535	18824.764336
844.828755	18828.923776
847.060452	18851.743357
849.291595	18878.025874
851.522183	18894.466434
853.752217	18883.788112
855.981697	18878.060839
858.206695	18913.979021
860.435068	18908.388112
862.658961	18897.953147
864.884266	18891.381818
867.105095	18883.083916
869.329296	18887.616783
871.549024	18889.225874
873.770162	18891.470629
875.990750	18887.599301
878.208829	18875.613287
880.428317	18845.363636
882.643339	18813.019580
884.857814	18800.249650
887.071740	18758.600699
889.285120	18704.502797
891.497952	18680.797902
893.710238	18666.047552
895.920021	18655.762937
898.129259	18658.166434
900.337952	18660.546853
902.544146	18676.050350
904.751749	18696.359441
906.956854	18694.238462
909.161416	18689.054545
911.363483	18725.211189
913.566959	18752.462937
915.767941	18790.467832
917.968381	18841.779720
920.170230	18898.582517
922.365688	18965.888811
924.564505	19015.986713
926.758883	19076.928671
928.956619	19128.950350
931.149919	19167.793706
933.344628	19197.716084
935.536851	19225.382517
937.728535	19261.635664
939.919682	19290.777622
942.108346	19326.069231
944.296474	19347.606993
946.482121	19394.589510
948.671120	19456.088112
950.855696	19483.051049
953.039737	19551.643357
955.227128	19617.568531
957.406215	19690.120280
959.588653	19792.471329
961.770557	19889.414685
963.949986	19976.340559
966.126943	20069.761538
968.305308	20155.870629
970.485080	20220.011189
972.658503	20286.685315
974.835272	20365.976923
977.007634	20427.864336
979.181404	20500.420979
981.350770	20554.040559
983.523480	20646.602797
985.693725	20724.906294
987.863441	20779.682517
990.032628	20841.170629
992.197418	20892.617483
994.365549	20981.895804
996.529286	21045.709790
998.694429	21121.244056
1000.857113	21214.909790
1003.019272	21290.249650
1005.178974	21348.298601
1007.338151	21378.953846
1009.498735	21435.619580
1011.656865	21438.597902
1013.814470	21432.060839
1015.971552	21446.307692
1018.128110	21463.670629
1020.280289	21561.901399
1022.433875	21650.253147
1024.586939	21763.917483
1026.737554	21904.938462
1028.889576	22046.807692
1031.037224	22184.791608
1033.188204	22328.142657
1035.334813	22453.381818
1037.480903	22551.374825
1039.626475	22637.523776
1041.773452	22702.111189
1043.914140	22766.569930
1046.058158	22845.464336
1048.199735	22889.081119
1050.340796	22925.532867
1052.483261	22940.544056
1054.619447	22961.002098
1056.758958	22956.300000
1058.894115	22959.269930
1061.032596	22929.150350
1063.166723	22900.910490
1065.300337	22879.565035
1067.435356	22844.423776
1069.566025	22801.351049
1071.698099	22735.816084
1073.827744	22658.544755
1075.956877	22592.171329
1078.085498	22489.209790
1080.213608	22412.107692
1082.339292	22301.719580
1084.464466	22202.317483
1086.591044	22088.736364
1088.713284	21986.038462
1090.836929	21889.665035
1092.956239	21787.147552
1095.080779	21689.340559
1097.199073	21623.455245
1099.318772	21551.657343
1101.436052	21498.017483
1103.552826	21434.761538
1105.669093	21410.504895
1107.782944	21352.488112
1109.898200	21302.172727
1112.009132	21229.798601
1114.123377	21138.400699
1116.233301	21053.525874
1118.344629	20994.320979
1120.455452	20940.497203
1122.561959	20914.740559
1124.671776	20874.916783
1126.777278	20865.006294
1128.884183	20845.544056
1130.984873	20838.295105
1133.090775	20775.495804
1135.192368	20737.511888
1137.295364	20669.865035
1139.397859	20581.475524
1141.494147	20499.885315
1143.595643	20434.337063
1145.692835	20342.716783
1147.789530	20318.455944
1149.885726	20264.700699
1151.981425	20250.600000
1154.076625	20223.881818
1156.169429	20242.246154
1158.263636	20207.899301
1160.351651	20269.221678
1162.444864	20245.376923
1164.531889	20248.160140
1166.622213	20264.868531
1168.708250	20282.813287
1170.797584	20285.797203
1172.880737	20304.581818
1174.965292	20321.439860
1177.051249	20341.080420
1179.132924	20390.605594
1181.216001	20395.556643
1183.296692	20415.827273
1185.376891	20443.936364
1187.456599	20369.342657
1189.535816	20391.214685
1191.612651	20404.081818
1193.687105	20388.036364
1195.764850	20384.462937
1197.838326	20387.674825
1199.913202	20388.462238
1201.983811	20365.716084
1204.055821	20448.338462
1206.125456	20441.034965
1208.196491	20472.206294
1210.267038	20484.441259
1212.333324	20475.797902
1214.401011	20509.349650
1216.466326	20508.737762
1218.533041	20483.418182
1220.595500	20476.286713
1222.661244	20481.613287
1224.722734	20434.041958
1226.785625	20454.713986
1228.846148	20549.363636
1230.906187	20521.493007
1232.965744	20531.723077
1235.022935	20636.797203
1237.079645	20633.296503
1239.133991	20674.724476
1241.191619	20743.796503
1243.246884	20790.499301
1245.297908	20817.530769
1247.350332	20915.966434
1249.402276	20987.272028
1251.451862	21114.354545
1253.500969	21249.828671
1255.549598	21280.985315
1257.597748	21399.265035
1259.645419	21552.214685
1261.688860	21583.600000
1263.735577	21686.280420
1265.779940	21817.243357
1267.823827	21965.517483
1269.865362	22047.867133
1271.904548	22276.669231
1273.947007	22458.410490
1275.985243	22686.449650
1278.024878	22944.372727
1280.064038	23182.819580
1282.098979	23490.002098
1284.135319	23862.525874
1286.169315	24230.172727
1288.204708	24571.500699
1290.235889	24983.079021
1292.268467	25375.323776
1294.300574	25659.620280
1296.330340	26033.485315
1298.361504	26205.106993
1300.388460	26428.889510
1302.416814	26584.837762
1304.440963	26690.565035
1306.468378	26851.727972
1308.491590	27064.626573
1310.516200	27089.683217
1312.538476	27661.886713
1314.562149	30342.270629
1316.583489	34513.691608
1318.604361	39710.952448
1320.624766	45452.862937
1322.640978	51134.997203
1324.658587	56477.897203
1326.673868	60914.925874
1328.692408	65647.319580
1330.706759	68257.748951
1332.718784	67715.495804
1334.734066	64199.088811
1336.745163	59145.053147
1338.757657	53771.831469
1340.765968	47615.158741
1342.777534	41198.107692
1344.783062	35017.235664
1346.791845	29573.600699
1348.796450	25405.675524
1350.804309	23145.975524
1352.811706	23301.524476
1354.813072	23199.866434
1356.815834	22987.143357
1358.818137	22751.183916
1360.819980	22561.145455
1362.821363	22360.477622
1364.820433	22235.300699
1366.819044	22149.016084
1368.817197	22044.963636
1370.814891	21973.210490
1372.808423	21870.442657
1374.803351	21860.306294
1376.797821	21803.723776
1378.791835	21718.820979
1380.783542	21689.918182
1382.774794	21607.271329
1384.763740	21585.020979
1386.754081	21522.995804
1388.743967	21513.858741
1390.731549	21458.049650
1392.718678	21429.852448
1394.703505	21499.363636
1396.689727	21504.492308
1398.673649	21591.380420
1400.657118	21609.960839
1402.640134	21643.688811
1404.620853	21677.893007
1406.602966	21706.390210
1408.582783	21764.785315
1410.562148	21818.104196
1412.537375	21843.231469
1414.515840	21886.583916
1416.492012	21970.823776
1418.467735	22083.020979
1420.443008	22150.875524
1422.415990	22254.757343
1424.388524	22309.502797
1426.360610	22417.434266
1428.332249	22474.820979
1430.299759	22581.992308
1432.272343	22634.518881
1434.237122	22701.918182
1436.206972	22713.203497
1438.172699	22770.296503
1440.139818	22819.343357
1442.104654	22840.547552
1444.065370	22851.709091
1446.031154	22864.663636
1447.990983	22893.979720
1449.952206	22931.030769
1451.914821	22937.574825
1453.873321	22995.667133
1455.831378	23020.571329
1457.788994	23044.667133
1459.746167	23072.098601
1461.701065	23119.665035
1463.657356	23152.137762
1465.611372	23125.789510
1467.564947	23114.967133
1469.516250	23104.575524
1471.468946	23068.754545
1473.419369	22970.994406
1475.369354	22898.210490
1477.318900	22861.487413
1479.266177	22784.500699
1481.211186	22747.348252
1483.157588	22723.620979
1485.103552	22726.539860
1487.049079	22723.878322
1488.992340	22711.019580
1490.935166	22749.356643
1492.875728	22747.711888
1494.817681	22724.364336
1496.757372	22685.672028
1498.696629	22712.779720
1500.635450	22661.899301
1502.572012	22638.106993
1504.509965	22666.054545
1506.445659	22660.673427
1508.380920	22681.092308
1510.313925	22708.563636
1512.246497	22761.646154
1514.178637	22807.355245
1516.110345	22848.493007
1518.039799	22929.762238
1519.970644	22967.892308
1521.901057	23053.572028
1523.827398	23053.472028
1525.755130	23103.993706
1527.680611	23111.276923
1529.605663	23133.188811
1531.530286	23144.755245
1533.454480	23209.502098
1535.376426	23248.700699
1537.299763	23248.869231
1539.220853	23287.406294
1541.139700	23335.072028
1543.059935	23363.693007
1544.977928	23419.492308
1546.895494	23416.095804
1548.810818	23417.519580
1550.727532	23413.358741
1552.640191	23426.579021
1554.556054	23493.985315
1556.469677	23536.718881
1558.381062	23570.090210
1560.293837	23588.001399
1562.202562	23627.769231
1564.112676	23677.575524
1566.022367	23754.911189
1567.931635	23746.876224
1569.838669	23698.379021
1571.743470	23701.491608
1573.649660	23705.628671
1575.553618	23713.777622
1577.457155	23730.481119
1579.360272	23715.603497
1581.261159	23711.730769
1583.163435	23686.554545
1585.063483	23676.401399
1586.964918	23713.909790
1588.862320	23722.981818
1590.759303	23681.332867
1592.655868	23692.220280
1594.553821	23769.831469
1596.445939	23775.994406
1598.341250	23809.795105
1600.236144	23823.087413
1602.128816	23871.488811
1604.021071	23905.458741
1605.911107	23927.469930
1607.800727	23954.827273
1609.689932	24009.175524
1611.578722	24045.995105
1613.465294	24115.502098
1615.353254	24200.102098
1617.237197	24231.397203
1619.122527	24263.526573
1621.007444	24295.496503
1622.890147	24325.539161
1624.774237	24352.628671
1626.654315	24393.985315
1628.535781	24405.692308
1630.415036	24406.739161
1632.295677	24429.858741
1634.170514	24482.413986
1636.050332	24535.677622
1637.926146	24576.179021
1639.801549	24603.139860
1641.678338	24677.172028
1643.549331	24665.522378
1645.423505	24718.832867
1647.293680	24742.831469
1649.167037	24755.110490
1651.038190	24753.603497
1652.907141	24746.369930
1654.777477	24745.652448
1656.643821	24682.961538
1658.511550	24717.569930
1660.377080	24693.983916
1662.243996	24655.148252
1664.106923	24608.990909
1665.971235	24584.248951
1667.833351	24575.477622
1669.695062	24552.662238
1671.558159	24505.735664
1673.419060	24508.687413
1675.277769	24522.331469
1677.136074	24499.107692
1678.995764	24496.848951
1680.849686	24559.669930
1682.706782	24577.357343
1684.563475	24572.711189
1686.416191	24563.642657
1688.272079	24554.698601
1690.123993	24544.900000
1691.975506	24539.939860
1693.826618	24506.426573
1695.677330	24495.181119
1697.527641	24406.193007
1699.375767	24410.651748
1701.225278	24389.000000
1703.069040	24331.518182
1704.917751	24315.587413
1706.760716	24243.410490
1708.606848	24210.171329
1710.449017	24153.367832
1712.294352	24174.917483
1714.133946	24133.765035
1715.974924	24072.511189
1717.817285	24023.162238
1719.655690	23986.614685
1721.495478	24016.460140
1723.333091	23910.093007
1725.170308	23863.609091
1727.005352	23793.733566
1728.841779	23714.486713
1730.676034	23654.390210
1732.509894	23595.551748
1734.343360	23584.863636
1736.172881	23501.574825
1738.005560	23418.074126
1739.834295	23364.551049
1741.666187	23295.109790
1743.494137	23189.430070
1745.321696	23091.836364
1747.148862	23006.030070
1748.975637	22881.012587
1750.802020	22782.342657
1752.624467	22660.353147
1754.450069	22621.652448
1756.271736	22491.769930
1758.094785	22409.102098
1759.915672	22316.746154
1761.736171	22234.153147
1763.558051	22162.706993
1765.374231	22108.096503
1767.193563	22067.571329
1769.008968	22023.181119
1770.827523	21958.722378
1772.642153	21935.426573
1774.456396	21882.718182
1776.270253	21865.634965
1778.083723	21796.866434
1779.895040	21793.716783
1781.707737	21742.272028
1783.520049	21717.003497
1785.328443	21693.395804
1787.138217	21659.060140
1788.944077	21634.235664
1790.753082	21608.331469
1792.558174	21549.405594
1794.364647	21554.010490
1796.170736	21512.555944
1797.972914	21531.141958
1799.778237	21497.239161
1801.579651	21445.197203
1803.382445	21388.642657
1805.181333	21353.879021
1806.981602	21294.395804
1808.781489	21256.153846
1810.579234	21200.906993
1812.376599	21157.895804
1814.173584	21132.820979
1815.970188	21148.017483
1817.764653	21137.237063
1819.560497	21150.844755
1821.350686	21110.167133
1823.145772	21104.972028
1824.935206	21091.618881
1826.727776	21077.841259
1828.518211	21065.902098
1830.306512	21065.683916
1832.097948	21041.426573
1833.883738	21043.075524
1835.670908	21023.670629
1837.455946	21003.620280
1839.244118	20987.095804
1841.028404	20966.881818
1842.810560	20963.317483
1844.594096	20961.403497
1846.375503	20932.071329
1848.158289	20923.667832
1849.937194	20918.686713
1851.717479	20908.091608
1853.495637	20903.391608
1855.275174	20890.717483
1857.052586	20862.043357
1858.827874	20832.737063
1860.604540	20840.355245
1862.379084	20868.862238
1864.155006	20870.888811
1865.925307	20890.440559
1867.698736	20888.173427
1869.470045	20917.947552
1871.240983	20939.673427
1873.013299	20968.692308
1874.780001	20988.941958
1876.549829	21013.834266
1878.315793	21035.231469
1880.084880	21026.994406
1881.850106	21048.652448
1883.614964	21049.447552
1885.381199	21029.820280
1887.143575	21021.304196
1888.905584	21019.858042
1890.667225	21020.835664
1892.428500	21035.109790
1894.189407	21050.593007
1895.949948	21071.578322
1897.708379	21123.827972
1899.466444	21154.152448
1901.222402	21200.821678
1902.979736	21263.046853
1904.736705	21296.013986
1906.491567	21369.592308
1908.244325	21404.738462
1909.996718	21451.428671
1911.750488	21493.362238
1913.502154	21553.223776
1915.251718	21614.370629
1917.002657	21697.915385
1918.753234	21783.501399
1920.499971	21858.307692
1922.248085	21963.961538
1923.994099	22036.562937
1925.741488	22104.960839
1927.486780	22194.179720
1929.229974	22248.864336
1930.974543	22325.358042
1932.717017	22408.625874
1934.459130	22492.346853
1936.200883	22588.728671
1937.942276	22705.714685
1939.681576	22798.853846
1941.420517	22903.274825
1943.159099	22988.109790
1944.895590	23056.471329
1946.631723	23124.198601
1948.369230	23191.663636
1950.102915	23256.306294
1951.837975	23340.349650
1953.570946	23402.046154
1955.303561	23503.178322
1957.035820	23584.770629
1958.767722	23664.401399
1960.497538	23732.232168
1962.225269	23817.316084
1963.954375	23905.053147
1965.683126	23982.772028
1967.409793	24042.101399
1969.136106	24115.258741
1970.863792	24193.376224
1972.585942	24293.370629
1974.311193	24384.101399
1976.032637	24501.203497
1977.757182	24565.135664
1979.479646	24625.398601
1981.198308	24704.257343
1982.920068	24785.555245
1984.638026	24870.744056
1986.357357	24946.554545
1988.072889	25012.073427
1989.793241	25104.628671
1991.509795	25171.258741
1993.222552	25265.018182
1994.938405	25350.481818
1996.652186	25435.632867
1998.365617	25523.929371
2000.076977	25592.140559
2001.789709	25695.783217
2003.498651	25768.220979
2005.210685	25840.014685
2006.917211	25903.377622
2008.626828	25940.563636
2010.334379	25992.700000
2012.041581	26039.837063
2013.746718	26075.686014
2015.451509	26115.180420
2017.157671	26155.562937
2018.860051	26200.548951
2020.563802	26231.658741
2022.265491	26249.460140
2023.966835	26265.660839
2025.667833	26288.298601
2027.366770	26310.747552
2029.067079	26343.058042
2030.763613	26350.614685
2032.461518	26383.285315
2034.157364	26391.811888
2035.856296	26418.016084
2037.549742	26449.352448
2039.244559	26448.137762
2040.939034	26477.122378
2042.629740	26461.002797
2044.323530	26483.317483
2046.013553	26463.365035
2047.704947	26447.513287
2049.394288	26409.660839
2051.084999	26339.306993
2052.771947	26332.361538
2054.458556	26296.285315
2056.146534	26290.780420
2057.830753	26284.109091
2059.516343	26291.340559
2061.201593	26318.323077
2062.884794	26313.169930
2064.569366	26308.137762
2066.248475	26297.509091
2067.932369	26292.960839
2069.610802	26268.916783
2071.292313	26248.960839
2072.970072	26265.079720
2074.647495	26235.366434
2076.326287	26257.970629
2078.003037	26274.475524
2079.677745	26311.748252
2081.353822	26305.662238
2083.027859	26305.645455
2084.701560	26288.703497
2086.374926	26328.209091
2088.046253	26300.554545
2089.717246	26299.028671
2091.387905	26256.010490
2093.058230	26255.344755
2094.728221	26223.659441
2096.396176	26259.344755
2098.063798	26286.702098
2099.729385	26352.284615
2101.396341	26402.511888
2103.061264	26471.058741
2104.725855	26539.438462
2106.388414	26640.342657
2108.052341	26701.373427
2109.714237	26778.546853
2111.375803	26832.374126
2113.037037	26921.268531
2114.696243	26964.331469
2116.355118	27056.871329
2118.013664	27121.034266
2119.671880	27188.395105
2121.326372	27226.906294
2122.983929	27292.930070
2124.641157	27318.372028
2126.294663	27350.355944
2127.949537	27365.172028
2129.600692	27321.246154
2131.254910	27318.734266
2132.905411	27314.131469
2134.557278	27311.583916
2136.203737	27346.570629
2137.854951	27376.038462
2139.502451	27385.149650
2141.151318	27415.706294
2142.798166	27458.471329
2144.444689	27484.579021
2146.090886	27516.993706
2147.733375	27524.900000
2149.378922	27520.644755
2151.020762	27540.546853
2152.665659	27588.339161
2154.306850	27622.451049
2155.947719	27668.610490
2157.588263	27705.769231
2159.226795	27718.544755
2160.866693	27704.269231
2162.502891	27706.518182
2164.140455	27727.718881
2165.777697	27746.514685
2167.412929	27750.409091
2169.047840	27785.921678
2170.682428	27799.032867
2172.316696	27845.227972
2173.947270	27898.108392
2175.580896	27929.214685
2177.210830	27984.211189
2178.842129	28028.235664
2180.471423	28020.972028
2182.100398	28033.016084
2183.729053	28042.919580
2185.357389	28029.462937
2186.983723	27993.148951
2188.609738	27973.359441
2190.233751	27943.560140
2191.859130	27927.396503
2193.482508	27933.267832
2195.107251	27898.551049
2196.728313	27930.317483
2198.349058	27921.255245
2199.971168	27929.088811
2201.591280	27918.045455
2203.209395	27906.941259
2204.827195	27918.813986
2206.444680	27913.680420
2208.061849	27935.533566
2209.678703	27975.283217
2211.295241	27988.239161
2212.909787	28009.577622
2214.522340	27992.611189
2216.136257	28013.260839
2217.748183	28019.150350
2219.361472	28039.858741
2220.972771	28017.545455
2222.582080	28018.710490
2224.192753	28039.920979
2225.801437	28087.067832
2227.409808	28150.991608
2229.016193	28229.231469
2230.623941	28270.445455
2232.229702	28349.968531
2233.835152	28392.103497
2235.438617	28470.656643
2237.043445	28528.388112
2238.646289	28560.369930
2240.247150	28585.224476
2241.849374	28619.079720
2243.449616	28639.958741
2245.051220	28687.719580
2246.649171	28701.925175
2248.248485	28774.827273
2249.845819	28815.939161
2251.442845	28894.360140
2253.041233	28938.667832
2254.635972	29001.502098
2256.228734	29047.141958
2257.822859	29088.369930
2259.418345	29102.588112
2261.010186	29131.862238
2262.601721	29160.718881
2264.194618	29166.889510
2265.782205	29190.767832
2267.374488	29211.927972
2268.961465	29191.870629
2270.551469	29194.373427
2272.136169	29163.760839
2273.725563	29131.060839
2275.309655	29046.292308
2276.895107	28929.690210
2278.478591	28863.215385
2280.065100	28805.397203
2281.647976	28769.606294
2283.230549	28718.937063
2284.812818	28703.763636
2286.391457	28691.406993
2287.973121	28688.390210
2289.551156	28704.034266
2291.132214	28710.369231
2292.709645	28691.909091
2294.285113	28652.700000
2295.863603	28620.744056
2297.438469	28636.929371
2299.013034	28577.684615
2300.587299	28550.628671
2302.161263	28517.831469
2303.734926	28489.125175
2305.308290	28460.542657
2306.878035	28440.308392
2308.447481	28441.162238
2310.019945	28454.706294
2311.587135	28465.154545
2313.157343	28523.565734
2314.723936	28549.433566
2316.291889	28608.753846
2317.857886	28698.000000
2319.423586	28785.560839
2320.988988	28846.497203
2322.552437	28925.293706
2324.117245	29008.090210
2325.678445	29068.036364
2327.242659	29111.156643
2328.801611	29139.190210
2330.363578	29157.426573
2331.923593	29173.459441
2333.483314	29150.909091
2335.041085	29145.148951
2336.598561	29160.327273
2338.155743	29131.036364
2339.710977	29125.834266
2341.265918	29142.767832
2342.820564	29137.165734
2344.374917	29111.423776
2345.928977	29103.566434
2347.482742	29089.209091
2349.034564	29085.860140
2350.584442	29046.771329
2352.137328	28972.583916
2353.684972	28909.784615
2355.235623	28885.302797
2356.782683	28870.172028
2358.331101	28834.063636
2359.879228	28815.723776
2361.423766	28809.574825
2362.969662	28815.729371
2364.513620	28829.033566
2366.058935	28843.192308
2367.600665	28851.274126
2369.143752	28822.442657
2370.684903	28802.367133
2372.225765	28781.114685
2373.766338	28776.296503
2375.306622	28748.781818
2376.846617	28705.504196
2378.383034	28712.144755
2379.922452	28726.826573
2381.458293	28740.039161
2382.995490	28791.025175
2384.529112	28840.267832
2386.065734	28876.906294
2387.600426	28952.237762
2389.133188	29012.717483
2390.665663	29059.607692
2392.196210	29090.762937
2393.729755	29111.660140
2395.258089	29138.483916
2396.787780	29176.509091
2398.317184	29192.540559
2399.846304	29205.774126
2401.375139	29213.693007
2402.898768	29204.646853
2404.427033	29222.316084
2405.950096	29242.935664
2407.477792	29268.529371
2408.998649	29299.074825
2410.524139	29323.460839
2412.046068	29363.365734
2413.569353	29416.387413
2415.090716	29440.711189
2416.610160	29444.672028
2418.130959	29467.687413
2419.649840	29498.088112
2421.168438	29523.823776
2422.685119	29576.908392
2424.203154	29619.281818
2425.720908	29669.533566
2427.235111	29724.728671
2428.749033	29812.034266
2430.262675	29881.870629
2431.777672	29948.253846
2433.289120	29966.032867
2434.801923	29993.802098
2436.312812	30050.549650
2437.823423	30087.093007
2439.332122	30117.762937
2440.843807	30159.158042
2442.351949	30187.204895
2443.859813	30235.396503
2445.367399	30322.606993
2446.871444	30425.578322
2448.378474	30506.851748
2449.883597	30595.135664
2451.388441	30660.690210
2452.891379	30713.741958
2454.394041	30767.066434
2455.896426	30757.232168
2457.396906	30764.620280
2458.898739	30761.486014
2460.398667	30784.547552
2461.898320	30828.853147
2463.397698	30887.485315
2464.895173	30952.162937
2466.390746	31032.567832
2467.889299	31129.668531
2469.384324	31198.853846
2470.880701	31253.504895
2472.373552	31308.576224
2473.867756	31362.288112
2475.361686	31415.767832
2476.852092	31459.448951
2478.345476	31504.693706
2479.836962	31543.755245
2481.326551	31597.259441
2482.815868	31666.676923
2484.303289	31688.243357
2485.793686	31711.881818
2487.280565	31707.553147
2488.768795	31694.932168
2490.253508	31687.560839
2491.737952	31681.079720
2493.223746	31627.035664
2494.707649	31577.220280
2496.192902	31540.558741
2497.673022	31540.261538
2499.156115	31534.751049
2500.637317	31539.689510
2502.118250	31514.700699
2503.597294	31530.857343
2505.076069	31493.746853
2506.554576	31468.410490
2508.032815	31412.538462
2509.510785	31334.620979
2510.985250	31242.650350
2512.462685	31158.000000
2513.936616	31070.325175
2515.411897	30984.117483
2516.886911	30905.706294
2518.358425	30821.317483
2519.831288	30765.673427
2521.302269	30711.424476
2522.774600	30640.551748
2524.241817	30551.628671
2525.712001	30444.302098
2527.180304	30353.413287
2528.648342	30281.327972
2530.116115	30211.179720
2531.583623	30153.196503
2533.050866	30101.603497
2534.514617	30077.237762
2535.979718	30042.241958
2537.442942	30061.023776
2538.907516	30057.852448
2540.368600	30058.965035
2541.831034	30033.416783
2543.293205	30016.455245
2544.751890	30024.071329
2546.215147	30033.273427
2547.673307	30038.488112
2549.132816	30051.530070
2550.587231	30049.293007
2552.046217	30025.200699
2553.503331	29998.841259
2554.958574	29990.666434
2556.413555	29947.844755
2557.866668	29955.172727
2559.321129	29937.362238
2560.773720	29919.787413
2562.226052	29934.937762
2563.676517	29959.071329
2565.129937	29987.983217
2566.578275	30023.235664
2568.029569	30084.558741
2569.478996	30106.512587
2570.924951	30158.543357
2572.373861	30191.883916
2573.819301	30224.594406
2575.266088	30263.606993
2576.711013	30272.843357
2578.155679	30280.206294
2579.601693	30274.574126
2581.044241	30249.597203
2582.488136	30230.822378
2583.928566	30243.817483
2585.370343	30259.782517
2586.810261	30275.716084
2588.251526	30335.547552
2589.689329	30398.763636
2591.130082	30458.066434
2592.565773	30555.917483
2594.004413	30590.247552
2595.441195	30654.779021
2596.876122	30703.728671
2598.313996	30703.123077
2599.746813	30727.423077
2601.180977	30706.267832
2602.613287	30712.128671
2604.046943	30718.003497
2605.478746	30734.333566
2606.910295	30753.993706
2608.341592	30743.751049
2609.771036	30772.087413
2611.200228	30739.045455
2612.627570	30777.896503
2614.056257	30783.379720
2615.484693	30776.183217
2616.909681	30798.097203
2618.336016	30786.025175
2619.760502	30887.222378
2621.186334	30922.239860
2622.608722	30998.993706
2624.032456	31049.940559
2625.454343	31087.330070
2626.875981	31154.023077
2628.295773	31173.594406
2629.716911	31219.226573
2631.137799	31210.997902
2632.555249	31257.659441
2633.975638	31288.383217
2635.392590	31301.689510
2636.809293	31379.462937
2638.225748	31415.076224
2639.641955	31463.642657
2641.057914	31490.288112
2642.472032	31506.148252
2643.885902	31542.166434
2645.297934	31584.436364
2646.711309	31631.982517
2648.121255	31674.237063
2649.534137	31749.694406
2650.943590	31830.406993
2652.352797	31893.567832
2653.760168	31968.104196
2655.170473	32040.378322
2656.578943	32068.740559
2657.985577	32138.584615
2659.391966	32155.413287
2660.796521	32191.587413
2662.202420	32275.695105
2663.606486	32325.414685
2665.010307	32384.706294
2666.413884	32438.100000
2667.815630	32480.823077
2669.218719	32488.202098
2670.618390	32479.309790
2672.019405	32463.309091
2673.417004	32424.715385
2674.817533	32446.235664
2676.214646	32412.148252
2677.613103	32418.120979
2679.009733	32445.827273
2680.406120	32434.153147
2681.802265	32456.828671
2683.196585	32498.865035
2684.592246	32465.674126
2685.984499	32489.684615
2687.378094	32500.466434
2688.769865	32476.502797
2690.162979	32506.413986
2691.554269	32572.628671
2692.943736	32593.769231
2694.332963	32636.356643
2695.721951	32671.443357
2697.112280	32686.009091
2698.497626	32742.209790
2699.885895	32792.336364
2701.272344	32776.819580
2702.658554	32853.590909
2704.044525	32857.257343
2705.427098	32865.153846
2706.811013	32953.297902
2708.194690	33006.345455
2709.578128	33058.834965
2710.958172	33124.224476
2712.339556	33186.991608
2713.719126	33249.482517
2715.100036	33311.311189
2716.479132	33386.324476
2717.856414	33442.760839
2719.235037	33545.743357
2720.611847	33564.936364
2721.988420	33627.222378
2723.364758	33676.474825
2724.739285	33713.076923
2726.115152	33770.757343
2727.487632	33800.158741
2728.863028	33839.363636
2730.233464	33896.884615
2731.605241	33948.424476
2732.976783	34010.779720
2734.346517	34103.817483
2735.717592	34188.527273
2737.086858	34235.017483
2738.455891	34293.226573
2739.823118	34378.542657
2741.190112	34460.322378
2742.556872	34540.756643
2743.923401	34611.104895
2745.288124	34704.386014
2746.652615	34801.899301
2748.016875	34910.987413
2749.380902	34977.144056
2750.744698	35086.143357
2752.105120	35137.022378
2753.468452	35113.483916
2754.826842	35123.816084
2756.188142	35122.975524
2757.546072	35096.923077
2758.906910	35087.601399
2760.265949	35056.602797
2761.621619	35051.658741
2762.980197	35063.465035
2764.335408	35127.348252
2765.690390	35153.923776
2767.043576	35224.897902
2768.399668	35229.950350
2769.752395	35242.260140
2771.104895	35268.851748
2772.457166	35301.998601
2773.810776	35351.123077
2775.161024	35377.425874
2776.509478	35410.755245
2777.860838	35474.097902
2779.208838	35534.917483
2780.558176	35591.105594
2781.905722	35620.334266
2783.253042	35634.088112
2784.600135	35609.103497
2785.945437	35616.768531
2787.290512	35621.559441
2788.635362	35659.066434
2789.979986	35690.155944
2791.321258	35761.219580
2792.663868	35848.238462
2794.006252	35969.956643
2795.348411	36061.214685
2796.687221	36166.495804
2798.028931	36272.723776
2799.367293	36331.505594
2800.706991	36344.516084
2802.044905	36395.253846
2803.381034	36446.784615
2804.716939	36492.339161
2806.054182	36557.848951
2807.389641	36647.572028
2808.724877	36667.560140
2810.058330	36770.164336
2811.393120	36864.667133
2812.724570	36940.576224
2814.058915	37001.565734
2815.388362	37046.760140
2816.719146	37075.074126
2818.049708	37126.259441
2819.378491	37165.738462
2820.708610	37221.523077
2822.036951	37239.089510
2823.365071	37243.852448
2824.691413	37204.995105
2826.019092	37226.127273
2827.343437	37223.065035
2828.669119	37198.289510
2829.993025	37201.150350
2831.316712	37235.679720
2832.641734	37241.207692
2833.963426	37274.424476
2835.284900	37298.473427
2836.606155	37342.359441
2837.927191	37341.601399
2839.246454	37355.976923
2840.567053	37349.748252
2841.885881	37336.452448
2843.204490	37298.769231
2844.521328	37307.540559
2845.837949	37283.482517
2847.154353	37337.539860
2848.468987	37367.986713
2849.784957	37410.772028
2851.097606	37462.902797
2852.411590	37525.694406
2853.725358	37561.147552
2855.038909	37602.138462
2856.350694	37661.836364
2857.660712	37673.990909
2858.972065	37669.863636
2860.280103	37720.719580
2861.589475	37753.115385
2862.898633	37883.004196
2864.207575	37950.870629
2865.514753	38007.849650
2866.820169	38089.951748
2868.126919	38148.535664
2869.431906	38169.211189
2870.736680	38211.459441
2872.039692	38292.486014
2873.345585	38270.081818
2874.646624	38300.592308
2875.948997	38299.454545
2877.249610	38313.709091
2878.551557	38319.976224
2879.853290	38291.597902
2881.151720	38282.065734
2882.451483	38259.214685
2883.749489	38211.397902
2885.047283	38175.583916
2886.343321	38182.981818
2887.640692	38183.091608
2888.936307	38168.241259
2890.231711	38205.250350
2891.526904	38164.021678
2892.818800	38187.742657
2894.113572	38130.928671
2895.405047	38117.786713
2896.697855	38068.346154
2897.990453	37980.458042
2899.279757	37915.967832
2900.570393	37902.341958
2901.859278	37907.044056
2903.149495	37919.387413
2904.436421	37929.516783
2905.724679	37932.862238
2907.011188	37953.673427
2908.297489	37995.045455
2909.583581	37955.222378
2910.867925	37980.411888
2912.155140	37934.636364
2913.437529	37900.895804
2914.721250	37866.768531
2916.003225	37899.419580
2917.284992	37963.413986
2918.565015	37986.216783
2919.847907	37994.836364
2921.129054	37997.548951
2922.406919	38068.191608
2923.687653	38041.990210
2924.965106	37996.683217
2926.242353	38008.211888
2927.517858	37927.151748
2928.796231	37874.662937
2930.069790	37808.482517
2931.346216	37802.634965
2932.620901	37787.295105
2933.893845	37738.321678
2935.168121	37715.532168
2936.440657	37702.718881
2937.712988	37690.147552
2938.982047	37643.051748
2940.253971	37583.168531
2941.524157	37543.060839
2942.794139	37466.362238
2944.063918	37430.416783
2945.331961	37420.574126
2946.598267	37433.406294
2947.864372	37432.481119
2949.131806	37447.319580
2950.397506	37427.184615
2951.663003	37481.125874
2952.928298	37435.689510
2954.190328	37434.444056
2955.453688	37357.553147
2956.716847	37310.572727
2957.978274	37285.567133
2959.241030	37288.844056
2960.502054	37311.714685
2961.761348	37330.261538
2963.020442	37350.490210
2964.279335	37357.177622
2965.538028	37334.909790
2966.796521	37415.007692
2968.053285	37386.200699
2969.309849	37450.367832
2970.564686	37477.918881
2971.820851	37524.649650
2973.073762	37536.095105
2974.328002	37589.428671
2975.582043	37548.236364
2976.834358	37545.727273
2978.086474	37567.627273
2979.336866	37578.672727
2980.590113	37587.427273
2981.838583	37615.595105
2983.089908	37605.150350
2984.337983	37620.863636
2985.585862	37645.518881
2986.833543	37636.622378
2988.081027	37624.918182
2989.326790	37643.425874
2990.572357	37634.542657
2991.819251	37671.939860
2993.062901	37734.747552
2994.307879	37792.672727
2995.549613	37807.993706
2996.794199	37807.776923
2998.037066	37830.551748
2999.276692	37830.212587
3000.519168	37883.660140
3001.758404	37854.081818
3002.998968	37904.758741
3004.237816	37930.934266
3005.476468	37967.490909
3006.713406	38006.632168
3007.951670	38048.035664
3009.188219	38116.609790
3010.424575	38145.313986
3011.660737	38192.844755
3012.895185	38256.497203
3014.129441	38266.199301
3015.363503	38306.958042
3016.595853	38328.224476
3017.826491	38356.369231
3019.059975	38354.879021
3020.291747	38358.462937
3021.521809	38382.240559
3022.751679	38413.520979
3023.979839	38449.507692
3025.209325	38440.395105
3026.437102	38445.536364
3027.664688	38444.979720
3028.893601	38431.567832
3030.117771	38450.565734
3031.344784	38489.506294
3032.568573	38465.329371
3033.793689	38486.943357
3035.017098	38507.070629
3036.240317	38522.179021
3037.461831	38553.474825
3038.686186	38573.382517
3039.905806	38591.810490
3041.126752	38577.720280
3042.347509	38579.986014
3043.566562	38617.616783
3044.786940	38630.253846
3046.004102	38629.368531
3047.222590	38650.326573
3048.439375	38677.039161
3049.655973	38687.095105
3050.872382	38713.495105
3052.085579	38719.395105
3053.301613	38751.499301
3054.514435	38718.059441
3055.730094	38689.060839
3056.941030	38691.482517
3058.153291	38692.929371
3059.365366	38673.322378
3060.577253	38635.657343
3061.787444	38658.579720
3062.997448	38644.518881
3064.207266	38651.236364
3065.415388	38681.813287
3066.623325	38704.025874
3067.829566	38756.190210
3069.037132	38708.392308
3070.243003	38777.811189
3071.448690	38819.876224
3072.654191	38819.723077
3073.857999	38864.046853
3075.063131	38867.309091
3076.266570	38863.810490
3077.468318	38870.016783
3078.669881	38869.974126
3079.871261	38918.916084
3081.072457	38928.308392
3082.271963	38936.483916
3083.471286	38884.179021
3084.671932	38906.630769
3085.870888	38875.092308
3087.066650	38866.346853
3088.265241	38886.944056
3089.460638	38882.980420
3090.657358	38870.201399
3091.850886	38862.223077
3093.047242	38880.837762
3094.241912	38932.866434
3095.433391	38944.909790
3096.629201	38938.925874
3097.820318	38944.721678
3099.012757	38954.318881
3100.202009	39001.496503
3101.394086	39044.948252
3102.584480	39066.942657
3103.771688	39080.320280
3104.960219	39075.969231
3106.150071	39080.651049
3107.336740	39068.043357
3108.523228	39066.111189
3109.709538	39008.869930
3110.897169	38955.343357
3112.081618	38983.264336
3113.264388	38977.517483
3114.449980	39034.692308
3115.633893	39069.634965
3116.816127	39073.812587
3117.998182	39110.476224
3119.180059	39140.844755
3120.361758	39169.554545
3121.541780	39144.960839
3122.720125	39151.795804
3123.901290	39096.220280
3125.079280	39109.804895
3126.257094	39154.604196
3127.434730	39145.994406
3128.610691	39169.714685
3129.786475	39139.071329
3130.963581	39128.292308
3132.139012	39140.589510
3133.312770	39153.777622
3134.484855	39133.023077
3135.658262	39104.846853
3136.831492	39162.602098
3138.003051	39199.425874
3139.175930	39272.345455
3140.345642	39383.483217
3141.516675	39402.464336
3142.686038	39413.367832
3143.853730	39429.041259
3145.024238	39455.818182
3146.190088	39461.520979
3147.360246	39470.758741
3148.525748	39452.514685
3149.691075	39418.858741
3150.856229	39446.695804
3152.021210	39427.847552
3153.187510	39341.459441
3154.349158	39254.660839
3155.512125	39133.737063
3156.674920	38969.083916
3157.837542	38830.105594
3158.998499	38719.111888
3160.159283	38588.737762
3161.319895	38508.556643
3162.478843	38491.477622
3163.637620	38479.511888
3164.796225	38542.744755
3165.954657	38571.895105
3167.112919	38608.424476
3168.269518	38691.984615
3169.424456	38744.162238
3170.580713	38750.587413
3171.735309	38823.978322
3172.889735	38891.555245
3174.042501	38856.500699
3175.195096	38902.957343
3176.347522	38937.879720
3177.499778	38991.324476
3178.651863	39020.431469
3179.800803	39060.749650
3180.952549	39156.444755
3182.102637	39227.293007
3183.251069	39303.223776
3184.399331	39432.039161
3185.547425	39580.789510
3186.695350	39742.206294
3187.841619	39816.509790
3188.987720	39914.341958
3190.132167	39951.162937
3191.276446	40021.694406
3192.420557	40007.684615
3193.565985	40005.540559
3194.708275	39994.121678
3195.850398	39970.035664
3196.992353	39956.795105
3198.134141	39955.783217
3199.275762	39960.983217
3200.414248	39996.587413
3201.554051	39989.162238
3202.695172	39981.558042
3203.833158	39987.841958
3204.969495	39995.246154
3206.105666	40015.753846
3207.243154	40039.502098
3208.378994	40105.254545
3209.516151	40080.837762
3210.648695	40073.559441
3211.785521	40070.213287
3212.917735	40035.561538
3214.051266	39974.244755
3215.184633	39876.710490
3216.314872	39745.380420
3217.447909	39661.832168
3218.577820	39562.460140
3219.709047	39491.922378
3220.837150	39482.497902
3221.968049	39463.827972
3223.097304	39415.209790
3224.224916	39446.069231
3225.349405	39484.646853
3226.478170	39543.225175
3227.603813	39586.615385
3228.729294	39653.909091
3229.853133	39698.261538
3230.979766	39738.850350
3232.101802	39731.616783
3233.225154	39716.082517
3234.348344	39709.016783
3235.471372	39654.808392
3236.592760	39602.604895
3237.713986	39569.372727
3238.833575	39590.472727
3239.953002	39656.855245
3241.070791	39723.174126
3242.191372	39848.448951
3243.308840	39934.967832
3244.426147	40060.230070
3245.543294	40146.062937
3246.658805	40251.044755
3247.775630	40326.775524
3248.889346	40397.642657
3250.005851	40427.835664
3251.120722	40464.406993
3252.232484	40525.293007
3253.344086	40536.329371
3254.457004	40515.267133
3255.569762	40557.693706
3256.679414	40531.338462
3257.790381	40521.062937
3258.901189	40482.432168
3260.010365	40510.798601
3261.117911	40537.518182
3262.226770	40619.286014
3263.335472	40689.174825
3264.441071	40796.434965
3265.547984	40875.914685
3266.653268	40903.988811
3267.759866	40950.164336
3268.863364	41020.651748
3269.968177	40989.619580
3271.072832	40999.141259
3272.174388	41035.220979
3273.275788	41086.897203
3274.378502	41095.315385
3275.481060	41159.720979
3276.580521	41168.180420
3277.682766	41195.285315
3278.781915	41186.801399
3279.879440	41173.467832
3280.976809	41165.747552
3282.076960	41156.128671
3283.174019	41061.780420
3284.270922	41087.583217
3285.367670	41058.032867
3286.459860	41054.888811
3287.556298	41021.433566
3288.651114	40972.739161
3289.745776	40939.006294
3290.838816	40948.233566
3291.931701	40964.681818
3293.022967	40943.823776
3294.115544	40918.914685
3295.206502	40913.048252
3296.295840	40851.860140
3297.385025	40886.726573
3298.475523	40819.653846
3299.562936	40815.242657
3300.650196	40818.242657
3301.738769	40823.978322
3302.827190	40833.848252
3303.911063	40880.332168
3304.999178	40963.281818
3306.084211	40961.732867
3307.167629	41068.312587
3308.252359	41139.669231
3309.335473	41204.708392
3310.419900	41224.337762
3311.501248	41234.833566
3312.583908	41244.551049
3313.664954	41248.855944
3314.745849	41267.093706
3315.825130	41219.497902
3316.904261	41253.828671
3317.984704	41278.426573
3319.062072	41269.555245
3320.140752	41382.089510
3321.217820	41413.000699
3322.294739	41474.374825
3323.370046	41526.719580
3324.445204	41586.146853
3325.521673	41608.409790
3326.595072	41629.440559
3327.668322	41671.998601
3328.742882	41659.265734
3329.815834	41645.157343
3330.887177	41576.401399
3331.959831	41538.102098
3333.029419	41507.939161
3334.100317	41420.165035
3335.169608	41352.298601
3336.240210	41294.361538
3337.309205	41195.144755
3338.376594	41183.643357
3339.442378	41130.542657
3340.512388	41094.816084
3341.579335	41068.825175
3342.643220	41019.981818
3343.709873	41020.199301
3344.774921	41012.304196
3345.838366	41014.767832
3346.901665	40979.134965
3347.964817	40979.458042
3349.027823	40922.545455
3350.090683	40912.613287
3351.151941	40887.812587
3352.210142	40804.534266
3353.272563	40805.732168
3354.331929	40805.864336
3355.391149	40790.990210
3356.451679	40882.604196
3357.507699	40965.699301
3358.566483	41055.954545
3359.620760	41145.770629
3360.677801	41238.183916
3361.733243	41323.058042
3362.789995	41422.203497
3363.845148	41428.218182
3364.898704	41453.415385
3365.950664	41532.545455
3367.005385	41566.827972
3368.057057	41583.639860
3369.108586	41641.165035
3370.161423	41668.152448
3371.211213	41669.359441
3372.262312	41674.732867
3373.310365	41707.755245
3374.361177	41735.286014
3375.408945	41746.152448
3376.456570	41749.001399
3377.504052	41757.353846
3378.549942	41780.696503
3379.597140	41765.832867
3380.641296	41788.088112
3381.688210	41780.148951
3382.733532	41754.413986
3383.775813	41728.286014
3384.817954	41706.586014
3385.861402	41711.249650
3386.904709	41659.378322
3387.946427	41659.183916
3388.988003	41675.976923
3390.029438	41682.521678
3391.069285	41736.894406
3392.107543	41767.061538
3393.147109	41869.275524
3394.186535	41900.576923
3395.224373	41898.083916
3396.260624	41887.896503
3397.296736	41861.659441
3398.334155	41844.924476
3399.368541	41792.213986
3400.404234	41784.230070
3401.439788	41818.379021
3402.472311	41860.211888
3403.507587	41934.623776
3404.539832	41954.039860
3405.571939	42044.004895
3406.602462	42095.683217
3407.634292	42113.017483
3408.665984	42113.157343
3409.694648	42133.471329
3410.723175	42104.809091
3411.753008	42032.688112
3412.782704	42009.336364
3413.809374	41993.497902
3414.837351	42027.123776
3415.862303	42024.878322
3416.890005	42060.072727
3417.914684	42083.993007
3418.940669	42120.328671
3419.965074	42153.812587
3420.989343	42138.325874
3422.012033	42140.938462
3423.034587	42036.461538
3424.058447	41940.339860
3425.079287	41837.462238
3426.099991	41740.260839
3427.122002	41662.774376
3428.140994	41616.971728
3429.159850	41614.821778
3430.180013	41668.293407
3431.197159	41789.355495
