-118.059454	60.546154
-115.389854	59.317582
-112.723189	59.047153
-110.057276	59.474026
-107.394295	60.337363
-104.729885	61.376324
-102.068405	62.330070
-99.405496	61.472727
-96.747693	61.767832
-94.088461	61.095804
-91.429977	58.913287
-88.774417	60.408392
-86.117429	61.151748
-83.465539	59.098601
-80.812218	61.046154
-78.161818	62.305594
-75.509988	64.827273
-72.863249	62.120979
-70.215081	58.387413
-67.567655	56.873427
-64.923143	55.123077
-62.277203	51.245455
-59.636344	51.169231
-56.994056	51.173427
-54.354677	51.516084
-51.713868	50.404895
-49.073800	51.909091
-46.438804	56.021678
-43.802380	58.062937
-41.168858	58.491608
-38.533908	61.013287
-35.904023	61.298601
-33.270546	61.741259
-30.642131	61.344056
-28.014450	62.268531
-25.385340	61.067832
-22.761287	57.450350
-20.133645	37.324476
-17.511056	11.619580
-14.889199	34.362937
-12.268072	152.476224
-9.647675	312.587413
-7.030167	440.368531
-4.411230	522.473427
-1.795178	564.765734
0.820145	565.381818
3.434741	523.856643
6.046454	440.939161
8.659596	320.437762
11.267704	174.397902
13.879394	43.093007
16.486053	-3.925175
19.094140	32.012587
21.701503	69.042657
24.303841	76.403497
26.909757	75.227273
29.510651	77.129371
32.112973	79.199301
34.710278	82.374825
37.311158	82.426573
39.907023	82.610490
42.504317	80.578322
45.100891	78.100000
47.692456	79.556643
50.285449	77.441958
52.875581	77.111888
55.467141	78.974126
58.055841	75.972727
60.645968	78.648951
63.231096	79.131469
65.817652	83.616783
68.403494	84.632168
70.986482	85.023776
73.570896	86.329371
76.148182	90.459441
78.729034	91.416783
81.307037	92.078322
83.884330	98.123776
86.463049	101.402797
89.036786	103.369231
91.611951	108.974126
94.184272	111.992308
96.755885	118.539860
99.324658	124.083217
101.894858	126.653846
104.462220	132.487413
107.031007	141.143357
109.596958	151.217483
112.160074	166.202098
114.726746	190.123776
117.284197	220.979021
119.847333	279.964336
122.405509	382.761538
124.967240	573.773427
127.524014	909.402797
130.082215	1447.218881
132.635462	2199.490210
135.188012	3206.102098
137.744112	4397.946154
140.295264	5690.730070
142.845719	7006.170629
145.395476	8242.047552
147.942414	9284.981818
150.488657	10111.616084
153.036325	10656.405594
155.583297	10981.455944
158.125334	11129.651748
160.666677	11164.810490
163.207327	11143.071329
165.749403	11121.541259
168.288667	11092.755245
170.825123	11064.797203
173.360887	11064.100000
175.898077	11061.602797
178.434576	11055.464336
180.968269	11070.135664
183.499158	11072.891608
186.029360	11095.716084
188.560986	11114.691608
191.089811	11134.089510
193.615837	11162.650350
196.141177	11188.211888
198.667942	11198.521678
201.191911	11197.086014
203.715195	11192.567832
206.237794	11180.599301
208.757600	11165.678322
211.276723	11167.282517
213.795163	11164.684615
216.315027	11173.066434
218.827890	11191.190210
221.344284	11197.995804
223.859996	11219.768531
226.370818	11241.348252
228.883065	11260.305594
231.392530	11260.602797
233.901316	11263.218182
236.409423	11261.782517
238.918955	11256.327972
241.423606	11257.516084
243.927581	11246.437063
246.432980	11251.599301
248.933504	11249.104895
251.437552	11240.513287
253.934628	11244.711888
256.435228	11252.690210
258.933056	11259.235664
261.430211	11247.569930
263.926693	11245.825874
266.418312	11233.816783
268.913451	11214.016783
271.405823	11188.834266
273.897525	11170.397203
276.386464	11143.231469
278.876827	11113.258741
281.364427	11096.002797
283.849268	11070.041259
286.337624	11058.037063
288.819040	11041.731469
291.303970	11044.050350
293.784055	11032.713986
296.267652	11027.963636
298.746406	11024.630769
301.226584	11022.896503
303.704009	11023.123077
306.180771	11019.684615
308.656870	11018.216084
311.130220	11031.533566
313.602908	11038.698601
316.074935	11056.344755
318.546301	11076.579021
321.014922	11100.382517
323.482885	11125.395105
325.952269	11147.714685
328.416831	11156.867133
330.884897	11180.171329
333.348143	11199.262238
335.810731	11224.560839
338.272663	11242.942657
340.733938	11271.877622
343.192479	11281.681119
345.652442	11281.529371
348.109672	11285.104895
350.566248	11282.490909
353.022170	11273.285315
355.475362	11232.828671
357.929977	11183.132867
360.379790	11145.631469
362.833099	11097.497203
365.281610	11049.056643
367.729469	11021.142657
370.178751	10976.534266
372.623239	10946.276224
375.069149	10924.360839
377.514409	10912.848951
379.956951	10913.132867
382.398845	10909.037063
384.840092	10904.033566
387.278623	10909.946154
389.718576	10914.678322
392.155815	10928.555944
394.590342	10946.602797
397.028357	10975.867133
399.461595	10985.624476
401.896254	11012.906993
404.326141	11039.373427
406.759513	11070.376923
409.188115	11093.448252
411.616075	11114.847552
414.045457	11137.897203
416.470073	11166.339860
418.896111	11187.472028
421.321508	11200.662238
423.746265	11215.588112
426.166264	11213.637762
428.587684	11220.980420
431.006407	11209.664336
433.426551	11213.644056
435.844000	11198.905594
438.262869	11179.240559
440.679045	11173.169930
443.090473	11176.312587
445.505379	11189.024476
447.917594	11213.730769
450.329175	11229.581818
452.740122	11259.678322
455.148383	11283.465035
457.556011	11311.609790
459.963007	11316.690909
462.369372	11342.965035
464.773054	11342.367832
467.176106	11352.304895
469.578528	11358.953147
471.980320	11370.723776
474.379435	11379.981818
476.779969	11381.620280
479.179874	11362.834266
481.575056	11362.783916
483.973705	11334.634266
486.367634	11307.221678
488.760937	11280.065035
491.153614	11263.128671
493.545666	11223.615385
495.939136	11196.204196
498.327894	11178.838462
500.713986	11158.566434
503.101498	11126.034266
505.488387	11094.238462
507.872612	11072.309091
510.258255	11065.450350
512.641237	11041.686713
515.021558	11037.197902
517.403298	11034.251748
519.782379	11042.411189
522.162879	11047.684615
524.540721	11065.950350
526.915908	11082.718881
529.290477	11080.818182
531.666464	11092.846154
534.039799	11085.052448
536.414551	11092.686713
538.784618	11091.419580
541.154069	11081.353846
543.524938	11068.652448
545.891127	11052.286014
548.258734	11047.021678
550.623695	11042.536364
552.988043	11047.083916
555.351778	11035.424476
557.716931	11022.078322
560.077412	11011.667133
562.439311	10980.367133
564.798569	10982.627273
567.155190	10981.716783
569.515255	10969.200000
571.868629	10967.944056
574.225448	10962.801399
576.579632	10969.944755
578.933208	10977.927273
581.286175	10982.946154
583.636510	10971.534965
585.988263	10960.245455
588.333339	10941.960839
590.683879	10927.509091
593.027745	10911.181119
595.377073	10886.402098
597.721752	10863.367133
600.063807	10844.806294
602.407279	10826.173427
604.748128	10814.979720
607.088375	10784.559441
609.426001	10765.333566
611.767062	10742.434965
614.103485	10722.727273
616.441325	10715.445455
618.776548	10701.518182
621.109155	10679.456643
623.443178	10665.272028
625.774587	10658.845455
628.105398	10644.789510
630.435612	10642.594406
632.765227	10638.197902
635.090220	10633.682517
637.420653	10639.648252
639.746466	10642.260839
642.069671	10645.182517
644.394293	10657.935664
646.716309	10667.618881
649.037731	10681.555944
651.356551	10687.527273
653.676786	10686.769930
655.996428	10697.976224
658.313469	10704.093007
660.629918	10717.395105
662.943769	10735.155944
665.259036	10738.697902
667.571706	10737.313287
669.885791	10734.327972
672.195276	10742.336364
674.506177	10757.514685
676.814485	10765.281119
679.122205	10772.137063
681.431339	10777.513986
683.735881	10793.288112
686.039837	10794.553147
688.343207	10798.932168
690.647991	10813.793007
692.948189	10826.687413
695.249801	10827.796503
697.550829	10825.913287
699.847274	10801.593007
702.145135	10783.834965
704.442412	10763.647552
706.739106	10759.116783
709.031224	10732.258042
711.326753	10721.848951
713.617708	10704.774126
715.910078	10714.870629
718.199873	10740.279021
720.489087	10754.191608
722.777722	10774.648252
725.063784	10790.977622
727.351261	10791.045455
729.636166	10805.687413
731.920494	10814.720979
734.202253	10818.634965
736.485426	10821.575524
738.768022	10840.088112
741.046062	10852.820979
743.325517	10873.488112
745.604395	10873.767832
747.882699	10883.274126
750.156453	10898.392308
752.431620	10905.211888
754.706214	10908.006993
756.978249	10901.823077
759.251697	10885.814685
761.522587	10888.969231
763.790921	10903.008392
766.060668	10916.900699
768.327861	10925.481818
770.594483	10926.474825
772.860535	10919.208392
775.124036	10916.613287
777.388950	10908.786713
779.653294	10902.173427
781.913109	10892.160140
784.174336	10892.909790
786.434996	10894.655944
788.693110	10908.656643
790.948679	10916.958042
793.207639	10916.137762
795.460100	10913.159441
797.717927	10895.896503
799.971236	10875.720979
802.222005	10841.932168
804.474186	10821.960839
806.723828	10795.268531
808.974883	10782.482517
811.221426	10780.069930
813.469381	10768.790909
815.714802	10762.946154
817.961634	10750.841259
820.207905	10730.642657
822.449671	10706.227972
824.694821	10681.116084
826.933498	10655.634965
829.175557	10596.406993
831.413118	10564.216783
833.652091	10543.506294
835.888537	10540.565035
838.126394	10547.827972
840.361726	10569.593706
842.594535	10601.066434
844.828755	10633.810490
847.060452	10667.725874
849.291595	10697.925874
851.522183	10729.445455
853.752217	10739.055944
855.981697	10722.950350
858.206695	10733.060839
860.435068	10725.966434
862.658961	10709.564336
864.884266	10691.505594
867.105095	10677.344755
869.329296	10672.497902
871.549024	10661.757343
873.770162	10636.399301
875.990750	10630.038462
878.208829	10623.853147
880.428317	10616.993007
882.643339	10596.994406
884.857814	10608.932867
887.071740	10591.183217
889.285120	10589.262238
891.497952	10581.237063
893.710238	10587.988112
895.920021	10589.080420
898.129259	10569.781119
900.337952	10574.612587
902.544146	10592.074126
904.751749	10606.968531
906.956854	10617.159441
909.161416	10622.095105
911.363483	10648.558042
913.566959	10676.963636
915.767941	10713.189510
917.968381	10737.825874
920.170230	10768.952448
922.365688	10790.422378
924.564505	10818.802098
926.758883	10868.729371
928.956619	10900.396503
931.149919	10927.800699
933.344628	10947.165035
935.536851	10963.865734
937.728535	10986.866434
939.919682	11005.439860
942.108346	11023.221678
944.296474	11031.576224
946.482121	11053.692308
948.671120	11086.203497
950.855696	11121.252448
953.039737	11157.113287
955.227128	11191.913287
957.406215	11224.948252
959.588653	11273.403497
961.770557	11320.946853
963.949986	11367.953147
966.126943	11408.513986
968.305308	11455.488112
970.485080	11484.971329
972.658503	11516.376224
974.835272	11563.168531
977.007634	11595.764336
979.181404	11641.314685
981.350770	11666.940559
983.523480	11707.649650
985.693725	11761.465734
987.863441	11807.571329
990.032628	11865.579720
992.197418	11921.323776
994.365549	11999.375524
996.529286	12046.429371
998.694429	12094.691608
1000.857113	12145.330070
1003.019272	12192.270629
1005.178974	12232.266434
1007.338151	12248.713986
1009.498735	12277.925874
1011.656865	12292.873427
1013.814470	12301.744056
1015.971552	12326.598601
1018.128110	12347.381818
1020.280289	12404.544755
1022.433875	12445.955944
1024.586939	12503.423776
1026.737554	12563.106294
1028.889576	12653.004196
1031.037224	12731.927273
1033.188204	12816.267133
1035.334813	12875.232168
1037.480903	12922.139860
1039.626475	12950.806294
1041.773452	12976.822378
1043.914140	12993.866434
1046.058158	13027.475524
1048.199735	13053.148951
1050.340796	13074.823077
1052.483261	13084.202797
1054.619447	13104.430070
1056.758958	13104.452448
1058.894115	13102.728671
1061.032596	13083.300000
1063.166723	13051.934266
1065.300337	13029.428671
1067.435356	12996.277622
1069.566025	12959.820280
1071.698099	12930.033566
1073.827744	12888.708392
1075.956877	12853.309790
1078.085498	12798.710490
1080.213608	12754.820979
1082.339292	12698.688112
1084.464466	12638.876923
1086.591044	12572.652448
1088.713284	12504.348252
1090.836929	12450.432867
1092.956239	12370.908392
1095.080779	12299.630070
1097.199073	12244.918881
1099.318772	12177.639161
1101.436052	12141.542657
1103.552826	12092.194406
1105.669093	12051.374825
1107.782944	12008.959441
1109.898200	11963.130769
1112.009132	11923.095804
1114.123377	11889.394406
1116.233301	11853.793706
1118.344629	11825.915385
1120.455452	11792.928671
1122.561959	11777.386014
1124.671776	11746.986014
1126.777278	11749.866434
1128.884183	11733.807692
1130.984873	11713.988811
1133.090775	11682.883217
1135.192368	11660.247552
1137.295364	11634.508392
1139.397859	11595.909091
1141.494147	11565.211888
1143.595643	11530.955944
1145.692835	11479.346154
1147.789530	11455.234266
1149.885726	11437.646154
1151.981425	11433.909091
1154.076625	11420.281119
1156.169429	11408.494406
1158.263636	11386.383916
1160.351651	11392.805594
1162.444864	11381.704895
1164.531889	11392.167832
1166.622213	11419.036364
1168.708250	11427.642657
1170.797584	11437.906993
1172.880737	11450.060839
1174.965292	11480.425874
1177.051249	11487.913287
1179.132924	11510.373427
1181.216001	11508.515385
1183.296692	11508.382517
1185.376891	11510.301399
1187.456599	11492.901399
1189.535816	11507.029371
1191.612651	11522.767133
1193.687105	11523.047552
1195.764850	11537.571329
1197.838326	11538.330769
1199.913202	11544.341958
1201.983811	11546.336364
1204.055821	11590.396503
1206.125456	11597.865734
1208.196491	11615.403497
1210.267038	11620.983916
1212.333324	11608.335664
1214.401011	11612.642657
1216.466326	11623.562937
1218.533041	11606.746154
1220.595500	11611.980420
1222.661244	11602.344755
1224.722734	11576.105594
1226.785625	11589.307692
1228.846148	11616.620280
1230.906187	11611.487413
1232.965744	11629.225175
1235.022935	11674.681818
1237.079645	11683.253147
1239.133991	11712.677622
1241.191619	11769.712587
1243.246884	11800.083916
1245.297908	11837.059441
1247.350332	11895.380420
1249.402276	11938.911888
1251.451862	11999.630070
1253.500969	12067.471329
1255.549598	12102.606993
1257.597748	12169.675524
1259.645419	12256.769231
1261.688860	12290.476923
1263.735577	12358.445455
1265.779940	12444.589510
1267.823827	12527.200000
1269.865362	12575.353846
1271.904548	12688.401399
1273.947007	12778.959441
1275.985243	12888.490909
1278.024878	13025.502098
1280.064038	13146.655944
1282.098979	13322.616084
1284.135319	13530.665035
1286.169315	13744.688112
1288.204708	13965.956643
1290.235889	14196.198601
1292.268467	14441.523776
1294.300574	14604.584615
1296.330340	14831.875524
1298.361504	14962.241958
1300.388460	15097.009790
1302.416814	15201.176923
1304.440963	15288.365035
1306.468378	15413.765035
1308.491590	15521.582517
1310.516200	15506.034266
1312.538476	15164.274126
1314.562149	15355.671329
1316.583489	18396.660839
1318.604361	23587.725175
1320.624766	30316.778322
1322.640978	37827.499301
1324.658587	45556.870629
1326.673868	54809.730769
1328.692408	62027.324476
1330.706759	65612.271329
1332.718784	64913.918881
1334.734066	60043.624476
1336.745163	51895.478322
1338.757657	42631.432168
1340.765968	34447.900000
1342.777534	26667.566434
1344.783062	19932.153147
1346.791845	14942.107692
1348.796450	12386.352448
1350.804309	13018.806993
1352.811706	13183.076923
1354.813072	13153.334965
1356.815834	13050.604196
1358.818137	12927.834965
1360.819980	12824.448951
1362.821363	12704.606993
1364.820433	12630.743357
1366.819044	12585.218881
1368.817197	12525.006993
1370.814891	12493.734965
1372.808423	12452.010490
1374.803351	12452.335664
1376.797821	12414.167832
1378.791835	12369.503497
1380.783542	12352.862238
1382.774794	12320.469231
1384.763740	12310.688811
1386.754081	12289.443357
1388.743967	12279.286713
1390.731549	12249.989510
1392.718678	12241.400699
1394.703505	12263.422378
1396.689727	12270.269231
1398.673649	12306.382517
1400.657118	12307.885315
1402.640134	12304.555245
1404.620853	12317.072028
1406.602966	12335.130070
1408.582783	12378.326573
1410.562148	12422.920979
1412.537375	12436.318881
1414.515840	12482.483916
1416.492012	12533.904895
1418.467735	12592.248951
1420.443008	12647.069231
1422.415990	12699.102797
1424.388524	12730.360140
1426.360610	12785.483217
1428.332249	12823.466434
1430.299759	12875.253846
1432.272343	12918.276224
1434.237122	12965.482517
1436.206972	12990.757343
1438.172699	13023.896503
1440.139818	13042.346853
1442.104654	13055.381818
1444.065370	13066.289510
1446.031154	13058.872028
1447.990983	13086.008392
1449.952206	13110.545455
1451.914821	13121.669231
1453.873321	13152.820979
1455.831378	13173.279720
1457.788994	13195.870629
1459.746167	13210.983916
1461.701065	13226.023776
1463.657356	13242.525175
1465.611372	13245.376923
1467.564947	13239.358741
1469.516250	13238.765035
1471.468946	13238.267133
1473.419369	13200.730070
1475.369354	13180.562238
1477.318900	13163.256643
1479.266177	13134.332867
1481.211186	13112.841259
1483.157588	13099.328671
1485.103552	13079.407692
1487.049079	13063.448951
1488.992340	13054.979720
1490.935166	13041.097902
1492.875728	13029.099301
1494.817681	13007.302098
1496.757372	12995.076923
1498.696629	12999.493706
1500.635450	12989.605594
1502.572012	12980.220280
1504.509965	12994.286713
1506.445659	12988.706294
1508.380920	12982.044755
1510.313925	13002.161538
1512.246497	13029.624476
1514.178637	13034.445455
1516.110345	13047.713986
1518.039799	13083.528671
1519.970644	13111.602098
1521.901057	13143.787413
1523.827398	13168.821678
1525.755130	13203.260839
1527.680611	13231.263636
1529.605663	13257.244056
1531.530286	13287.034266
1533.454480	13343.267832
1535.376426	13379.806993
1537.299763	13384.867832
1539.220853	13403.970629
1541.139700	13421.998601
1543.059935	13428.710490
1544.977928	13439.705594
1546.895494	13439.393007
1548.810818	13445.857343
1550.727532	13441.565734
1552.640191	13441.790909
1554.556054	13471.167133
1556.469677	13481.167133
1558.381062	13491.496503
1560.293837	13499.460839
1562.202562	13527.559441
1564.112676	13538.472028
1566.022367	13580.884615
1567.931635	13583.840559
1569.838669	13584.225874
1571.743470	13602.875524
1573.649660	13617.174825
1575.553618	13621.482517
1577.457155	13638.325175
1579.360272	13639.358042
1581.261159	13641.519580
1583.163435	13641.370629
1585.063483	13637.371329
1586.964918	13637.274825
1588.862320	13648.413986
1590.759303	13627.688112
1592.655868	13631.437762
1594.553821	13660.613287
1596.445939	13661.960140
1598.341250	13671.467133
1600.236144	13682.169930
1602.128816	13716.144056
1604.021071	13725.319580
1605.911107	13760.295804
1607.800727	13802.959441
1609.689932	13847.376224
1611.578722	13894.854545
1613.465294	13958.544755
1615.353254	13997.955245
1617.237197	14035.792308
1619.122527	14067.642657
1621.007444	14088.837762
1622.890147	14105.351748
1624.774237	14120.192308
1626.654315	14135.665035
1628.535781	14140.337063
1630.415036	14155.166434
1632.295677	14168.160140
1634.170514	14196.452448
1636.050332	14226.700000
1637.926146	14226.983916
1639.801549	14251.753846
1641.678338	14294.776224
1643.549331	14287.444056
1645.423505	14304.125175
1647.293680	14289.567832
1649.167037	14258.447552
1651.038190	14223.434266
1652.907141	14210.479021
1654.777477	14198.425874
1656.643821	14155.288112
1658.511550	14173.372727
1660.377080	14157.041958
1662.243996	14150.648951
1664.106923	14152.626573
1665.971235	14154.730070
1667.833351	14150.965734
1669.695062	14141.058042
1671.558159	14137.034266
1673.419060	14140.148252
1675.277769	14155.558741
1677.136074	14154.936364
1678.995764	14173.559441
1680.849686	14215.407692
1682.706782	14226.246853
1684.563475	14229.288112
1686.416191	14249.196503
1688.272079	14248.398601
1690.123993	14253.929371
1691.975506	14267.801399
1693.826618	14258.414685
1695.677330	14242.108392
1697.527641	14205.614685
1699.375767	14193.188811
1701.225278	14170.764336
1703.069040	14127.055944
1704.917751	14078.251049
1706.760716	14022.686713
1708.606848	13995.962937
1710.449017	13936.981119
1712.294352	13918.623077
1714.133946	13889.183916
1715.974924	13843.314685
1717.817285	13814.218182
1719.655690	13797.430769
1721.495478	13801.116084
1723.333091	13764.174825
1725.170308	13742.163636
1727.005352	13694.910490
1728.841779	13665.126573
1730.676034	13634.820280
1732.509894	13589.309790
1734.343360	13563.423077
1736.172881	13524.353846
1738.005560	13460.906993
1739.834295	13409.679021
1741.666187	13362.465734
1743.494137	13299.306993
1745.321696	13244.014685
1747.148862	13200.533566
1748.975637	13137.765734
1750.802020	13085.958042
1752.624467	13037.046853
1754.450069	13004.914685
1756.271736	12956.262238
1758.094785	12910.248252
1759.915672	12856.677622
1761.736171	12783.146853
1763.558051	12737.107692
1765.374231	12694.253147
1767.193563	12658.376224
1769.008968	12634.042657
1770.827523	12597.204895
1772.642153	12579.063636
1774.456396	12566.572028
1776.270253	12548.979720
1778.083723	12526.952448
1779.895040	12522.669930
1781.707737	12505.145455
1783.520049	12481.001399
1785.328443	12484.545455
1787.138217	12452.214685
1788.944077	12430.766434
1790.753082	12411.293007
1792.558174	12389.843357
1794.364647	12368.141958
1796.170736	12359.006294
1797.972914	12334.860140
1799.778237	12317.379720
1801.579651	12307.743357
1803.382445	12295.995105
1805.181333	12274.957343
1806.981602	12263.400000
1808.781489	12235.936364
1810.579234	12223.244056
1812.376599	12200.230070
1814.173584	12195.544755
1815.970188	12182.099301
1817.764653	12184.803497
1819.560497	12174.481119
1821.350686	12165.874825
1823.145772	12157.544056
1824.935206	12135.432168
1826.727776	12114.416084
1828.518211	12112.109091
1830.306512	12112.144755
1832.097948	12102.606294
1833.883738	12086.409091
1835.670908	12085.548252
1837.455946	12082.036364
1839.244118	12080.895105
1841.028404	12087.700699
1842.810560	12072.286014
1844.594096	12071.303497
1846.375503	12062.442657
1848.158289	12073.363636
1849.937194	12067.716084
1851.717479	12065.933566
1853.495637	12056.025175
1855.275174	12028.460839
1857.052586	12023.692308
1858.827874	12010.051049
1860.604540	12004.975524
1862.379084	12018.351748
1864.155006	12000.292308
1865.925307	12027.034965
1867.698736	12043.619580
1869.470045	12066.964336
1871.240983	12072.165035
1873.013299	12095.042657
1874.780001	12116.421678
1876.549829	12129.053846
1878.315793	12156.253846
1880.084880	12158.711888
1881.850106	12176.116783
1883.614964	12175.362238
1885.381199	12168.891608
1887.143575	12167.239860
1888.905584	12171.953846
1890.667225	12170.170629
1892.428500	12165.015385
1894.189407	12173.560140
1895.949948	12190.231469
1897.708379	12207.367133
1899.466444	12230.728671
1901.222402	12267.469231
1902.979736	12296.474825
1904.736705	12325.326573
1906.491567	12376.004895
1908.244325	12394.480420
1909.996718	12440.959441
1911.750488	12474.320979
1913.502154	12508.997203
1915.251718	12543.326573
1917.002657	12577.430769
1918.753234	12620.320979
1920.499971	12671.858741
1922.248085	12736.400699
1923.994099	12769.894406
1925.741488	12814.462937
1927.486780	12867.169231
1929.229974	12896.410490
1930.974543	12957.479021
1932.717017	13002.934965
1934.459130	13061.014685
1936.200883	13120.792657
1937.942276	13188.711189
1939.681576	13271.554196
1941.420517	13347.167832
1943.159099	13406.925524
1944.895590	13451.254545
1946.631723	13498.001748
1948.369230	13541.719580
1950.102915	13582.170979
1951.837975	13640.407692
1953.570946	13668.596853
1955.303561	13725.474825
1957.035820	13766.644406
1958.767722	13813.662238
1960.497538	13865.909790
1962.225269	13915.605594
1963.954375	13953.348252
1965.683126	13984.825874
1967.409793	14017.492308
1969.136106	14058.320979
1970.863792	14098.399301
1972.585942	14150.781818
1974.311193	14193.236364
1976.032637	14247.113287
1977.757182	14291.007692
1979.479646	14321.511189
1981.198308	14359.349650
1982.920068	14401.457343
1984.638026	14424.078322
1986.357357	14459.116084
1988.072889	14497.973427
1989.793241	14540.084615
1991.509795	14572.735664
1993.222552	14624.526573
1994.938405	14669.850350
1996.652186	14723.436364
1998.365617	14772.707692
2000.076977	14808.165734
2001.789709	14871.526573
2003.498651	14923.001399
2005.210685	14967.896503
2006.917211	15022.741958
2008.626828	15043.415385
2010.334379	15078.271329
2012.041581	15113.893007
2013.746718	15132.901399
2015.451509	15154.341958
2017.157671	15186.971329
2018.860051	15216.230769
2020.563802	15244.795105
2022.265491	15267.764336
2023.966835	15278.683916
2025.667833	15286.567832
2027.366770	15298.333566
2029.067079	15306.861538
2030.763613	15321.737762
2032.461518	15351.881818
2034.157364	15357.709091
2035.856296	15394.877622
2037.549742	15425.905594
2039.244559	15436.386713
2040.939034	15457.938462
2042.629740	15452.844056
2044.323530	15456.440559
2046.013553	15437.672727
2047.704947	15426.865734
2049.394288	15400.186014
2051.084999	15354.348951
2052.771947	15364.155944
2054.458556	15341.393007
2056.146534	15357.151748
2057.830753	15349.313287
2059.516343	15347.681119
2061.201593	15360.345455
2062.884794	15355.143357
2064.569366	15355.461538
2066.248475	15344.969231
2067.932369	15337.280420
2069.610802	15331.053147
2071.292313	15315.261538
2072.970072	15343.653147
2074.647495	15342.430769
2076.326287	15355.098601
2078.003037	15350.993706
2079.677745	15357.004196
2081.353822	15356.309790
2083.027859	15361.170629
2084.701560	15352.550350
2086.374926	15356.609790
2088.046253	15359.599301
2089.717246	15373.673427
2091.387905	15362.800000
2093.058230	15384.987413
2094.728221	15380.130769
2096.396176	15391.165035
2098.063798	15407.188112
2099.729385	15448.122378
2101.396341	15496.206993
2103.061264	15543.650350
2104.725855	15570.861538
2106.388414	15597.117483
2108.052341	15637.998601
2109.714237	15671.961538
2111.375803	15693.548252
2113.037037	15726.080420
2114.696243	15736.818881
2116.355118	15773.559441
2118.013664	15795.100699
2119.671880	15831.056643
2121.326372	15865.856643
2122.983929	15894.641259
2124.641157	15909.722378
2126.294663	15932.653147
2127.949537	15956.510490
2129.600692	15949.613287
2131.254910	15958.882517
2132.905411	15974.085315
2134.557278	15991.280420
2136.203737	15999.560839
2137.854951	16015.776224
2139.502451	16023.649650
2141.151318	16038.011888
2142.798166	16056.503497
2144.444689	16076.723077
2146.090886	16103.891608
2147.733375	16113.667133
2149.378922	16113.873427
2151.020762	16136.373427
2152.665659	16185.504895
2154.306850	16219.041259
2155.947719	16247.791608
2157.588263	16291.621678
2159.226795	16303.162937
2160.866693	16297.148252
2162.502891	16294.179720
2164.140455	16295.315385
2165.777697	16303.920280
2167.412929	16291.386014
2169.047840	16285.076923
2170.682428	16290.499301
2172.316696	16320.285315
2173.947270	16346.904895
2175.580896	16384.464336
2177.210830	16402.583916
2178.842129	16431.448951
2180.471423	16436.439860
2182.100398	16435.980420
2183.729053	16441.166434
2185.357389	16425.757343
2186.983723	16398.571329
2188.609738	16382.774825
2190.233751	16370.646154
2191.859130	16341.278322
2193.482508	16338.483217
2195.107251	16314.141259
2196.728313	16295.110490
2198.349058	16287.855944
2199.971168	16275.174825
2201.591280	16250.265734
2203.209395	16245.858042
2204.827195	16248.305594
2206.444680	16233.805594
2208.061849	16237.848951
2209.678703	16264.840559
2211.295241	16260.711888
2212.909787	16289.764336
2214.522340	16291.806993
2216.136257	16310.663636
2217.748183	16318.027273
2219.361472	16338.683916
2220.972771	16367.520280
2222.582080	16399.599301
2224.192753	16437.520280
2225.801437	16459.908392
2227.409808	16505.751748
2229.016193	16558.751748
2230.623941	16589.432168
2232.229702	16633.553846
2233.835152	16652.155944
2235.438617	16672.654545
2237.043445	16693.931469
2238.646289	16711.969930
2240.247150	16733.301399
2241.849374	16752.306294
2243.449616	16786.460839
2245.051220	16805.520979
2246.649171	16825.124476
2248.248485	16875.339161
2249.845819	16911.468531
2251.442845	16969.872028
2253.041233	17002.307692
2254.635972	17047.121678
2256.228734	17090.934965
2257.822859	17125.671329
2259.418345	17136.458741
2261.010186	17158.698601
2262.601721	17169.314685
2264.194618	17165.743357
2265.782205	17182.127972
2267.374488	17193.743357
2268.961465	17175.714685
2270.551469	17186.848951
2272.136169	17160.650350
2273.725563	17149.202797
2275.309655	17102.583916
2276.895107	17047.427972
2278.478591	16996.560839
2280.065100	16960.213986
2281.647976	16927.903497
2283.230549	16912.172378
2284.812818	16912.501399
2286.391457	16918.328322
2287.973121	16919.493007
2289.551156	16943.691259
2291.132214	16938.054545
2292.709645	16939.734615
2294.285113	16925.352448
2295.863603	16918.824126
2297.438469	16919.483916
2299.013034	16907.199650
2300.587299	16883.857343
2302.161263	16871.515734
2303.734926	16854.709790
2305.308290	16840.729371
2306.878035	16829.104196
2308.447481	16821.696503
2310.019945	16815.361538
2311.587135	16832.215385
2313.157343	16862.946853
2314.723936	16893.441259
2316.291889	16929.762238
2317.857886	16986.372028
2319.423586	17033.119580
2320.988988	17069.418881
2322.552437	17107.225874
2324.117245	17139.831469
2325.678445	17158.676224
2327.242659	17164.495804
2328.801611	17155.373427
2330.363578	17139.560839
2331.923593	17126.795804
2333.483314	17109.186713
2335.041085	17096.865734
2336.598561	17108.192308
2338.155743	17110.193007
2339.710977	17104.831469
2341.265918	17108.458741
2342.820564	17098.755944
2344.374917	17080.528671
2345.928977	17079.814685
2347.482742	17053.738462
2349.034564	17044.369231
2350.584442	17025.448951
2352.137328	16998.123077
2353.684972	16970.037762
2355.235623	16967.160140
2356.782683	16960.757343
2358.331101	16936.735664
2359.879228	16917.699301
2361.423766	16901.504895
2362.969662	16901.343357
2364.513620	16901.872028
2366.058935	16910.751748
2367.600665	16922.525175
2369.143752	16920.415385
2370.684903	16922.279021
2372.225765	16916.652448
2373.766338	16943.529371
2375.306622	16959.667832
2376.846617	16951.491608
2378.383034	16955.095804
2379.922452	16963.165734
2381.458293	16972.768531
2382.995490	16984.485315
2384.529112	17016.150350
2386.065734	17045.271329
2387.600426	17080.601399
2389.133188	17104.168531
2390.665663	17125.346154
2392.196210	17164.774825
2393.729755	17190.293007
2395.258089	17197.214685
2396.787780	17222.990909
2398.317184	17233.245455
2399.846304	17234.527972
2401.375139	17239.910490
2402.898768	17248.140559
2404.427033	17272.257343
2405.950096	17281.790210
2407.477792	17296.705594
2408.998649	17309.504895
2410.524139	17331.995804
2412.046068	17378.882517
2413.569353	17431.306294
2415.090716	17460.202797
2416.610160	17475.041259
2418.130959	17509.430769
2419.649840	17544.358741
2421.168438	17557.605594
2422.685119	17580.186014
2424.203154	17603.645455
2425.720908	17636.117483
2427.235111	17657.264336
2428.749033	17696.826573
2430.262675	17746.051049
2431.777672	17785.664336
2433.289120	17789.570629
2434.801923	17825.371329
2436.312812	17873.767832
2437.823423	17889.827273
2439.332122	17910.006993
2440.843807	17933.303497
2442.351949	17979.320280
2443.859813	18020.616783
2445.367399	18060.396503
2446.871444	18109.626573
2448.378474	18163.004196
2449.883597	18222.014685
2451.388441	18257.995804
2452.891379	18303.007692
2454.394041	18339.547552
2455.896426	18354.714685
2457.396906	18389.674126
2458.898739	18393.843357
2460.398667	18425.699301
2461.898320	18450.679021
2463.397698	18492.574126
2464.895173	18530.293706
2466.390746	18581.840559
2467.889299	18639.795804
2469.384324	18670.951049
2470.880701	18732.993706
2472.373552	18775.827273
2473.867756	18822.478322
2475.361686	18864.494406
2476.852092	18895.711888
2478.345476	18917.104196
2479.836962	18939.393007
2481.326551	18965.888112
2482.815868	18969.923077
2484.303289	18981.253147
2485.793686	18996.824476
2487.280565	18997.818182
2488.768795	19015.742657
2490.253508	19005.344755
2491.737952	19031.532168
2493.223746	19018.820979
2494.707649	19015.627273
2496.192902	19000.402098
2497.673022	18999.786014
2499.156115	18980.227273
2500.637317	18955.616084
2502.118250	18924.372028
2503.597294	18916.383916
2505.076069	18863.895804
2506.554576	18802.443357
2508.032815	18743.823776
2509.510785	18706.534965
2510.985250	18621.845455
2512.462685	18575.686014
2513.936616	18511.681119
2515.411897	18456.511189
2516.886911	18403.921678
2518.358425	18353.962937
2519.831288	18315.646154
2521.302269	18275.393007
2522.774600	18206.427972
2524.241817	18149.541958
2525.712001	18084.483916
2527.180304	18022.040559
2528.648342	17952.916084
2530.116115	17916.695105
2531.583623	17871.668531
2533.050866	17849.426573
2534.514617	17831.836364
2535.979718	17817.692308
2537.442942	17818.455944
2538.907516	17801.267133
2540.368600	17809.783916
2541.831034	17817.855944
2543.293205	17792.225874
2544.751890	17780.779720
2546.215147	17776.445455
2547.673307	17784.706294
2549.132816	17764.210490
2550.587231	17747.915385
2552.046217	17711.273427
2553.503331	17687.193007
2554.958574	17657.220280
2556.413555	17624.666434
2557.866668	17634.981818
2559.321129	17642.704895
2560.773720	17636.495804
2562.226052	17663.400000
2563.676517	17679.878322
2565.129937	17725.897902
2566.578275	17745.318881
2568.029569	17796.934266
2569.478996	17821.318881
2570.924951	17865.724476
2572.373861	17889.035664
2573.819301	17917.787413
2575.266088	17937.021678
2576.711013	17944.078322
2578.155679	17934.516783
2579.601693	17941.213287
2581.044241	17905.177622
2582.488136	17893.306294
2583.928566	17888.097203
2585.370343	17904.497203
2586.810261	17910.967832
2588.251526	17943.082517
2589.689329	17980.857343
2591.130082	17992.087413
2592.565773	18032.237762
2594.004413	18051.174825
2595.441195	18081.681119
2596.876122	18125.779720
2598.313996	18119.306294
2599.746813	18144.037762
2601.180977	18151.099301
2602.613287	18174.093706
2604.046943	18192.025874
2605.478746	18205.751049
2606.910295	18217.032867
2608.341592	18190.948951
2609.771036	18200.116783
2611.200228	18178.188811
2612.627570	18206.514685
2614.056257	18196.032867
2615.484693	18195.541259
2616.909681	18215.020280
2618.336016	18214.503497
2619.760502	18273.288811
2621.186334	18287.849650
2622.608722	18317.237063
2624.032456	18334.258741
2625.454343	18327.202797
2626.875981	18366.893007
2628.295773	18382.353147
2629.716911	18423.916084
2631.137799	18425.741259
2632.555249	18462.758741
2633.975638	18496.386014
2635.392590	18510.442657
2636.809293	18559.499301
2638.225748	18564.062238
2639.641955	18590.464336
2641.057914	18591.479021
2642.472032	18585.929371
2643.885902	18608.785315
2645.297934	18621.594406
2646.711309	18653.086713
2648.121255	18691.493007
2649.534137	18730.034266
2650.943590	18790.339161
2652.352797	18822.018182
2653.760168	18877.245455
2655.170473	18919.944755
2656.578943	18959.168531
2657.985577	18997.651748
2659.391966	19008.150350
2660.796521	19025.227972
2662.202420	19067.632867
2663.606486	19087.574825
2665.010307	19153.116084
2666.413884	19187.469231
2667.815630	19225.375524
2669.218719	19232.730769
2670.618390	19255.241259
2672.019405	19278.451049
2673.417004	19272.082517
2674.817533	19279.361538
2676.214646	19258.835664
2677.613103	19247.567133
2679.009733	19264.363636
2680.406120	19274.740559
2681.802265	19314.502797
2683.196585	19337.090210
2684.592246	19343.071329
2685.984499	19388.962238
2687.378094	19424.887413
2688.769865	19433.975524
2690.162979	19411.440559
2691.554269	19418.515385
2692.943736	19419.837063
2694.332963	19421.604895
2695.721951	19433.581818
2697.112280	19435.457343
2698.497626	19461.743357
2699.885895	19484.739161
2701.272344	19475.862937
2702.658554	19527.321678
2704.044525	19528.639860
2705.427098	19530.404196
2706.811013	19562.611189
2708.194690	19588.437063
2709.578128	19638.599301
2710.958172	19680.625175
2712.339556	19721.032168
2713.719126	19766.196503
2715.100036	19827.101399
2716.479132	19877.597902
2717.856414	19902.486713
2719.235037	19962.544755
2720.611847	19996.657343
2721.988420	20036.518881
2723.364758	20088.521678
2724.739285	20094.996503
2726.115152	20143.262238
2727.487632	20152.755944
2728.863028	20174.351049
2730.233464	20202.582517
2731.605241	20236.060140
2732.976783	20285.150350
2734.346517	20337.248951
2735.717592	20407.425175
2737.086858	20454.416783
2738.455891	20493.032168
2739.823118	20556.404895
2741.190112	20581.274126
2742.556872	20636.186713
2743.923401	20671.060140
2745.288124	20740.544755
2746.652615	20782.616084
2748.016875	20824.593706
2749.380902	20875.058741
2750.744698	20938.831469
2752.105120	20987.222378
2753.468452	20973.369930
2754.826842	20980.329371
2756.188142	20966.348951
2757.546072	20952.806294
2758.906910	20948.706993
2760.265949	20927.648951
2761.621619	20930.982517
2762.980197	20931.411888
2764.335408	20961.666434
2765.690390	20990.861538
2767.043576	21051.088811
2768.399668	21076.537063
2769.752395	21097.098601
2771.104895	21129.956643
2772.457166	21155.635664
2773.810776	21202.978322
2775.161024	21222.525175
2776.509478	21239.239161
2777.860838	21289.890210
2779.208838	21328.768531
2780.558176	21372.963636
2781.905722	21390.283217
2783.253042	21422.153147
2784.600135	21404.794406
2785.945437	21411.144755
2787.290512	21413.276923
2788.635362	21437.415385
2789.979986	21442.327972
2791.321258	21469.706294
2792.663868	21505.156643
2794.006252	21580.093007
2795.348411	21643.154545
2796.687221	21729.590210
2798.028931	21807.267832
2799.367293	21862.908392
2800.706991	21892.768531
2802.044905	21944.207692
2803.381034	21984.939860
2804.716939	22016.189510
2806.054182	22051.125175
2807.389641	22104.419580
2808.724877	22119.737063
2810.058330	22185.553846
2811.393120	22239.963636
2812.724570	22278.836364
2814.058915	22303.815385
2815.388362	22306.152448
2816.719146	22337.783916
2818.049708	22363.331469
2819.378491	22371.043357
2820.708610	22394.348252
2822.036951	22433.829371
2823.365071	22462.822378
2824.691413	22469.679021
2826.019092	22508.160839
2827.343437	22523.693706
2828.669119	22497.883916
2829.993025	22475.417483
2831.316712	22470.601399
2832.641734	22455.327972
2833.963426	22458.836364
2835.284900	22441.627972
2836.606155	22459.724476
2837.927191	22461.477622
2839.246454	22473.604895
2840.567053	22481.264336
2841.885881	22494.616783
2843.204490	22485.444755
2844.521328	22476.335664
2845.837949	22456.102797
2847.154353	22474.667133
2848.468987	22484.735664
2849.784957	22521.313986
2851.097606	22544.759441
2852.411590	22585.966434
2853.725358	22604.947552
2855.038909	22622.897902
2856.350694	22667.650350
2857.660712	22683.155944
2858.972065	22688.186713
2860.280103	22720.225175
2861.589475	22734.403497
2862.898633	22794.202098
2864.207575	22832.441958
2865.514753	22862.867832
2866.820169	22915.986713
2868.126919	22956.830070
2869.431906	22972.257343
2870.736680	23001.762937
2872.039692	23068.067832
2873.345585	23062.921678
2874.646624	23113.779720
2875.948997	23130.279720
2877.249610	23141.181818
2878.551557	23139.239161
2879.853290	23139.111888
2881.151720	23136.832168
2882.451483	23129.790210
2883.749489	23100.255944
2885.047283	23063.009790
2886.343321	23069.089510
2887.640692	23061.174126
2888.936307	23046.055944
2890.231711	23074.208392
2891.526904	23029.741259
2892.818800	23026.166434
2894.113572	22991.233566
2895.405047	22997.293706
2896.697855	22971.273427
2897.990453	22933.908392
2899.279757	22903.114685
2900.570393	22888.586014
2901.859278	22881.342657
2903.149495	22881.476923
2904.436421	22886.992308
2905.724679	22890.588811
2907.011188	22883.779720
2908.297489	22906.158042
2909.583581	22877.100699
2910.867925	22879.163636
2912.155140	22833.685315
2913.437529	22816.769231
2914.721250	22795.874126
2916.003225	22808.653846
2917.284992	22835.404196
2918.565015	22854.517483
2919.847907	22873.946154
2921.129054	22894.274126
2922.406919	22932.103497
2923.687653	22929.370629
2924.965106	22907.713986
2926.242353	22900.958741
2927.517858	22853.253147
2928.796231	22827.856643
2930.069790	22789.090210
2931.346216	22789.881119
2932.620901	22788.706993
2933.893845	22764.848951
2935.168121	22764.548951
2936.440657	22750.747552
2937.712988	22751.120280
2938.982047	22741.800699
2940.253971	22742.103497
2941.524157	22717.359441
2942.794139	22691.994406
2944.063918	22679.933566
2945.331961	22688.051748
2946.598267	22692.467133
2947.864372	22677.692308
2949.131806	22678.813986
2950.397506	22661.162238
2951.663003	22678.048252
2952.928298	22651.543357
2954.190328	22682.119580
2955.453688	22665.500699
2956.716847	22642.379021
2957.978274	22646.327273
2959.241030	22663.920280
2960.502054	22682.798601
2961.761348	22685.986713
2963.020442	22683.862238
2964.279335	22678.727273
2965.538028	22650.151049
2966.796521	22679.387413
2968.053285	22659.011888
2969.309849	22713.304895
2970.564686	22723.418881
2971.820851	22744.449650
2973.073762	22770.400000
2974.328002	22803.606993
2975.582043	22791.011888
2976.834358	22802.930070
2978.086474	22810.047552
2979.336866	22816.179720
2980.590113	22815.729371
2981.838583	22829.017483
2983.089908	22828.424476
2984.337983	22840.400699
2985.585862	22852.874825
2986.833543	22843.994406
2988.081027	22841.317483
2989.326790	22828.341958
2990.572357	22809.183916
2991.819251	22830.553846
2993.062901	22859.225874
2994.307879	22912.757343
2995.549613	22930.958741
2996.794199	22933.107692
2998.037066	22967.719580
2999.276692	22976.600000
3000.519168	23018.601399
3001.758404	23011.954545
3002.998968	23040.500699
3004.237816	23058.173427
3005.476468	23075.194406
3006.713406	23109.490909
3007.951670	23122.369930
3009.188219	23165.070629
3010.424575	23189.448951
3011.660737	23205.372028
3012.895185	23216.822378
3014.129441	23193.361538
3015.363503	23188.256643
3016.595853	23179.416783
3017.826491	23190.596503
3019.059975	23181.005594
3020.291747	23181.383217
3021.521809	23205.545455
3022.751679	23230.400699
3023.979839	23267.259441
3025.209325	23305.903497
3026.437102	23301.360140
3027.664688	23290.521678
3028.893601	23285.236364
3030.117771	23276.941259
3031.344784	23303.937063
3032.568573	23305.265035
3033.793689	23309.240559
3035.017098	23334.779720
3036.240317	23360.251049
3037.461831	23371.360839
3038.686186	23393.562937
3039.905806	23417.698601
3041.126752	23399.734965
3042.347509	23418.472028
3043.566562	23446.932867
3044.786940	23462.537063
3046.004102	23482.534965
3047.222590	23521.787413
3048.439375	23522.385315
3049.655973	23513.069231
3050.872382	23499.713986
3052.085579	23473.069930
3053.301613	23479.678322
3054.514435	23452.493007
3055.730094	23426.262937
3056.941030	23436.167133
3058.153291	23453.935664
3059.365366	23473.139161
3060.577253	23473.464336
3061.787444	23496.915385
3062.997448	23478.784965
3064.207266	23472.409790
3065.415388	23473.926224
3066.623325	23482.506294
3067.829566	23503.284965
3069.037132	23476.837762
3070.243003	23511.441608
3071.448690	23544.912587
3072.654191	23570.369580
3073.857999	23599.033566
3075.063131	23613.873776
3076.266570	23636.030769
3077.468318	23665.725524
3078.669881	23675.060839
3079.871261	23692.925175
3081.072457	23705.874126
3082.271963	23701.854545
3083.471286	23674.006294
3084.671932	23698.807692
3085.870888	23674.764336
3087.066650	23649.069231
3088.265241	23637.032867
3089.460638	23649.281818
3090.657358	23648.791608
3091.850886	23653.469231
3093.047242	23669.525874
3094.241912	23683.390909
3095.433391	23718.415385
3096.629201	23702.378322
3097.820318	23721.061538
3099.012757	23728.015385
3100.202009	23741.609091
3101.394086	23745.920280
3102.584480	23753.163636
3103.771688	23773.003497
3104.960219	23773.556643
3106.150071	23801.887413
3107.336740	23817.997902
3108.523228	23810.402098
3109.709538	23802.444755
3110.897169	23756.765734
3112.081618	23761.849650
3113.264388	23753.970629
3114.449980	23779.551049
3115.633893	23793.040559
3116.816127	23797.093007
3117.998182	23827.358042
3119.180059	23862.772727
3120.361758	23885.048252
3121.541780	23881.358741
3122.720125	23869.246853
3123.901290	23859.174126
3125.079280	23846.229371
3126.257094	23851.503497
3127.434730	23833.676923
3128.610691	23839.220979
3129.786475	23826.163636
3130.963581	23826.587413
3132.139012	23839.051049
3133.312770	23868.721678
3134.484855	23861.912587
3135.658262	23869.665035
3136.831492	23910.310490
3138.003051	23945.367832
3139.175930	23978.345455
3140.345642	24031.610490
3141.516675	24036.817483
3142.686038	24036.753147
3143.853730	24025.296503
3145.024238	24020.118182
3146.190088	23998.353846
3147.360246	24007.894406
3148.525748	23988.641958
3149.691075	23957.447552
3150.856229	23974.059441
3152.021210	23989.090210
3153.187510	23969.886014
3154.349158	23928.453147
3155.512125	23886.862937
3156.674920	23811.254545
3157.837542	23732.988112
3158.998499	23662.254545
3160.159283	23582.672028
3161.319895	23547.067133
3162.478843	23527.791608
3163.637620	23504.158741
3164.796225	23536.859441
3165.954657	23580.755944
3167.112919	23608.130769
3168.269518	23642.144755
3169.424456	23687.347552
3170.580713	23682.906294
3171.735309	23699.631469
3172.889735	23711.789510
3174.042501	23672.611888
3175.195096	23694.882517
3176.347522	23698.397203
3177.499778	23699.125175
3178.651863	23702.437063
3179.800803	23736.246853
3180.952549	23797.802098
3182.102637	23823.501399
3183.251069	23895.442657
3184.399331	23959.976224
3185.547425	24047.830070
3186.695350	24156.323776
3187.841619	24217.009790
3188.987720	24287.067133
3190.132167	24314.628671
3191.276446	24366.894406
3192.420557	24350.730070
3193.565985	24340.826573
3194.708275	24320.220979
3195.850398	24297.031469
3196.992353	24272.278322
3198.134141	24253.786014
3199.275762	24246.409091
3200.414248	24272.048252
3201.554051	24274.774126
3202.695172	24280.965035
3203.833158	24307.803497
3204.969495	24304.925175
3206.105666	24284.791608
3207.243154	24289.556643
3208.378994	24308.237762
3209.516151	24301.665035
3210.648695	24267.149650
3211.785521	24263.197203
3212.917735	24250.022378
3214.051266	24239.106993
3215.184633	24198.311888
3216.314872	24137.944755
3217.447909	24076.359441
3218.577820	23997.575524
3219.709047	23942.346154
3220.837150	23929.203497
3221.968049	23899.600000
3223.097304	23884.520280
3224.224916	23870.674126
3225.349405	23885.160140
3226.478170	23924.881818
3227.603813	23944.762937
3228.729294	23972.993007
3229.853133	23986.958042
3230.979766	23993.560839
3232.101802	23986.288811
3233.225154	23990.167133
3234.348344	23981.888811
3235.471372	23973.324476
3236.592760	23966.109091
3237.713986	23951.927972
3238.833575	23974.056643
3239.953002	24018.676923
3241.070791	24050.453846
3242.191372	24131.148951
3243.308840	24182.030070
3244.426147	24269.250350
3245.543294	24325.712587
3246.658805	24405.876224
3247.775630	24472.283217
3248.889346	24549.031469
3250.005851	24576.739161
3251.120722	24608.231469
3252.232484	24643.211888
3253.344086	24656.150350
3254.457004	24636.902797
3255.569762	24658.827273
3256.679414	24641.985315
3257.790381	24666.786713
3258.901189	24664.472028
3260.010365	24696.708392
3261.117911	24739.014685
3262.226770	24770.281119
3263.335472	24796.915385
3264.441071	24848.734266
3265.547984	24881.772028
3266.653268	24890.897902
3267.759866	24917.748951
3268.863364	24982.108392
3269.968177	24980.759441
3271.072832	25023.520280
3272.174388	25053.470629
3273.275788	25092.379021
3274.378502	25122.132867
3275.481060	25165.160839
3276.580521	25184.450350
3277.682766	25194.641958
3278.781915	25174.885315
3279.879440	25164.276923
3280.976809	25179.805594
3282.076960	25187.867133
3283.174019	25117.858741
3284.270922	25136.288112
3285.367670	25105.935664
3286.459860	25093.491608
3287.556298	25078.209790
3288.651114	25039.688811
3289.745776	25017.888112
3290.838816	24999.267832
3291.931701	24983.393706
3293.022967	24964.027273
3294.115544	24942.394406
3295.206502	24928.430070
3296.295840	24887.751049
3297.385025	24919.534266
3298.475523	24877.776224
3299.562936	24873.644056
3300.650196	24894.068531
3301.738769	24926.325874
3302.827190	24968.046154
3303.911063	25023.225175
3304.999178	25076.499301
3306.084211	25117.791608
3307.167629	25174.665734
3308.252359	25203.383217
3309.335473	25232.302098
3310.419900	25246.451049
3311.501248	25228.255944
3312.583908	25212.122378
3313.664954	25207.693007
3314.745849	25217.164336
3315.825130	25160.847552
3316.904261	25182.204895
3317.984704	25182.646853
3319.062072	25194.372028
3320.140752	25247.592308
3321.217820	25257.843357
3322.294739	25286.680420
3323.370046	25316.613287
3324.445204	25324.562238
3325.521673	25336.267133
3326.595072	25348.614685
3327.668322	25370.679720
3328.742882	25371.034965
3329.815834	25372.300699
3330.887177	25337.586014
3331.959831	25342.455944
3333.029419	25333.818182
3334.100317	25300.595105
3335.169608	25245.278322
3336.240210	25216.434266
3337.309205	25174.426573
3338.376594	25177.304196
3339.442378	25156.676224
3340.512388	25142.492308
3341.579335	25130.464336
3342.643220	25100.702098
3343.709873	25109.355245
3344.774921	25124.781119
3345.838366	25119.409091
3346.901665	25104.727273
3347.964817	25103.134266
3349.027823	25076.403497
3350.090683	25080.030769
3351.151941	25049.211189
3352.210142	25009.198601
3353.272563	24993.367133
3354.331929	24985.419580
3355.391149	24994.939860
3356.451679	25027.925874
3357.507699	25075.403497
3358.566483	25119.328671
3359.620760	25167.372727
3360.677801	25230.534965
3361.733243	25274.683217
3362.789995	25325.332867
3363.845148	25328.149650
3364.898704	25356.374126
3365.950664	25388.381119
3367.005385	25409.348252
3368.057057	25413.611888
3369.108586	25432.881818
3370.161423	25434.200000
3371.211213	25434.702797
3372.262312	25432.069930
3373.310365	25460.689510
3374.361177	25499.166434
3375.408945	25518.839860
3376.456570	25543.502797
3377.504052	25551.106294
3378.549942	25568.220979
3379.597140	25566.147552
3380.641296	25580.341958
3381.688210	25571.324476
3382.733532	25531.824476
3383.775813	25508.458741
3384.817954	25488.953147
3385.861402	25490.241259
3386.904709	25469.684615
3387.946427	25481.779021
3388.988003	25499.169930
3390.029438	25509.018182
3391.069285	25557.895105
3392.107543	25584.511888
3393.147109	25655.453147
3394.186535	25671.334266
3395.224373	25663.887413
3396.260624	25667.556643
3397.296736	25660.339161
3398.334155	25663.434266
3399.368541	25639.466434
3400.404234	25637.406993
3401.439788	25631.915385
3402.472311	25658.420979
3403.507587	25689.719580
3404.539832	25711.255944
3405.571939	25750.558042
3406.602462	25770.679021
3407.634292	25787.283217
3408.665984	25793.447552
3409.694648	25811.175524
3410.723175	25803.835664
3411.753008	25771.264336
3412.782704	25760.508392
3413.809374	25761.172028
3414.837351	25789.444056
3415.862303	25782.282517
3416.890005	25822.290909
3417.914684	25808.339161
3418.940669	25819.820979
3419.965074	25816.066434
3420.989343	25779.170629
3422.012033	25762.002098
3423.034587	25673.920979
3424.058447	25625.423776
3425.079287	25570.632867
3426.099991	25522.316084
3427.122002	25489.033791
3428.140994	25477.020779
3429.159850	25492.511838
3430.180013	25541.741758
3431.197159	25630.945330
