-118.059454	44.868132
-115.389854	50.485714
-112.723189	53.656943
-110.057276	54.847552
-107.394295	54.523277
-104.729885	53.149850
-102.068405	51.193007
-99.405496	48.982517
-96.747693	50.290210
-94.088461	47.060140
-91.429977	47.854545
-88.774417	46.946154
-86.117429	46.365035
-83.465539	47.208392
-80.812218	48.232867
-78.161818	46.355245
-75.509988	46.727273
-72.863249	46.132867
-70.215081	47.210490
-67.567655	47.883916
-64.923143	46.560839
-62.277203	44.663636
-59.636344	46.309091
-56.994056	43.218881
-54.354677	43.148252
-51.713868	46.662937
-49.073800	51.376224
-46.438804	51.745455
-43.802380	55.461538
-41.168858	55.238462
-38.533908	55.948252
-35.904023	53.853846
-33.270546	52.921678
-30.642131	51.818881
-28.014450	53.126573
-25.385340	49.848252
-22.761287	45.571329
-20.133645	31.119580
-17.511056	13.016084
-14.889199	32.626573
-12.268072	125.085315
-9.647675	244.130769
-7.030167	339.782517
-4.411230	402.072028
-1.795178	434.513986
0.820145	430.577622
3.434741	400.058741
6.046454	335.818881
8.659596	242.935664
11.267704	130.295804
13.879394	35.167133
16.486053	2.518881
19.094140	26.761538
21.701503	54.030769
24.303841	57.244755
26.909757	53.941259
29.510651	54.620280
32.112973	51.055944
34.710278	53.830070
37.311158	54.989510
39.907023	58.048252
42.504317	57.206993
45.100891	59.468531
47.692456	58.256643
50.285449	59.236364
52.875581	57.600000
55.467141	59.014685
58.055841	57.727273
60.645968	61.465734
63.231096	60.974126
65.817652	63.820280
68.403494	64.587413
70.986482	66.856643
73.570896	67.197902
76.148182	70.259441
78.729034	70.043357
81.307037	72.799301
83.884330	72.885315
86.463049	78.261538
89.036786	78.364336
91.611951	81.317483
94.184272	83.004895
96.755885	85.227972
99.324658	83.433566
101.894858	88.113287
104.462220	91.523776
107.031007	98.116783
109.596958	108.125175
112.160074	120.027273
114.726746	138.451049
117.284197	166.122378
119.847333	214.491608
122.405509	293.468531
124.967240	439.691608
127.524014	687.346154
130.082215	1083.500000
132.635462	1650.320280
135.188012	2397.019580
137.744112	3282.094406
140.295264	4242.067133
142.845719	5212.607692
145.395476	6127.097203
147.942414	6906.941958
150.488657	7508.447552
153.036325	7915.149650
155.583297	8160.010490
158.125334	8261.953846
160.666677	8282.482517
163.207327	8259.921678
165.749403	8248.846154
168.288667	8230.720979
170.825123	8213.975524
173.360887	8212.548951
175.898077	8215.644056
178.434576	8210.763636
180.968269	8208.764336
183.499158	8223.093007
186.029360	8241.180420
188.560986	8254.755245
191.089811	8263.658741
193.615837	8286.943357
196.141177	8316.351748
198.667942	8331.609790
201.191911	8343.853846
203.715195	8346.044755
206.237794	8334.874126
208.757600	8321.904895
211.276723	8321.525175
213.795163	8315.708392
216.315027	8312.755944
218.827890	8316.137063
221.344284	8306.021678
223.859996	8320.872727
226.370818	8336.261538
228.883065	8349.335664
231.392530	8362.583916
233.901316	8370.023776
236.409423	8378.926573
238.918955	8387.540559
241.423606	8394.500000
243.927581	8390.699301
246.432980	8391.716084
248.933504	8389.163636
251.437552	8377.641958
253.934628	8374.821678
256.435228	8378.771329
258.933056	8371.653147
261.430211	8363.094406
263.926693	8368.791608
266.418312	8369.337063
268.913451	8359.025175
271.405823	8340.096503
273.897525	8320.563636
276.386464	8298.870629
278.876827	8275.072727
281.364427	8261.427273
283.849268	8236.387413
286.337624	8222.998601
288.819040	8210.451049
291.303970	8212.230769
293.784055	8213.694406
296.267652	8213.727273
298.746406	8212.653147
301.226584	8207.548252
303.704009	8195.576224
306.180771	8187.168531
308.656870	8177.271329
311.130220	8191.783217
313.602908	8192.842657
316.074935	8215.683217
318.546301	8243.067133
321.014922	8261.262238
323.482885	8273.356643
325.952269	8296.104196
328.416831	8311.789510
330.884897	8321.980420
333.348143	8327.316783
335.810731	8339.899301
338.272663	8358.774825
340.733938	8387.551748
343.192479	8401.824476
345.652442	8421.774126
348.109672	8420.920280
350.566248	8412.721678
353.022170	8401.451049
355.475362	8378.581818
357.929977	8340.639860
360.379790	8300.900699
362.833099	8268.397902
365.281610	8233.656643
367.729469	8193.592308
370.178751	8167.497902
372.623239	8151.741958
375.069149	8142.905594
377.514409	8131.369231
379.956951	8138.655944
382.398845	8135.902797
384.840092	8138.044056
387.278623	8143.541958
389.718576	8140.135664
392.155815	8146.541958
394.590342	8145.684615
397.028357	8148.381818
399.461595	8156.910490
401.896254	8176.669930
404.326141	8204.697902
406.759513	8231.757343
409.188115	8256.195105
411.616075	8287.991608
414.045457	8314.058741
416.470073	8350.103497
418.896111	8363.757343
421.321508	8380.411189
423.746265	8394.338462
426.166264	8389.155944
428.587684	8371.211888
431.006407	8366.053846
433.426551	8363.170629
435.844000	8342.360140
438.262869	8329.170629
440.679045	8330.360839
443.090473	8327.479720
445.505379	8343.988112
447.917594	8349.862238
450.329175	8362.762937
452.740122	8390.855944
455.148383	8402.748252
457.556011	8421.312587
459.963007	8441.212587
462.369372	8451.848951
464.773054	8453.649650
467.176106	8461.927273
469.578528	8464.862937
471.980320	8477.306294
474.379435	8482.778322
476.779969	8479.623077
479.179874	8473.501399
481.575056	8477.924476
483.973705	8459.163636
486.367634	8451.584615
488.760937	8435.845455
491.153614	8420.218182
493.545666	8406.746154
495.939136	8378.055944
498.327894	8360.034965
500.713986	8344.517483
503.101498	8322.200000
505.488387	8300.763636
507.872612	8289.619580
510.258255	8283.000699
512.641237	8262.066434
515.021558	8257.134965
517.403298	8248.409091
519.782379	8259.725175
522.162879	8261.376923
524.540721	8257.762238
526.915908	8258.787413
529.290477	8262.861538
531.666464	8272.570629
534.039799	8289.255944
536.414551	8296.651748
538.784618	8291.590210
541.154069	8285.504895
543.524938	8274.193706
545.891127	8269.843357
548.258734	8258.461538
550.623695	8250.210490
552.988043	8243.981818
555.351778	8221.095804
557.716931	8221.316783
560.077412	8222.031469
562.439311	8215.053147
564.798569	8210.583217
567.155190	8202.057343
569.515255	8206.708392
571.868629	8202.785315
574.225448	8212.002098
576.579632	8213.822378
578.933208	8226.532867
581.286175	8221.278322
583.636510	8209.183916
585.988263	8208.400699
588.333339	8195.976923
590.683879	8173.905594
593.027745	8166.965734
595.377073	8133.193007
597.721752	8118.294406
600.063807	8087.288811
602.407279	8073.852448
604.748128	8064.532168
607.088375	8051.211189
609.426001	8032.635664
611.767062	8021.942657
614.103485	8014.876923
616.441325	8009.644755
618.776548	7996.788811
621.109155	7995.120280
623.443178	7978.760839
625.774587	7970.481119
628.105398	7946.429371
630.435612	7946.553846
632.765227	7946.486713
635.090220	7931.011189
637.420653	7920.321678
639.746466	7928.714685
642.069671	7932.445455
644.394293	7951.305594
646.716309	7963.233566
649.037731	7978.960140
651.356551	7988.705594
653.676786	7995.960839
655.996428	8000.529371
658.313469	8005.840559
660.629918	8004.946154
662.943769	8004.921678
665.259036	8005.136364
667.571706	8014.436364
669.885791	8010.874825
672.195276	8035.933566
674.506177	8035.940559
676.814485	8049.741958
679.122205	8058.936364
681.431339	8066.764336
683.735881	8080.718182
686.039837	8081.730769
688.343207	8087.318182
690.647991	8102.446853
692.948189	8098.886713
695.249801	8098.853147
697.550829	8084.291608
699.847274	8074.652448
702.145135	8052.002098
704.442412	8045.063636
706.739106	8032.351748
709.031224	8026.605594
711.326753	8024.788811
713.617708	8012.776224
715.910078	8026.904895
718.199873	8038.552448
720.489087	8043.100699
722.777722	8061.023077
725.063784	8065.215385
727.351261	8068.505594
729.636166	8077.906993
731.920494	8081.804895
734.202253	8084.165734
736.485426	8085.782517
738.768022	8094.790909
741.046062	8103.767133
743.325517	8125.538462
745.604395	8129.215385
747.882699	8139.396503
750.156453	8160.111888
752.431620	8168.737063
754.706214	8172.614685
756.978249	8177.105594
759.251697	8168.967832
761.522587	8168.809790
763.790921	8166.309091
766.060668	8163.593706
768.327861	8155.106993
770.594483	8148.617483
772.860535	8145.051748
775.124036	8141.837063
777.388950	8150.725874
779.653294	8146.241259
781.913109	8147.930070
784.174336	8155.463636
786.434996	8159.891608
788.693110	8170.522378
790.948679	8176.158741
793.207639	8168.674126
795.460100	8161.878322
797.717927	8155.474825
799.971236	8141.722378
802.222005	8114.719580
804.474186	8098.954545
806.723828	8068.953846
808.974883	8055.869231
811.221426	8046.446154
813.469381	8035.988811
815.714802	8032.976224
817.961634	8037.158042
820.207905	8026.881119
822.449671	8024.258741
824.694821	8017.232867
826.933498	8002.637762
829.175557	7972.774825
831.413118	7959.672727
833.652091	7947.692308
835.888537	7933.056643
838.126394	7925.416783
840.361726	7922.024476
842.594535	7936.117483
844.828755	7947.062937
847.060452	7960.905594
849.291595	7981.114685
851.522183	7989.261538
853.752217	7997.375524
855.981697	7997.862937
858.206695	8013.567133
860.435068	8008.732867
862.658961	7991.760140
864.884266	7984.892308
867.105095	7976.576923
869.329296	7973.188112
871.549024	7960.058042
873.770162	7953.320280
875.990750	7952.204895
878.208829	7952.571329
880.428317	7955.068531
882.643339	7952.530769
884.857814	7961.074126
887.071740	7946.382517
889.285120	7941.139860
891.497952	7935.528671
893.710238	7937.472028
895.920021	7930.943357
898.129259	7919.376923
900.337952	7919.490210
902.544146	7922.732168
904.751749	7936.389510
906.956854	7942.110490
909.161416	7946.489510
911.363483	7970.502098
913.566959	7980.626573
915.767941	8012.300699
917.968381	8039.701399
920.170230	8080.998601
922.365688	8107.373427
924.564505	8129.266434
926.758883	8157.277622
928.956619	8171.560140
931.149919	8188.013287
933.344628	8204.641958
935.536851	8211.167832
937.728535	8215.623776
939.919682	8217.174126
942.108346	8234.526573
944.296474	8245.279720
946.482121	8271.896503
948.671120	8298.080420
950.855696	8317.886014
953.039737	8345.859441
955.227128	8373.822378
957.406215	8406.979021
959.588653	8452.193007
961.770557	8487.195105
963.949986	8517.764336
966.126943	8553.616783
968.305308	8594.518182
970.485080	8623.541958
972.658503	8655.765734
974.835272	8694.176224
977.007634	8727.065734
979.181404	8761.463636
981.350770	8790.248951
983.523480	8827.709091
985.693725	8858.054545
987.863441	8874.345455
990.032628	8915.212587
992.197418	8944.087413
994.365549	8994.627972
996.529286	9021.627273
998.694429	9062.590210
1000.857113	9107.686713
1003.019272	9144.302098
1005.178974	9176.158042
1007.338151	9194.805594
1009.498735	9217.355245
1011.656865	9212.474126
1013.814470	9215.284615
1015.971552	9235.711189
1018.128110	9245.687413
1020.280289	9284.685315
1022.433875	9321.892308
1024.586939	9377.081119
1026.737554	9433.544755
1028.889576	9493.932168
1031.037224	9556.466434
1033.188204	9608.545455
1035.334813	9651.581119
1037.480903	9674.158741
1039.626475	9710.377622
1041.773452	9727.788112
1043.914140	9753.692308
1046.058158	9774.752448
1048.199735	9801.088811
1050.340796	9819.742657
1052.483261	9831.954545
1054.619447	9842.350350
1056.758958	9831.341958
1058.894115	9825.627273
1061.032596	9809.843357
1063.166723	9779.783217
1065.300337	9759.016783
1067.435356	9735.096503
1069.566025	9712.826573
1071.698099	9678.858741
1073.827744	9655.450350
1075.956877	9634.047552
1078.085498	9606.586014
1080.213608	9576.286713
1082.339292	9542.744755
1084.464466	9508.940559
1086.591044	9457.200699
1088.713284	9390.115385
1090.836929	9336.735664
1092.956239	9284.874825
1095.080779	9233.816084
1097.199073	9181.837063
1099.318772	9142.600000
1101.436052	9112.547552
1103.552826	9074.626573
1105.669093	9042.497203
1107.782944	9018.211189
1109.898200	8975.742657
1112.009132	8932.230769
1114.123377	8899.280420
1116.233301	8874.823077
1118.344629	8852.688811
1120.455452	8833.305594
1122.561959	8815.062238
1124.671776	8786.484615
1126.777278	8776.897203
1128.884183	8762.160839
1130.984873	8748.095105
1133.090775	8727.907692
1135.192368	8725.834266
1137.295364	8708.932867
1139.397859	8699.687413
1141.494147	8683.800699
1143.595643	8676.826573
1145.692835	8647.290909
1147.789530	8621.227273
1149.885726	8586.503497
1151.981425	8585.739860
1154.076625	8575.373427
1156.169429	8557.965734
1158.263636	8550.695105
1160.351651	8568.206993
1162.444864	8555.359441
1164.531889	8563.227972
1166.622213	8568.796503
1168.708250	8586.635664
1170.797584	8586.383916
1172.880737	8593.943357
1174.965292	8609.819580
1177.051249	8632.264336
1179.132924	8652.829371
1181.216001	8650.544056
1183.296692	8668.143357
1185.376891	8677.363636
1187.456599	8674.754545
1189.535816	8670.972727
1191.612651	8662.932867
1193.687105	8661.312587
1195.764850	8652.232867
1197.838326	8653.242657
1199.913202	8650.151049
1201.983811	8647.046154
1204.055821	8667.667832
1206.125456	8670.263636
1208.196491	8688.114685
1210.267038	8698.764336
1212.333324	8709.972028
1214.401011	8704.251748
1216.466326	8702.418182
1218.533041	8692.719580
1220.595500	8682.867133
1222.661244	8689.232168
1224.722734	8674.187413
1226.785625	8679.932168
1228.846148	8711.910490
1230.906187	8717.785315
1232.965744	8723.069930
1235.022935	8765.990909
1237.079645	8788.782517
1239.133991	8805.948951
1241.191619	8844.430070
1243.246884	8874.404196
1245.297908	8886.969231
1247.350332	8938.117483
1249.402276	8967.332168
1251.451862	9012.325874
1253.500969	9060.357343
1255.549598	9077.265035
1257.597748	9119.355245
1259.645419	9179.189510
1261.688860	9204.420979
1263.735577	9252.930070
1265.779940	9326.322378
1267.823827	9400.846853
1269.865362	9441.748252
1271.904548	9545.219580
1273.947007	9614.337762
1275.985243	9714.008392
1278.024878	9804.213986
1280.064038	9907.330070
1282.098979	10030.852448
1284.135319	10170.240559
1286.169315	10319.025874
1288.204708	10472.848951
1290.235889	10647.317483
1292.268467	10826.130070
1294.300574	10960.358042
1296.330340	11143.958741
1298.361504	11239.155245
1300.388460	11359.565734
1302.416814	11440.038462
1304.440963	11511.183916
1306.468378	11594.159441
1308.491590	11684.087413
1310.516200	11665.955944
1312.538476	11391.197203
1314.562149	10590.351748
1316.583489	12556.323776
1318.604361	17218.923077
1320.624766	23874.432168
1322.640978	31730.440559
1324.658587	40177.282517
1326.673868	51130.919580
1328.692408	59272.564336
1330.706759	63404.811888
1332.718784	63031.195804
1334.734066	58216.097902
1336.745163	49632.418182
1338.757657	38941.707692
1340.765968	29807.429371
1342.777534	21613.552448
1344.783062	14766.611888
1346.791845	10012.541958
1348.796450	8107.673427
1350.804309	9788.923077
1352.811706	9916.164336
1354.813072	9889.981119
1356.815834	9793.153147
1358.818137	9687.825874
1360.819980	9603.118881
1362.821363	9525.653147
1364.820433	9481.385315
1366.819044	9453.338462
1368.817197	9418.048951
1370.814891	9400.220979
1372.808423	9364.898601
1374.803351	9356.115385
1376.797821	9331.276224
1378.791835	9296.649650
1380.783542	9276.038462
1382.774794	9245.556643
1384.763740	9233.853147
1386.754081	9212.695105
1388.743967	9209.595804
1390.731549	9204.027972
1392.718678	9209.704895
1394.703505	9238.897203
1396.689727	9241.988112
1398.673649	9276.574825
1400.657118	9282.530070
1402.640134	9291.972727
1404.620853	9310.314685
1406.602966	9308.577622
1408.582783	9327.902797
1410.562148	9349.200699
1412.537375	9362.795105
1414.515840	9391.194406
1416.492012	9429.344056
1418.467735	9488.078322
1420.443008	9527.808392
1422.415990	9569.887413
1424.388524	9593.644056
1426.360610	9643.430769
1428.332249	9668.008392
1430.299759	9701.307692
1432.272343	9739.733566
1434.237122	9762.002098
1436.206972	9775.417483
1438.172699	9801.068531
1440.139818	9828.979021
1442.104654	9851.588112
1444.065370	9854.011189
1446.031154	9863.592308
1447.990983	9870.960140
1449.952206	9881.235664
1451.914821	9891.634266
1453.873321	9917.146853
1455.831378	9934.191608
1457.788994	9943.602797
1459.746167	9965.290909
1461.701065	9990.069930
1463.657356	10005.978322
1465.611372	10000.391608
1467.564947	9998.081119
1469.516250	10006.644056
1471.468946	9987.349650
1473.419369	9960.574825
1475.369354	9932.780420
1477.318900	9907.253147
1479.266177	9876.246154
1481.211186	9846.653147
1483.157588	9819.604196
1485.103552	9794.628671
1487.049079	9784.428671
1488.992340	9776.132867
1490.935166	9788.312587
1492.875728	9791.902098
1494.817681	9793.165734
1496.757372	9800.959441
1498.696629	9807.125874
1500.635450	9796.310490
1502.572012	9790.126573
1504.509965	9780.968531
1506.445659	9773.264336
1508.380920	9767.362937
1510.313925	9788.055245
1512.246497	9797.820280
1514.178637	9809.863636
1516.110345	9819.425874
1518.039799	9842.620979
1519.970644	9859.562937
1521.901057	9886.327972
1523.827398	9903.672028
1525.755130	9945.830070
1527.680611	9958.551049
1529.605663	9986.335664
1531.530286	10008.112587
1533.454480	10053.894406
1535.376426	10063.356643
1537.299763	10068.229371
1539.220853	10074.637762
1541.139700	10076.217483
1543.059935	10078.102098
1544.977928	10094.685315
1546.895494	10109.911888
1548.810818	10125.102797
1550.727532	10121.592308
1552.640191	10127.105594
1554.556054	10153.576224
1556.469677	10164.168531
1558.381062	10165.955944
1560.293837	10165.744056
1562.202562	10171.744755
1564.112676	10181.049650
1566.022367	10204.809790
1567.931635	10204.469231
1569.838669	10204.163636
1571.743470	10216.377622
1573.649660	10220.315385
1575.553618	10221.384615
1577.457155	10226.687413
1579.360272	10227.636364
1581.261159	10242.588811
1583.163435	10236.551049
1585.063483	10227.032867
1586.964918	10245.530769
1588.862320	10265.576224
1590.759303	10252.846154
1592.655868	10271.011189
1594.553821	10301.862937
1596.445939	10296.134266
1598.341250	10308.746154
1600.236144	10307.487413
1602.128816	10329.628671
1604.021071	10338.667832
1605.911107	10341.702797
1607.800727	10351.080420
1609.689932	10378.581119
1611.578722	10418.510490
1613.465294	10458.853846
1615.353254	10504.879021
1617.237197	10534.674825
1619.122527	10554.878322
1621.007444	10581.818182
1622.890147	10599.476224
1624.774237	10617.272727
1626.654315	10634.362238
1628.535781	10651.545455
1630.415036	10659.341958
1632.295677	10654.440559
1634.170514	10670.710490
1636.050332	10677.811888
1637.926146	10672.484615
1639.801549	10682.513287
1641.678338	10701.409790
1643.549331	10691.997203
1645.423505	10709.929371
1647.293680	10716.585315
1649.167037	10718.596503
1651.038190	10719.799301
1652.907141	10709.925874
1654.777477	10694.148951
1656.643821	10662.877622
1658.511550	10677.092308
1660.377080	10663.446154
1662.243996	10659.337063
1664.106923	10653.548951
1665.971235	10651.895804
1667.833351	10639.583916
1669.695062	10632.858741
1671.558159	10609.079720
1673.419060	10611.823077
1675.277769	10626.582517
1677.136074	10628.032867
1678.995764	10627.697902
1680.849686	10670.018881
1682.706782	10679.008392
1684.563475	10697.634965
1686.416191	10712.141259
1688.272079	10725.163636
1690.123993	10728.837762
1691.975506	10735.093007
1693.826618	10719.475524
1695.677330	10726.635664
1697.527641	10689.329371
1699.375767	10675.813287
1701.225278	10637.806993
1703.069040	10607.790210
1704.917751	10575.039161
1706.760716	10529.825175
1708.606848	10502.808392
1710.449017	10477.173427
1712.294352	10474.594406
1714.133946	10447.715385
1715.974924	10425.544056
1717.817285	10407.829371
1719.655690	10378.629371
1721.495478	10381.525175
1723.333091	10333.002797
1725.170308	10315.376923
1727.005352	10282.601399
1728.841779	10256.406294
1730.676034	10235.407692
1732.509894	10202.730070
1734.343360	10187.002098
1736.172881	10146.734266
1738.005560	10112.623077
1739.834295	10080.969231
1741.666187	10043.566434
1743.494137	10002.619580
1745.321696	9953.795804
1747.148862	9920.283217
1748.975637	9874.343357
1750.802020	9829.867832
1752.624467	9781.196503
1754.450069	9745.412587
1756.271736	9695.512587
1758.094785	9644.308392
1759.915672	9603.097902
1761.736171	9574.353846
1763.558051	9544.179720
1765.374231	9536.658741
1767.193563	9516.159441
1769.008968	9511.356643
1770.827523	9501.074825
1772.642153	9485.161538
1774.456396	9477.497203
1776.270253	9466.166434
1778.083723	9450.074126
1779.895040	9435.335664
1781.707737	9428.197902
1783.520049	9428.400000
1785.328443	9420.230070
1787.138217	9412.812587
1788.944077	9400.015385
1790.753082	9395.467133
1792.558174	9370.224476
1794.364647	9344.875524
1796.170736	9314.918182
1797.972914	9304.585315
1799.778237	9289.097203
1801.579651	9276.444755
1803.382445	9261.799301
1805.181333	9242.824476
1806.981602	9229.298601
1808.781489	9211.088112
1810.579234	9201.952448
1812.376599	9197.900699
1814.173584	9183.295105
1815.970188	9163.531469
1817.764653	9151.630769
1819.560497	9159.176224
1821.350686	9139.548252
1823.145772	9136.090210
1824.935206	9122.397203
1826.727776	9118.409790
1828.518211	9111.284615
1830.306512	9099.318881
1832.097948	9098.297902
1833.883738	9105.969930
1835.670908	9097.902098
1837.455946	9094.526573
1839.244118	9093.853147
1841.028404	9099.295105
1842.810560	9090.123776
1844.594096	9106.418881
1846.375503	9100.637762
1848.158289	9095.248951
1849.937194	9082.804196
1851.717479	9079.314685
1853.495637	9070.585315
1855.275174	9060.046853
1857.052586	9041.578322
1858.827874	9024.476224
1860.604540	9019.455245
1862.379084	9025.448951
1864.155006	9019.189510
1865.925307	9036.083217
1867.698736	9022.329371
1869.470045	9037.641259
1871.240983	9054.550350
1873.013299	9077.936364
1874.780001	9093.708392
1876.549829	9116.655944
1878.315793	9137.093706
1880.084880	9144.771329
1881.850106	9160.080420
1883.614964	9158.032168
1885.381199	9146.365734
1887.143575	9140.009790
1888.905584	9132.019580
1890.667225	9141.200699
1892.428500	9141.269930
1894.189407	9160.725874
1895.949948	9177.433566
1897.708379	9209.632867
1899.466444	9243.339161
1901.222402	9268.641958
1902.979736	9286.623077
1904.736705	9301.298601
1906.491567	9323.545455
1908.244325	9343.435664
1909.996718	9368.645455
1911.750488	9384.273427
1913.502154	9409.761538
1915.251718	9437.689510
1917.002657	9473.104895
1918.753234	9512.076224
1920.499971	9537.549650
1922.248085	9586.620280
1923.994099	9608.992308
1925.741488	9647.770629
1927.486780	9691.494406
1929.229974	9718.300000
1930.974543	9756.004895
1932.717017	9784.144755
1934.459130	9829.728671
1936.200883	9871.874126
1937.942276	9931.260140
1939.681576	9977.371329
1941.420517	10031.804895
1943.159099	10087.195105
1944.895590	10120.014685
1946.631723	10168.649650
1948.369230	10193.529371
1950.102915	10220.744056
1951.837975	10260.595105
1953.570946	10283.461538
1955.303561	10330.560839
1957.035820	10368.316783
1958.767722	10407.730769
1960.497538	10452.646154
1962.225269	10499.428671
1963.954375	10527.183916
1965.683126	10559.804895
1967.409793	10586.137762
1969.136106	10601.605594
1970.863792	10633.269231
1972.585942	10667.822378
1974.311193	10691.762238
1976.032637	10727.987413
1977.757182	10746.946853
1979.479646	10771.481119
1981.198308	10798.787413
1982.920068	10827.269231
1984.638026	10848.133566
1986.357357	10876.512587
1988.072889	10901.945455
1989.793241	10940.010490
1991.509795	10974.527273
1993.222552	11017.122378
1994.938405	11054.592308
1996.652186	11099.345455
1998.365617	11146.425874
2000.076977	11173.585315
2001.789709	11213.974126
2003.498651	11259.931469
2005.210685	11296.586713
2006.917211	11340.829371
2008.626828	11351.235664
2010.334379	11378.890909
2012.041581	11399.017483
2013.746718	11412.131469
2015.451509	11427.361538
2017.157671	11452.027273
2018.860051	11471.578322
2020.563802	11476.416783
2022.265491	11497.465734
2023.966835	11518.335664
2025.667833	11532.004196
2027.366770	11558.842657
2029.067079	11549.352448
2030.763613	11569.254545
2032.461518	11589.613287
2034.157364	11591.841259
2035.856296	11607.550350
2037.549742	11631.127972
2039.244559	11631.623776
2040.939034	11649.022378
2042.629740	11638.937762
2044.323530	11641.735664
2046.013553	11635.759441
2047.704947	11636.204196
2049.394288	11607.869930
2051.084999	11600.053147
2052.771947	11606.486713
2054.458556	11592.953147
2056.146534	11588.676923
2057.830753	11592.879720
2059.516343	11598.830769
2061.201593	11618.358042
2062.884794	11602.712587
2064.569366	11591.191608
2066.248475	11591.434266
2067.932369	11595.824476
2069.610802	11592.055245
2071.292313	11586.837762
2072.970072	11601.977622
2074.647495	11598.939161
2076.326287	11591.717483
2078.003037	11607.451748
2079.677745	11620.589510
2081.353822	11617.357343
2083.027859	11605.346154
2084.701560	11590.457343
2086.374926	11599.525175
2088.046253	11596.547552
2089.717246	11598.141958
2091.387905	11588.966434
2093.058230	11606.887413
2094.728221	11603.954545
2096.396176	11610.655944
2098.063798	11634.909790
2099.729385	11667.545455
2101.396341	11698.533566
2103.061264	11729.458741
2104.725855	11755.060839
2106.388414	11770.829371
2108.052341	11788.170629
2109.714237	11821.430769
2111.375803	11842.427273
2113.037037	11878.687413
2114.696243	11894.438462
2116.355118	11923.832867
2118.013664	11947.051748
2119.671880	11972.841958
2121.326372	11994.006993
2122.983929	12016.007692
2124.641157	12011.218881
2126.294663	12014.524476
2127.949537	12026.236364
2129.600692	12027.455245
2131.254910	12025.018881
2132.905411	12036.944755
2134.557278	12035.775524
2136.203737	12041.069930
2137.854951	12062.619580
2139.502451	12064.721678
2141.151318	12096.078322
2142.798166	12117.290909
2144.444689	12130.832867
2146.090886	12174.819580
2147.733375	12201.295105
2149.378922	12204.283916
2151.020762	12222.995804
2152.665659	12243.137762
2154.306850	12247.711888
2155.947719	12271.248951
2157.588263	12293.629371
2159.226795	12301.587413
2160.866693	12308.941259
2162.502891	12315.879021
2164.140455	12321.282517
2165.777697	12339.439860
2167.412929	12333.227972
2169.047840	12331.338462
2170.682428	12330.372727
2172.316696	12336.843357
2173.947270	12343.709091
2175.580896	12368.734266
2177.210830	12380.589510
2178.842129	12401.775524
2180.471423	12393.255944
2182.100398	12412.740559
2183.729053	12417.323776
2185.357389	12414.648951
2186.983723	12397.729371
2188.609738	12383.678322
2190.233751	12370.122378
2191.859130	12363.413287
2193.482508	12350.942657
2195.107251	12341.758741
2196.728313	12331.393706
2198.349058	12306.416783
2199.971168	12273.648252
2201.591280	12262.902098
2203.209395	12239.654545
2204.827195	12221.609091
2206.444680	12210.981119
2208.061849	12217.750350
2209.678703	12243.527972
2211.295241	12258.869930
2212.909787	12277.026573
2214.522340	12286.398601
2216.136257	12307.097203
2217.748183	12311.372727
2219.361472	12322.944755
2220.972771	12341.779720
2222.582080	12350.434266
2224.192753	12376.218182
2225.801437	12406.004196
2227.409808	12428.308392
2229.016193	12457.224476
2230.623941	12478.086014
2232.229702	12505.182517
2233.835152	12527.290210
2235.438617	12556.771329
2237.043445	12577.692308
2238.646289	12590.210490
2240.247150	12605.920979
2241.849374	12628.914685
2243.449616	12654.686713
2245.051220	12678.441259
2246.649171	12678.156643
2248.248485	12708.465734
2249.845819	12742.896503
2251.442845	12791.215385
2253.041233	12832.488112
2254.635972	12874.426573
2256.228734	12910.772727
2257.822859	12916.028671
2259.418345	12927.448951
2261.010186	12946.714685
2262.601721	12960.771329
2264.194618	12966.006993
2265.782205	12964.876923
2267.374488	12969.392308
2268.961465	12965.670629
2270.551469	12967.726573
2272.136169	12958.002797
2273.725563	12945.662238
2275.309655	12909.329371
2276.895107	12851.396503
2278.478591	12827.857343
2280.065100	12803.727972
2281.647976	12803.658042
2283.230549	12797.215035
2284.812818	12801.160839
2286.391457	12801.581469
2287.973121	12793.747552
2289.551156	12800.684965
2291.132214	12797.730070
2292.709645	12790.597552
2294.285113	12774.613287
2295.863603	12765.035315
2297.438469	12765.102797
2299.013034	12748.942308
2300.587299	12746.590909
2302.161263	12724.227622
2303.734926	12710.794406
2305.308290	12695.353846
2306.878035	12685.288112
2308.447481	12693.522378
2310.019945	12711.516783
2311.587135	12729.960839
2313.157343	12759.847552
2314.723936	12779.223077
2316.291889	12809.508392
2317.857886	12844.717483
2319.423586	12879.539860
2320.988988	12880.217483
2322.552437	12906.472028
2324.117245	12922.618182
2325.678445	12934.160839
2327.242659	12943.751049
2328.801611	12937.024476
2330.363578	12921.393706
2331.923593	12908.542657
2333.483314	12893.922378
2335.041085	12889.893706
2336.598561	12896.059441
2338.155743	12889.744056
2339.710977	12879.479720
2341.265918	12883.556643
2342.820564	12875.317483
2344.374917	12871.718881
2345.928977	12868.332168
2347.482742	12851.858741
2349.034564	12842.730769
2350.584442	12841.798601
2352.137328	12823.603497
2353.684972	12804.036364
2355.235623	12805.727972
2356.782683	12793.373427
2358.331101	12784.111189
2359.879228	12769.751049
2361.423766	12760.083916
2362.969662	12755.640559
2364.513620	12748.787413
2366.058935	12754.267832
2367.600665	12750.702797
2369.143752	12753.117483
2370.684903	12757.339860
2372.225765	12773.921678
2373.766338	12792.490210
2375.306622	12795.573427
2376.846617	12793.979720
2378.383034	12800.249650
2379.922452	12812.513287
2381.458293	12807.375524
2382.995490	12813.335664
2384.529112	12824.461538
2386.065734	12816.833566
2387.600426	12840.524476
2389.133188	12887.307692
2390.665663	12912.229371
2392.196210	12936.787413
2393.729755	12958.875524
2395.258089	12966.887413
2396.787780	13011.493706
2398.317184	13042.320979
2399.846304	13044.732867
2401.375139	13050.738462
2402.898768	13059.188112
2404.427033	13055.493706
2405.950096	13061.009790
2407.477792	13083.920280
2408.998649	13089.344755
2410.524139	13098.871329
2412.046068	13123.113986
2413.569353	13136.709790
2415.090716	13172.810490
2416.610160	13182.584615
2418.130959	13199.764336
2419.649840	13229.313287
2421.168438	13262.126573
2422.685119	13281.904196
2424.203154	13295.202098
2425.720908	13329.095804
2427.235111	13345.888811
2428.749033	13372.057343
2430.262675	13407.255245
2431.777672	13425.138462
2433.289120	13436.299301
2434.801923	13451.357343
2436.312812	13480.133566
2437.823423	13502.680420
2439.332122	13538.171329
2440.843807	13558.226573
2442.351949	13582.914685
2443.859813	13608.554545
2445.367399	13643.448951
2446.871444	13681.060839
2448.378474	13717.644755
2449.883597	13750.188811
2451.388441	13769.962937
2452.891379	13789.827972
2454.394041	13814.574825
2455.896426	13814.280420
2457.396906	13841.976224
2458.898739	13851.838462
2460.398667	13892.048252
2461.898320	13916.997203
2463.397698	13966.644056
2464.895173	14001.068531
2466.390746	14049.148951
2467.889299	14096.635664
2469.384324	14125.148252
2470.880701	14162.504895
2472.373552	14193.014685
2473.867756	14202.440559
2475.361686	14235.841958
2476.852092	14249.788112
2478.345476	14270.280420
2479.836962	14283.507692
2481.326551	14307.600000
2482.815868	14331.344755
2484.303289	14352.888811
2485.793686	14363.606294
2487.280565	14370.311189
2488.768795	14387.385315
2490.253508	14395.515385
2491.737952	14395.746853
2493.223746	14384.432867
2494.707649	14364.150350
2496.192902	14347.269231
2497.673022	14335.218182
2499.156115	14315.316084
2500.637317	14308.164336
2502.118250	14284.916783
2503.597294	14257.546853
2505.076069	14232.217483
2506.554576	14198.865035
2508.032815	14175.313986
2509.510785	14140.295804
2510.985250	14097.499301
2512.462685	14061.063636
2513.936616	14014.167832
2515.411897	13962.755944
2516.886911	13921.605594
2518.358425	13881.669930
2519.831288	13840.374126
2521.302269	13791.456643
2522.774600	13754.993706
2524.241817	13695.300699
2525.712001	13662.873427
2527.180304	13626.807692
2528.648342	13584.373427
2530.116115	13554.408392
2531.583623	13523.988811
2533.050866	13495.105594
2534.514617	13480.232168
2535.979718	13456.779720
2537.442942	13434.814685
2538.907516	13408.308392
2540.368600	13400.542657
2541.831034	13382.997902
2543.293205	13387.328671
2544.751890	13394.224476
2546.215147	13398.468531
2547.673307	13412.271329
2549.132816	13424.700699
2550.587231	13422.631469
2552.046217	13408.753147
2553.503331	13391.833566
2554.958574	13355.657343
2556.413555	13322.888112
2557.866668	13336.288811
2559.321129	13335.849650
2560.773720	13347.586713
2562.226052	13364.331469
2563.676517	13387.683916
2565.129937	13404.440559
2566.578275	13434.313986
2568.029569	13457.495105
2569.478996	13466.606294
2570.924951	13486.738462
2572.373861	13489.636364
2573.819301	13505.701399
2575.266088	13541.850350
2576.711013	13541.997203
2578.155679	13538.611189
2579.601693	13529.234266
2581.044241	13517.566434
2582.488136	13510.213986
2583.928566	13524.837762
2585.370343	13531.599301
2586.810261	13524.054545
2588.251526	13542.875524
2589.689329	13569.688112
2591.130082	13584.537063
2592.565773	13624.057343
2594.004413	13613.703497
2595.441195	13625.279720
2596.876122	13648.219580
2598.313996	13655.506294
2599.746813	13671.948951
2601.180977	13675.632168
2602.613287	13694.222378
2604.046943	13698.996503
2605.478746	13718.425874
2606.910295	13730.318182
2608.341592	13724.192308
2609.771036	13737.535664
2611.200228	13721.716084
2612.627570	13752.744755
2614.056257	13755.102797
2615.484693	13750.376224
2616.909681	13748.960839
2618.336016	13747.182517
2619.760502	13793.181119
2621.186334	13803.538462
2622.608722	13820.852448
2624.032456	13824.918182
2625.454343	13828.217483
2626.875981	13858.712587
2628.295773	13878.722378
2629.716911	13917.659441
2631.137799	13929.562238
2632.555249	13955.209091
2633.975638	13969.592308
2635.392590	13979.916783
2636.809293	14013.734266
2638.225748	14017.534266
2639.641955	14025.168531
2641.057914	14022.165035
2642.472032	14023.233566
2643.885902	14032.069231
2645.297934	14053.651748
2646.711309	14092.206294
2648.121255	14117.865734
2649.534137	14141.347552
2650.943590	14170.229371
2652.352797	14190.035664
2653.760168	14225.758741
2655.170473	14253.947552
2656.578943	14276.613986
2657.985577	14308.279021
2659.391966	14310.223077
2660.796521	14319.572727
2662.202420	14371.969231
2663.606486	14403.118182
2665.010307	14431.438462
2666.413884	14452.323077
2667.815630	14478.451748
2669.218719	14490.471329
2670.618390	14500.813287
2672.019405	14516.814685
2673.417004	14523.732168
2674.817533	14532.431469
2676.214646	14513.684615
2677.613103	14525.458741
2679.009733	14552.156643
2680.406120	14543.546853
2681.802265	14545.980420
2683.196585	14560.454545
2684.592246	14562.263636
2685.984499	14578.911888
2687.378094	14581.436364
2688.769865	14582.632867
2690.162979	14573.284615
2691.554269	14569.061538
2692.943736	14579.781818
2694.332963	14585.406294
2695.721951	14605.074825
2697.112280	14599.246853
2698.497626	14636.229371
2699.885895	14668.002797
2701.272344	14668.882517
2702.658554	14704.193007
2704.044525	14700.296503
2705.427098	14694.614685
2706.811013	14706.070629
2708.194690	14721.623776
2709.578128	14753.781818
2710.958172	14784.867133
2712.339556	14829.832867
2713.719126	14871.094406
2715.100036	14919.605594
2716.479132	14952.557343
2717.856414	14987.178322
2719.235037	15033.690210
2720.611847	15054.400000
2721.988420	15079.295804
2723.364758	15119.633566
2724.739285	15143.613287
2726.115152	15177.587413
2727.487632	15199.323077
2728.863028	15222.580420
2730.233464	15253.672727
2731.605241	15272.398601
2732.976783	15307.544755
2734.346517	15348.659441
2735.717592	15376.181818
2737.086858	15407.089510
2738.455891	15433.095804
2739.823118	15475.355245
2741.190112	15493.566434
2742.556872	15524.000000
2743.923401	15563.530070
2745.288124	15627.953147
2746.652615	15675.985315
2748.016875	15716.381119
2749.380902	15758.447552
2750.744698	15808.109091
2752.105120	15828.013287
2753.468452	15826.172028
2754.826842	15827.872727
2756.188142	15818.041958
2757.546072	15802.294406
2758.906910	15789.250350
2760.265949	15776.348951
2761.621619	15774.239860
2762.980197	15762.167832
2764.335408	15772.965035
2765.690390	15791.216084
2767.043576	15823.493706
2768.399668	15825.273427
2769.752395	15852.483217
2771.104895	15888.371329
2772.457166	15907.434965
2773.810776	15937.382517
2775.161024	15953.948252
2776.509478	15972.324476
2777.860838	16009.489510
2779.208838	16027.016783
2780.558176	16064.808392
2781.905722	16092.217483
2783.253042	16108.617483
2784.600135	16089.402098
2785.945437	16095.268531
2787.290512	16093.137063
2788.635362	16092.913986
2789.979986	16108.664336
2791.321258	16130.200699
2792.663868	16165.031469
2794.006252	16223.832168
2795.348411	16270.313986
2796.687221	16324.946154
2798.028931	16384.882517
2799.367293	16426.389510
2800.706991	16442.777622
2802.044905	16492.497902
2803.381034	16535.323776
2804.716939	16568.570629
2806.054182	16596.817483
2807.389641	16621.530070
2808.724877	16626.095804
2810.058330	16666.653846
2811.393120	16704.682517
2812.724570	16721.239161
2814.058915	16748.769231
2815.388362	16766.191608
2816.719146	16807.897902
2818.049708	16851.239860
2819.378491	16863.551748
2820.708610	16879.039161
2822.036951	16889.870629
2823.365071	16879.316783
2824.691413	16841.666434
2826.019092	16859.186713
2827.343437	16852.067832
2828.669119	16834.830070
2829.993025	16827.632168
2831.316712	16842.578322
2832.641734	16858.291608
2833.963426	16877.953147
2835.284900	16881.366434
2836.606155	16904.205594
2837.927191	16919.751049
2839.246454	16917.320979
2840.567053	16924.789510
2841.885881	16929.338462
2843.204490	16907.658741
2844.521328	16907.438462
2845.837949	16900.143357
2847.154353	16922.595804
2848.468987	16935.117483
2849.784957	16963.782517
2851.097606	16969.651049
2852.411590	16986.007692
2853.725358	16999.331469
2855.038909	17010.832867
2856.350694	17063.044056
2857.660712	17062.126573
2858.972065	17063.215385
2860.280103	17075.979720
2861.589475	17102.774126
2862.898633	17149.211189
2864.207575	17186.679720
2865.514753	17195.763636
2866.820169	17219.090909
2868.126919	17237.271329
2869.431906	17235.744056
2870.736680	17268.944755
2872.039692	17320.341259
2873.345585	17323.905594
2874.646624	17345.022378
2875.948997	17349.027273
2877.249610	17368.612587
2878.551557	17374.430070
2879.853290	17371.282517
2881.151720	17364.313287
2882.451483	17359.911888
2883.749489	17330.269231
2885.047283	17313.750350
2886.343321	17330.923077
2887.640692	17319.053147
2888.936307	17315.459441
2890.231711	17320.880420
2891.526904	17299.872028
2892.818800	17308.015385
2894.113572	17276.268531
2895.405047	17265.565734
2896.697855	17250.597902
2897.990453	17217.361538
2899.279757	17196.829371
2900.570393	17202.551748
2901.859278	17210.727273
2903.149495	17207.434965
2904.436421	17214.243357
2905.724679	17224.411189
2907.011188	17222.475524
2908.297489	17220.946853
2909.583581	17178.427273
2910.867925	17165.488112
2912.155140	17142.653147
2913.437529	17135.004196
2914.721250	17134.632867
2916.003225	17158.102098
2917.284992	17202.423077
2918.565015	17223.331469
2919.847907	17243.439161
2921.129054	17251.306294
2922.406919	17266.025175
2923.687653	17245.376923
2924.965106	17224.022378
2926.242353	17195.562238
2927.517858	17171.416783
2928.796231	17159.200699
2930.069790	17142.897902
2931.346216	17148.480420
2932.620901	17170.376224
2933.893845	17160.070629
2935.168121	17161.589510
2936.440657	17152.010490
2937.712988	17144.373427
2938.982047	17124.529371
2940.253971	17110.298601
2941.524157	17069.240559
2942.794139	17052.697902
2944.063918	17053.287413
2945.331961	17055.823776
2946.598267	17072.523077
2947.864372	17088.912587
2949.131806	17104.124476
2950.397506	17099.709790
2951.663003	17109.006993
2952.928298	17075.839860
2954.190328	17077.743357
2955.453688	17040.710490
2956.716847	17010.979021
2957.978274	17009.340559
2959.241030	17022.987413
2960.502054	17027.560839
2961.761348	17039.679720
2963.020442	17059.160140
2964.279335	17064.324476
2965.538028	17050.121678
2966.796521	17082.389510
2968.053285	17063.197902
2969.309849	17085.225874
2970.564686	17083.324476
2971.820851	17088.518182
2973.073762	17104.628671
2974.328002	17134.239860
2975.582043	17121.645455
2976.834358	17138.002098
2978.086474	17147.468531
2979.336866	17151.998601
2980.590113	17164.048951
2981.838583	17190.846853
2983.089908	17193.709790
2984.337983	17201.240559
2985.585862	17209.800699
2986.833543	17195.726573
2988.081027	17201.189510
2989.326790	17200.682517
2990.572357	17194.261538
2991.819251	17219.002098
2993.062901	17228.000699
2994.307879	17255.906993
2995.549613	17272.004196
2996.794199	17295.142657
2998.037066	17319.709091
2999.276692	17323.265035
3000.519168	17339.911189
3001.758404	17317.777622
3002.998968	17335.865035
3004.237816	17348.209091
3005.476468	17362.156643
3006.713406	17381.548252
3007.951670	17382.696503
3009.188219	17403.672727
3010.424575	17413.577622
3011.660737	17441.821678
3012.895185	17455.554545
3014.129441	17447.403497
3015.363503	17449.289510
3016.595853	17446.044755
3017.826491	17455.450350
3019.059975	17459.291608
3020.291747	17470.979021
3021.521809	17487.151049
3022.751679	17497.844755
3023.979839	17517.325874
3025.209325	17535.053147
3026.437102	17552.944056
3027.664688	17551.630769
3028.893601	17563.915385
3030.117771	17581.618881
3031.344784	17604.627273
3032.568573	17583.162937
3033.793689	17585.269930
3035.017098	17597.615385
3036.240317	17577.302797
3037.461831	17576.039860
3038.686186	17576.205594
3039.905806	17589.370629
3041.126752	17572.984615
3042.347509	17580.075524
3043.566562	17607.457343
3044.786940	17624.381818
3046.004102	17644.478322
3047.222590	17649.225874
3048.439375	17657.869231
3049.655973	17664.595804
3050.872382	17664.701399
3052.085579	17671.726573
3053.301613	17689.796503
3054.514435	17687.059441
3055.730094	17671.071329
3056.941030	17683.941259
3058.153291	17673.373427
3059.365366	17668.992308
3060.577253	17650.194406
3061.787444	17644.257343
3062.997448	17626.477622
3064.207266	17621.288112
3065.415388	17628.396503
3066.623325	17632.717483
3067.829566	17670.246154
3069.037132	17652.674825
3070.243003	17680.797902
3071.448690	17704.406294
3072.654191	17702.498601
3073.857999	17727.605594
3075.063131	17729.455944
3076.266570	17733.511189
3077.468318	17756.434266
3078.669881	17764.858042
3079.871261	17791.400000
3081.072457	17814.943357
3082.271963	17836.611189
3083.471286	17825.969231
3084.671932	17845.770629
3085.870888	17838.138462
3087.066650	17835.266434
3088.265241	17836.223077
3089.460638	17836.754545
3090.657358	17827.288811
3091.850886	17826.246154
3093.047242	17811.765035
3094.241912	17824.220280
3095.433391	17817.532168
3096.629201	17795.072727
3097.820318	17807.281119
3099.012757	17803.439860
3100.202009	17841.405594
3101.394086	17866.482517
3102.584480	17888.934965
3103.771688	17912.366434
3104.960219	17917.316084
3106.150071	17934.797203
3107.336740	17937.196503
3108.523228	17957.177622
3109.709538	17923.913986
3110.897169	17903.011189
3112.081618	17909.301399
3113.264388	17903.085315
3114.449980	17936.889510
3115.633893	17942.469930
3116.816127	17938.293007
3117.998182	17945.797203
3119.180059	17953.334266
3120.361758	17972.014685
3121.541780	17962.288112
3122.720125	17961.795105
3123.901290	17942.700699
3125.079280	17944.090210
3126.257094	17937.418881
3127.434730	17926.435664
3128.610691	17923.655245
3129.786475	17918.634266
3130.963581	17918.954545
3132.139012	17939.728671
3133.312770	17959.429371
3134.484855	17972.297203
3135.658262	17973.282517
3136.831492	18006.450350
3138.003051	18052.704895
3139.175930	18067.321678
3140.345642	18091.953147
3141.516675	18081.243357
3142.686038	18072.798601
3143.853730	18073.058042
3145.024238	18065.939161
3146.190088	18067.702797
3147.360246	18076.486014
3148.525748	18087.219580
3149.691075	18078.124476
3150.856229	18091.711888
3152.021210	18095.104196
3153.187510	18054.258741
3154.349158	18004.224476
3155.512125	17949.428671
3156.674920	17885.641259
3157.837542	17823.798601
3158.998499	17767.346853
3160.159283	17720.557343
3161.319895	17691.804895
3162.478843	17701.467832
3163.637620	17705.952448
3164.796225	17730.445455
3165.954657	17757.913287
3167.112919	17777.590909
3168.269518	17787.810490
3169.424456	17811.115385
3170.580713	17808.232168
3171.735309	17827.516084
3172.889735	17830.199301
3174.042501	17795.597203
3175.195096	17805.549650
3176.347522	17813.581818
3177.499778	17835.370629
3178.651863	17847.203497
3179.800803	17870.914685
3180.952549	17903.127972
3182.102637	17915.580420
3183.251069	17959.549650
3184.399331	18008.805594
3185.547425	18087.046853
3186.695350	18146.850350
3187.841619	18201.279720
3188.987720	18250.811189
3190.132167	18270.479021
3191.276446	18319.622378
3192.420557	18327.868531
3193.565985	18317.044056
3194.708275	18295.293706
3195.850398	18284.590210
3196.992353	18275.834965
3198.134141	18272.828671
3199.275762	18274.406294
3200.414248	18277.063636
3201.554051	18278.401399
3202.695172	18263.613287
3203.833158	18257.991608
3204.969495	18249.411888
3206.105666	18249.772028
3207.243154	18251.062937
3208.378994	18267.333566
3209.516151	18268.499301
3210.648695	18269.906294
3211.785521	18277.627273
3212.917735	18266.104196
3214.051266	18259.197203
3215.184633	18220.903497
3216.314872	18172.955944
3217.447909	18125.018881
3218.577820	18078.379720
3219.709047	18048.908392
3220.837150	18029.228671
3221.968049	18003.523077
3223.097304	17983.920280
3224.224916	17988.784615
3225.349405	17993.848951
3226.478170	18022.567832
3227.603813	18038.830070
3228.729294	18056.994406
3229.853133	18077.839161
3230.979766	18087.946853
3232.101802	18072.652448
3233.225154	18073.458042
3234.348344	18060.425874
3235.471372	18055.638462
3236.592760	18041.451049
3237.713986	18038.267133
3238.833575	18038.997902
3239.953002	18073.662937
3241.070791	18110.473427
3242.191372	18172.036364
3243.308840	18213.608392
3244.426147	18270.343357
3245.543294	18318.388112
3246.658805	18378.401399
3247.775630	18417.465734
3248.889346	18469.521678
3250.005851	18497.104196
3251.120722	18527.971329
3252.232484	18548.903497
3253.344086	18564.723776
3254.457004	18564.769930
3255.569762	18577.155245
3256.679414	18550.320280
3257.790381	18558.826573
3258.901189	18546.851748
3260.010365	18545.702797
3261.117911	18572.879021
3262.226770	18619.783217
3263.335472	18654.497203
3264.441071	18707.060140
3265.547984	18747.160839
3266.653268	18755.904895
3267.759866	18773.736364
3268.863364	18792.704196
3269.968177	18781.520280
3271.072832	18809.218881
3272.174388	18820.531469
3273.275788	18854.096503
3274.378502	18884.979021
3275.481060	18922.889510
3276.580521	18939.375524
3277.682766	18964.206294
3278.781915	18959.245455
3279.879440	18947.039860
3280.976809	18939.604196
3282.076960	18917.780420
3283.174019	18886.238462
3284.270922	18900.653147
3285.367670	18876.471329
3286.459860	18874.688811
3287.556298	18868.139161
3288.651114	18828.678322
3289.745776	18803.767133
3290.838816	18795.162238
3291.931701	18788.570629
3293.022967	18778.927273
3294.115544	18761.094406
3295.206502	18765.611888
3296.295840	18752.381818
3297.385025	18797.660839
3298.475523	18787.625175
3299.562936	18800.992308
3300.650196	18813.051748
3301.738769	18802.528671
3302.827190	18811.002797
3303.911063	18840.157343
3304.999178	18855.551049
3306.084211	18862.770629
3307.167629	18895.195105
3308.252359	18924.519580
3309.335473	18959.769930
3310.419900	19002.434266
3311.501248	19011.714685
3312.583908	18998.753147
3313.664954	19009.070629
3314.745849	19012.681119
3315.825130	18980.456643
3316.904261	18990.520280
3317.984704	18980.218182
3319.062072	18969.744056
3320.140752	19001.200699
3321.217820	19016.632867
3322.294739	19062.766434
3323.370046	19082.013986
3324.445204	19086.699301
3325.521673	19082.355944
3326.595072	19099.549650
3327.668322	19101.537063
3328.742882	19106.120979
3329.815834	19114.795105
3330.887177	19099.095804
3331.959831	19087.206993
3333.029419	19093.657343
3334.100317	19076.452448
3335.169608	19056.523077
3336.240210	19025.802098
3337.309205	18982.653846
3338.376594	18962.974126
3339.442378	18930.506993
3340.512388	18907.899301
3341.579335	18909.144755
3342.643220	18885.848951
3343.709873	18888.046154
3344.774921	18896.145455
3345.838366	18899.624476
3346.901665	18889.173427
3347.964817	18891.767832
3349.027823	18870.972028
3350.090683	18875.596503
3351.151941	18864.452448
3352.210142	18836.834266
3353.272563	18842.605594
3354.331929	18841.100699
3355.391149	18847.083916
3356.451679	18886.524476
3357.507699	18939.055245
3358.566483	18967.112587
3359.620760	19008.995804
3360.677801	19045.627273
3361.733243	19059.293706
3362.789995	19106.235664
3363.845148	19106.931469
3364.898704	19107.737762
3365.950664	19127.113287
3367.005385	19131.490210
3368.057057	19159.717483
3369.108586	19194.798601
3370.161423	19212.725175
3371.211213	19221.762937
3372.262312	19245.924476
3373.310365	19267.278322
3374.361177	19270.144056
3375.408945	19290.636364
3376.456570	19285.671329
3377.504052	19283.605594
3378.549942	19280.304895
3379.597140	19275.872028
3380.641296	19292.453147
3381.688210	19288.577622
3382.733532	19261.087413
3383.775813	19245.797902
3384.817954	19245.695105
3385.861402	19243.841958
3386.904709	19211.130070
3387.946427	19211.994406
3388.988003	19221.047552
3390.029438	19229.465734
3391.069285	19258.197203
3392.107543	19276.476224
3393.147109	19320.774126
3394.186535	19328.769231
3395.224373	19332.472028
3396.260624	19336.047552
3397.296736	19337.591608
3398.334155	19324.469231
3399.368541	19300.123776
3400.404234	19301.283217
3401.439788	19309.367133
3402.472311	19334.022378
3403.507587	19359.319580
3404.539832	19368.823077
3405.571939	19395.176923
3406.602462	19417.374825
3407.634292	19448.793706
3408.665984	19455.841958
3409.694648	19465.318881
3410.723175	19460.325175
3411.753008	19440.597902
3412.782704	19437.922378
3413.809374	19443.888811
3414.837351	19461.462937
3415.862303	19436.717483
3416.890005	19454.927972
3417.914684	19437.915385
3418.940669	19439.993007
3419.965074	19446.273427
3420.989343	19415.411888
3422.012033	19408.472727
3423.034587	19373.418182
3424.058447	19336.825874
3425.079287	19297.553846
3426.099991	19257.262837
3427.122002	19221.610240
3428.140994	19194.497103
3429.159850	19179.824476
3430.180013	19181.493407
3431.197159	19203.404945
