-118.059454	120.220330
-115.389854	120.250549
-112.723189	120.381918
-110.057276	120.619680
-107.394295	120.969081
-104.729885	121.435365
-102.068405	122.023776
-99.405496	122.679021
-96.747693	122.667133
-94.088461	123.741259
-91.429977	127.972727
-88.774417	128.510490
-86.117429	127.804895
-83.465539	128.029371
-80.812218	129.666434
-78.161818	130.247552
-75.509988	132.148252
-72.863249	130.927273
-70.215081	131.172028
-67.567655	129.937063
-64.923143	132.023776
-62.277203	133.568531
-59.636344	132.409091
-56.994056	128.060839
-54.354677	128.202098
-51.713868	127.038462
-49.073800	128.617483
-46.438804	129.344755
-43.802380	131.012587
-41.168858	129.194406
-38.533908	129.843357
-35.904023	130.012587
-33.270546	133.469231
-30.642131	135.128671
-28.014450	135.469930
-25.385340	135.576923
-22.761287	123.714685
-20.133645	87.606294
-17.511056	14.113986
-14.889199	81.277622
-12.268072	368.989510
-9.647675	759.836364
-7.030167	1069.224476
-4.411230	1274.719580
-1.795178	1375.510490
0.820145	1373.858042
3.434741	1267.572727
6.046454	1059.980420
8.659596	757.623077
11.267704	403.566434
13.879394	80.359441
16.486053	-23.025874
19.094140	53.713287
21.701503	142.675524
24.303841	155.682517
26.909757	160.095105
29.510651	163.500000
32.112973	165.552448
34.710278	166.174126
37.311158	166.639860
39.907023	168.497203
42.504317	171.803497
45.100891	173.227273
47.692456	171.014685
50.285449	171.007692
52.875581	171.148252
55.467141	176.217483
58.055841	179.734266
60.645968	186.034266
63.231096	189.060140
65.817652	192.003497
68.403494	198.553147
70.986482	204.872028
73.570896	207.984615
76.148182	214.265035
78.729034	215.302098
81.307037	219.885315
83.884330	222.612587
86.463049	227.727273
89.036786	231.657343
91.611951	237.271329
94.184272	238.896503
96.755885	243.720280
99.324658	253.840559
101.894858	266.432867
104.462220	279.107692
107.031007	300.112587
109.596958	325.389510
112.160074	362.823077
114.726746	416.527972
117.284197	501.232168
119.847333	642.561538
122.405509	902.181818
124.967240	1364.037762
127.524014	2151.546853
130.082215	3420.575524
132.635462	5225.669231
135.188012	7576.511189
137.744112	10370.220280
140.295264	13405.746154
142.845719	16493.344755
145.395476	19376.285315
147.942414	21816.825874
150.488657	23726.201399
153.036325	25017.501399
155.583297	25777.602797
158.125334	26117.822378
160.666677	26212.293706
163.207327	26178.124476
165.749403	26106.767832
168.288667	26052.984615
170.825123	26005.311888
173.360887	25984.156643
175.898077	25943.734266
178.434576	25913.248951
180.968269	25914.546853
183.499158	25903.386014
186.029360	25933.913986
188.560986	25969.394406
191.089811	26004.585315
193.615837	26049.280420
196.141177	26076.918881
198.667942	26105.413287
201.191911	26099.301399
203.715195	26073.105594
206.237794	26037.652448
208.757600	26035.786014
211.276723	26050.326573
213.795163	26060.676224
216.315027	26092.077622
218.827890	26132.705594
221.344284	26155.239161
223.859996	26202.088811
226.370818	26227.911888
228.883065	26258.509790
231.392530	26259.383217
233.901316	26272.035664
236.409423	26268.921678
238.918955	26262.623077
241.423606	26266.337762
243.927581	26242.768531
246.432980	26252.976923
248.933504	26247.197902
251.437552	26240.262937
253.934628	26248.428671
256.435228	26253.927273
258.933056	26250.331469
261.430211	26243.872727
263.926693	26265.921678
266.418312	26247.865734
268.913451	26182.793706
271.405823	26131.322378
273.897525	26088.512587
276.386464	26054.319580
278.876827	25974.774126
281.364427	25937.516783
283.849268	25867.997203
286.337624	25813.709790
288.819040	25762.918881
291.303970	25764.767133
293.784055	25757.274126
296.267652	25740.215385
298.746406	25697.146853
301.226584	25696.064336
303.704009	25682.653846
306.180771	25648.120979
308.656870	25623.733566
311.130220	25659.365734
313.602908	25651.474825
316.074935	25669.139161
318.546301	25710.265035
321.014922	25747.883916
323.482885	25802.865734
325.952269	25838.761538
328.416831	25871.560839
330.884897	25925.412587
333.348143	25952.383916
335.810731	25998.223776
338.272663	26053.012587
340.733938	26120.776224
343.192479	26140.539860
345.652442	26138.181119
348.109672	26128.916084
350.566248	26087.299301
353.022170	26061.548252
355.475362	25970.423776
357.929977	25883.622378
360.379790	25794.230070
362.833099	25696.745455
365.281610	25580.530070
367.729469	25478.034266
370.178751	25391.678322
372.623239	25303.658042
375.069149	25238.175524
377.514409	25192.690909
379.956951	25160.172028
382.398845	25148.727972
384.840092	25111.829371
387.278623	25114.951748
389.718576	25111.488112
392.155815	25125.596503
394.590342	25116.916783
397.028357	25169.723776
399.461595	25229.888811
401.896254	25290.747552
404.326141	25366.455944
406.759513	25442.033566
409.188115	25503.344056
411.616075	25566.284615
414.045457	25590.312587
416.470073	25646.859441
418.896111	25656.204196
421.321508	25679.287413
423.746265	25685.876923
426.166264	25711.479720
428.587684	25720.338462
431.006407	25729.522378
433.426551	25760.354545
435.844000	25767.004895
438.262869	25770.085315
440.679045	25807.823776
443.090473	25827.344755
445.505379	25857.355245
447.917594	25902.608392
450.329175	25943.349650
452.740122	25994.469930
455.148383	26022.158741
457.556011	26057.869231
459.963007	26098.970629
462.369372	26138.828671
464.773054	26141.558042
467.176106	26169.190909
469.578528	26191.200000
471.980320	26203.127972
474.379435	26227.003497
476.779969	26235.646853
479.179874	26215.948951
481.575056	26203.006294
483.973705	26154.514685
486.367634	26109.553147
488.760937	26072.429371
491.153614	26019.832867
493.545666	25962.941259
495.939136	25907.201399
498.327894	25861.263636
500.713986	25814.167832
503.101498	25758.036364
505.488387	25712.804196
507.872612	25681.981818
510.258255	25646.339161
512.641237	25610.744755
515.021558	25586.131469
517.403298	25567.327273
519.782379	25567.529371
522.162879	25588.602797
524.540721	25604.077622
526.915908	25629.498601
529.290477	25604.319580
531.666464	25616.581119
534.039799	25622.532867
536.414551	25611.738462
538.784618	25591.356643
541.154069	25558.262937
543.524938	25518.055245
545.891127	25454.313287
548.258734	25436.411189
550.623695	25423.620280
552.988043	25414.416783
555.351778	25379.576923
557.716931	25352.715385
560.077412	25343.944755
562.439311	25310.279021
564.798569	25313.283916
567.155190	25318.327273
569.515255	25315.531469
571.868629	25304.823776
574.225448	25278.634266
576.579632	25297.055245
578.933208	25308.301399
581.286175	25309.701399
583.636510	25286.372727
585.988263	25272.035664
588.333339	25250.269930
590.683879	25226.504196
593.027745	25208.677622
595.377073	25179.313986
597.721752	25170.856643
600.063807	25118.500699
602.407279	25091.891608
604.748128	25070.170629
607.088375	25012.457343
609.426001	24955.369231
611.767062	24899.669930
614.103485	24865.483916
616.441325	24843.584615
618.776548	24807.207692
621.109155	24769.728671
623.443178	24737.071329
625.774587	24728.930070
628.105398	24685.695804
630.435612	24679.853147
632.765227	24674.742657
635.090220	24648.909790
637.420653	24640.731469
639.746466	24651.665734
642.069671	24668.169231
644.394293	24687.042657
646.716309	24695.883217
649.037731	24721.771329
651.356551	24728.392308
653.676786	24748.295804
655.996428	24793.680420
658.313469	24819.341958
660.629918	24856.972727
662.943769	24877.182517
665.259036	24887.222378
667.571706	24894.644056
669.885791	24877.909790
672.195276	24906.981119
674.506177	24912.758042
676.814485	24937.963636
679.122205	24937.369930
681.431339	24935.509790
683.735881	24968.230769
686.039837	24949.453846
688.343207	24963.613986
690.647991	24966.744755
692.948189	24956.313986
695.249801	24954.430769
697.550829	24932.425874
699.847274	24923.335664
702.145135	24884.658741
704.442412	24873.221678
706.739106	24845.092308
709.031224	24795.651049
711.326753	24786.117483
713.617708	24749.358741
715.910078	24776.434266
718.199873	24794.199301
720.489087	24839.862937
722.777722	24902.118881
725.063784	24932.234266
727.351261	24943.516084
729.636166	24975.450350
731.920494	24996.685315
734.202253	25004.479720
736.485426	25017.989510
738.768022	25035.934965
741.046062	25038.837762
743.325517	25085.806993
745.604395	25106.772727
747.882699	25124.818182
750.156453	25166.626573
752.431620	25173.309091
754.706214	25171.347552
756.978249	25170.226573
759.251697	25150.865734
761.522587	25186.513986
763.790921	25210.906294
766.060668	25230.689510
768.327861	25244.388811
770.594483	25251.713986
772.860535	25220.641958
775.124036	25179.134266
777.388950	25170.209091
779.653294	25121.043357
781.913109	25090.251748
784.174336	25085.972028
786.434996	25069.693706
788.693110	25126.153147
790.948679	25135.617483
793.207639	25138.904196
795.460100	25146.434266
797.717927	25142.625175
799.971236	25114.880420
802.222005	25062.197902
804.474186	25033.907692
806.723828	24991.321678
808.974883	24974.017483
811.221426	24958.016783
813.469381	24916.351748
815.714802	24896.995804
817.961634	24850.247552
820.207905	24789.088811
822.449671	24758.097203
824.694821	24725.693706
826.933498	24687.765734
829.175557	24603.723077
831.413118	24595.809091
833.652091	24567.641259
835.888537	24547.544755
838.126394	24521.102797
840.361726	24506.553846
842.594535	24508.902797
844.828755	24512.518182
847.060452	24530.830070
849.291595	24563.263636
851.522183	24588.348252
853.752217	24596.574126
855.981697	24603.329371
858.206695	24672.459441
860.435068	24672.956643
862.658961	24666.570629
864.884266	24651.490210
867.105095	24649.530769
869.329296	24659.173427
871.549024	24643.412587
873.770162	24639.170629
875.990750	24610.312587
878.208829	24590.740559
880.428317	24560.872727
882.643339	24539.772028
884.857814	24527.688112
887.071740	24471.772028
889.285120	24411.921678
891.497952	24374.977622
893.710238	24349.225874
895.920021	24327.388112
898.129259	24295.758741
900.337952	24296.927972
902.544146	24286.532168
904.751749	24297.057343
906.956854	24304.240559
909.161416	24302.701399
911.363483	24340.716084
913.566959	24384.909091
915.767941	24444.882517
917.968381	24513.939860
920.170230	24594.573427
922.365688	24676.720979
924.564505	24739.172028
926.758883	24812.063636
928.956619	24865.755944
931.149919	24905.834266
933.344628	24971.741259
935.536851	25006.247552
937.728535	25052.130769
939.919682	25094.833566
942.108346	25136.903497
944.296474	25164.652448
946.482121	25218.302098
948.671120	25286.400000
950.855696	25338.002098
953.039737	25399.944755
955.227128	25504.001399
957.406215	25587.106294
959.588653	25733.537762
961.770557	25847.457343
963.949986	25965.289510
966.126943	26081.019580
968.305308	26176.395105
970.485080	26251.982517
972.658503	26337.017483
974.835272	26445.312587
977.007634	26503.365734
979.181404	26576.413287
981.350770	26639.742657
983.523480	26728.245455
985.693725	26826.838462
987.863441	26907.255944
990.032628	27011.971329
992.197418	27103.779021
994.365549	27235.262238
996.529286	27334.454545
998.694429	27440.550350
1000.857113	27526.458042
1003.019272	27570.962937
1005.178974	27634.480420
1007.338151	27664.395105
1009.498735	27737.541259
1011.656865	27761.526573
1013.814470	27774.571329
1015.971552	27816.068531
1018.128110	27880.520979
1020.280289	27985.847552
1022.433875	28085.841958
1024.586939	28240.709790
1026.737554	28396.717483
1028.889576	28572.595804
1031.037224	28734.169231
1033.188204	28900.686014
1035.334813	29036.559441
1037.480903	29130.095804
1039.626475	29203.042657
1041.773452	29260.853147
1043.914140	29334.617483
1046.058158	29394.640559
1048.199735	29474.186014
1050.340796	29586.553846
1052.483261	29648.583217
1054.619447	29719.532168
1056.758958	29707.804895
1058.894115	29702.484615
1061.032596	29673.464336
1063.166723	29608.248252
1065.300337	29562.654545
1067.435356	29488.351049
1069.566025	29427.246154
1071.698099	29351.989510
1073.827744	29244.260140
1075.956877	29164.768531
1078.085498	29056.901399
1080.213608	28953.702098
1082.339292	28810.065734
1084.464466	28679.938462
1086.591044	28555.906294
1088.713284	28418.790909
1090.836929	28327.239161
1092.956239	28210.127273
1095.080779	28111.875524
1097.199073	28034.598601
1099.318772	27932.583217
1101.436052	27865.043357
1103.552826	27796.713986
1105.669093	27731.307692
1107.782944	27654.893007
1109.898200	27550.708392
1112.009132	27448.155944
1114.123377	27352.488811
1116.233301	27276.965734
1118.344629	27205.054545
1120.455452	27127.714685
1122.561959	27069.779021
1124.671776	27016.360839
1126.777278	26988.930769
1128.884183	26946.946154
1130.984873	26924.744056
1133.090775	26852.760839
1135.192368	26789.373427
1137.295364	26724.286713
1139.397859	26648.326573
1141.494147	26554.989510
1143.595643	26486.811888
1145.692835	26381.479720
1147.789530	26349.881818
1149.885726	26288.404895
1151.981425	26250.872028
1154.076625	26207.971329
1156.169429	26201.466434
1158.263636	26160.807692
1160.351651	26219.957343
1162.444864	26198.181818
1164.531889	26190.279720
1166.622213	26199.190909
1168.708250	26254.958042
1170.797584	26287.233566
1172.880737	26314.131469
1174.965292	26333.739161
1177.051249	26356.687413
1179.132924	26422.467832
1181.216001	26426.648951
1183.296692	26453.225175
1185.376891	26488.532867
1187.456599	26409.560140
1189.535816	26413.166434
1191.612651	26422.519580
1193.687105	26427.234266
1195.764850	26397.819580
1197.838326	26374.580420
1199.913202	26369.758042
1201.983811	26340.375524
1204.055821	26430.925874
1206.125456	26452.277622
1208.196491	26469.277622
1210.267038	26493.401399
1212.333324	26499.910490
1214.401011	26559.148951
1216.466326	26590.697902
1218.533041	26579.223776
1220.595500	26558.755944
1222.661244	26553.987413
1224.722734	26477.809091
1226.785625	26486.823776
1228.846148	26579.418881
1230.906187	26556.739860
1232.965744	26544.786713
1235.022935	26650.011888
1237.079645	26659.765734
1239.133991	26747.097203
1241.191619	26872.991608
1243.246884	26955.772028
1245.297908	26999.389510
1247.350332	27127.118881
1249.402276	27212.886713
1251.451862	27334.759441
1253.500969	27487.321678
1255.549598	27533.267832
1257.597748	27659.134965
1259.645419	27834.293007
1261.688860	27871.977622
1263.735577	28008.904196
1265.779940	28205.879720
1267.823827	28395.698601
1269.865362	28489.048252
1271.904548	28777.840559
1273.947007	28988.884615
1275.985243	29266.993007
1278.024878	29593.279021
1280.064038	29889.652448
1282.098979	30300.969930
1284.135319	30772.494406
1286.169315	31230.336364
1288.204708	31682.418182
1290.235889	32192.030769
1292.268467	32696.498601
1294.300574	33041.892308
1296.330340	33508.654545
1298.361504	33730.763636
1300.388460	34029.206993
1302.416814	34191.343357
1304.440963	34319.193007
1306.468378	34582.727972
1308.491590	34875.628671
1310.516200	35294.823077
1312.538476	37008.152448
1314.562149	40065.088811
1316.583489	44005.158741
1318.604361	48403.915385
1320.624766	52949.831469
1322.640978	57117.831469
1324.658587	60794.261538
1326.673868	63506.502797
1328.692408	65806.938462
1330.706759	67301.234965
1332.718784	66846.858042
1334.734066	64669.638462
1336.745163	61819.702098
1338.757657	57979.128671
1340.765968	53298.763636
1342.777534	48197.724476
1344.783062	43011.786014
1346.791845	38168.714685
1348.796450	34096.823077
1350.804309	31327.249650
1352.811706	30261.740559
1354.813072	30016.701399
1356.815834	29723.338462
1358.818137	29405.849650
1360.819980	29167.679021
1362.821363	28895.895105
1364.820433	28725.767133
1366.819044	28621.422378
1368.817197	28496.222378
1370.814891	28413.368531
1372.808423	28273.823077
1374.803351	28240.403497
1376.797821	28165.951049
1378.791835	28046.310490
1380.783542	27992.318881
1382.774794	27895.657343
1384.763740	27860.955944
1386.754081	27782.405594
1388.743967	27770.039161
1390.731549	27713.925874
1392.718678	27698.547552
1394.703505	27767.461538
1396.689727	27757.992308
1398.673649	27858.065734
1400.657118	27866.953846
1402.640134	27893.113287
1404.620853	27927.024476
1406.602966	27976.648951
1408.582783	28037.495804
1410.562148	28124.006294
1412.537375	28166.137762
1414.515840	28222.983217
1416.492012	28321.941259
1418.467735	28443.686014
1420.443008	28519.948252
1422.415990	28617.049650
1424.388524	28663.890909
1426.360610	28780.681119
1428.332249	28843.997203
1430.299759	28988.261538
1432.272343	29076.845455
1434.237122	29182.683217
1436.206972	29239.948252
1438.172699	29305.827972
1440.139818	29372.237762
1442.104654	29383.879021
1444.065370	29393.431469
1446.031154	29395.782517
1447.990983	29425.172028
1449.952206	29447.358042
1451.914821	29450.853147
1453.873321	29541.716084
1455.831378	29578.749650
1457.788994	29615.610490
1459.746167	29655.141259
1461.701065	29712.531469
1463.657356	29759.002098
1465.611372	29707.581119
1467.564947	29678.040559
1469.516250	29657.826573
1471.468946	29623.667133
1473.419369	29508.220979
1475.369354	29424.405594
1477.318900	29405.901399
1479.266177	29326.411888
1481.211186	29274.037063
1483.157588	29248.223776
1485.103552	29268.944755
1487.049079	29261.794406
1488.992340	29248.548951
1490.935166	29260.152448
1492.875728	29257.260839
1494.817681	29227.251748
1496.757372	29207.513287
1498.696629	29240.263636
1500.635450	29205.339161
1502.572012	29174.063636
1504.509965	29192.313287
1506.445659	29202.870629
1508.380920	29223.860839
1510.313925	29269.280420
1512.246497	29333.062238
1514.178637	29364.718881
1516.110345	29409.816783
1518.039799	29472.287413
1519.970644	29537.925175
1521.901057	29604.023776
1523.827398	29602.967133
1525.755130	29658.216783
1527.680611	29673.037762
1529.605663	29703.681119
1531.530286	29724.086014
1533.454480	29836.779021
1535.376426	29899.902797
1537.299763	29934.022378
1539.220853	30000.528671
1541.139700	30054.330769
1543.059935	30076.761538
1544.977928	30101.558042
1546.895494	30095.741958
1548.810818	30115.014685
1550.727532	30096.567832
1552.640191	30092.419580
1554.556054	30197.478322
1556.469677	30265.615385
1558.381062	30326.141958
1560.293837	30380.486014
1562.202562	30436.034266
1564.112676	30476.831469
1566.022367	30522.939860
1567.931635	30493.420979
1569.838669	30454.832168
1571.743470	30472.044755
1573.649660	30476.141958
1575.553618	30478.653846
1577.457155	30546.283217
1579.360272	30541.288112
1581.261159	30571.693706
1583.163435	30567.404895
1585.063483	30549.670629
1586.964918	30576.603497
1588.862320	30559.523077
1590.759303	30488.575524
1592.655868	30503.152448
1594.553821	30593.893706
1596.445939	30607.297203
1598.341250	30639.727972
1600.236144	30698.912587
1602.128816	30754.534266
1604.021071	30798.484615
1605.911107	30834.065035
1607.800727	30887.541958
1609.689932	30939.116084
1611.578722	30964.442657
1613.465294	31044.513986
1615.353254	31144.463636
1617.237197	31170.924476
1619.122527	31209.055245
1621.007444	31254.692308
1622.890147	31299.590909
1624.774237	31289.417483
1626.654315	31323.083217
1628.535781	31343.418182
1630.415036	31377.520979
1632.295677	31379.940559
1634.170514	31445.606294
1636.050332	31521.522378
1637.926146	31560.398601
1639.801549	31598.346853
1641.678338	31711.693007
1643.549331	31713.748252
1645.423505	31761.430769
1647.293680	31767.978322
1649.167037	31761.273427
1651.038190	31751.910490
1652.907141	31732.602797
1654.777477	31720.841259
1656.643821	31663.855245
1658.511550	31728.454545
1660.377080	31695.447552
1662.243996	31685.118881
1664.106923	31676.855245
1665.971235	31654.442657
1667.833351	31620.722378
1669.695062	31589.678322
1671.558159	31512.177622
1673.419060	31476.734965
1675.277769	31477.716783
1677.136074	31451.094406
1678.995764	31450.115385
1680.849686	31523.088112
1682.706782	31518.790210
1684.563475	31540.134965
1686.416191	31583.240559
1688.272079	31573.785315
1690.123993	31581.922378
1691.975506	31586.109790
1693.826618	31541.449650
1695.677330	31505.095804
1697.527641	31401.045455
1699.375767	31406.108392
1701.225278	31386.227273
1703.069040	31318.186014
1704.917751	31287.781119
1706.760716	31206.216783
1708.606848	31181.555944
1710.449017	31094.234965
1712.294352	31121.614685
1714.133946	31050.235664
1715.974924	30965.962937
1717.817285	30895.384615
1719.655690	30833.125874
1721.495478	30870.261538
1723.333091	30764.743357
1725.170308	30731.716783
1727.005352	30643.110490
1728.841779	30541.420979
1730.676034	30456.246154
1732.509894	30378.479720
1734.343360	30348.234965
1736.172881	30230.224476
1738.005560	30113.453147
1739.834295	30024.913986
1741.666187	29922.998601
1743.494137	29790.639161
1745.321696	29667.324476
1747.148862	29566.832168
1748.975637	29421.465035
1750.802020	29325.314685
1752.624467	29189.181119
1754.450069	29153.169930
1756.271736	29006.606294
1758.094785	28895.811189
1759.915672	28767.891608
1761.736171	28648.713287
1763.558051	28554.712587
1765.374231	28479.427972
1767.193563	28399.848951
1769.008968	28326.882517
1770.827523	28265.266434
1772.642153	28247.716783
1774.456396	28223.918881
1776.270253	28211.328671
1778.083723	28147.232168
1779.895040	28120.120280
1781.707737	28054.086014
1783.520049	28014.971329
1785.328443	27985.004895
1787.138217	27944.386713
1788.944077	27884.095804
1790.753082	27818.175524
1792.558174	27760.788112
1794.364647	27760.746154
1796.170736	27714.037063
1797.972914	27696.888112
1799.778237	27660.034965
1801.579651	27604.648951
1803.382445	27564.981119
1805.181333	27529.597203
1806.981602	27471.370629
1808.781489	27425.448951
1810.579234	27352.386713
1812.376599	27281.019580
1814.173584	27257.555245
1815.970188	27238.418182
1817.764653	27182.434266
1819.560497	27191.220280
1821.350686	27121.379720
1823.145772	27117.121678
1824.935206	27085.704196
1826.727776	27080.609091
1828.518211	27088.128671
1830.306512	27081.007692
1832.097948	27048.962238
1833.883738	27026.937762
1835.670908	27042.162238
1837.455946	27017.181818
1839.244118	27012.148951
1841.028404	26996.530070
1842.810560	26968.983916
1844.594096	26993.691608
1846.375503	26955.360839
1848.158289	26968.462937
1849.937194	26970.381119
1851.717479	26931.747552
1853.495637	26918.906294
1855.275174	26894.139860
1857.052586	26862.976923
1858.827874	26829.588811
1860.604540	26837.943357
1862.379084	26856.904895
1864.155006	26862.692308
1865.925307	26916.213287
1867.698736	26902.448951
1869.470045	26946.526573
1871.240983	26962.041259
1873.013299	27006.216783
1874.780001	27037.014685
1876.549829	27038.350350
1878.315793	27056.327273
1880.084880	27067.372727
1881.850106	27078.655245
1883.614964	27065.113986
1885.381199	27022.758042
1887.143575	27002.474126
1888.905584	26998.756643
1890.667225	27002.320280
1892.428500	27019.128671
1894.189407	27056.660140
1895.949948	27072.234965
1897.708379	27113.989510
1899.466444	27178.283217
1901.222402	27248.288112
1902.979736	27308.159441
1904.736705	27358.806294
1906.491567	27451.960839
1908.244325	27495.944056
1909.996718	27578.577622
1911.750488	27628.195105
1913.502154	27734.345455
1915.251718	27787.148951
1917.002657	27864.702098
1918.753234	27959.182517
1920.499971	28039.802797
1922.248085	28169.883916
1923.994099	28258.837063
1925.741488	28382.429371
1927.486780	28494.705594
1929.229974	28562.646853
1930.974543	28674.745455
1932.717017	28770.673427
1934.459130	28898.267133
1936.200883	28988.784965
1937.942276	29116.590909
1939.681576	29253.935315
1941.420517	29390.859441
1943.159099	29542.808042
1944.895590	29668.690909
1946.631723	29796.679371
1948.369230	29879.287413
1950.102915	29972.245105
1951.837975	30083.674126
1953.570946	30151.305245
1955.303561	30246.182517
1957.035820	30311.889860
1958.767722	30404.501399
1960.497538	30514.455245
1962.225269	30620.373427
1963.954375	30737.869231
1965.683126	30827.111189
1967.409793	30904.683217
1969.136106	30986.345455
1970.863792	31069.508392
1972.585942	31182.649650
1974.311193	31302.918182
1976.032637	31430.744056
1977.757182	31514.916084
1979.479646	31605.534965
1981.198308	31702.371329
1982.920068	31797.038462
1984.638026	31893.631469
1986.357357	31956.707692
1988.072889	32025.439860
1989.793241	32118.979720
1991.509795	32187.518881
1993.222552	32316.246853
1994.938405	32416.964336
1996.652186	32536.458042
1998.365617	32645.277622
2000.076977	32727.784615
2001.789709	32858.101399
2003.498651	32981.556643
2005.210685	33081.482517
2006.917211	33181.270629
2008.626828	33254.027273
2010.334379	33316.848951
2012.041581	33390.710490
2013.746718	33446.330769
2015.451509	33489.160839
2017.157671	33567.994406
2018.860051	33628.095105
2020.563802	33658.189510
2022.265491	33704.927972
2023.966835	33731.645455
2025.667833	33727.530769
2027.366770	33755.327273
2029.067079	33772.806294
2030.763613	33788.241958
2032.461518	33827.002098
2034.157364	33837.365734
2035.856296	33878.132168
2037.549742	33924.595105
2039.244559	33946.393706
2040.939034	33987.364336
2042.629740	33975.223077
2044.323530	33964.276923
2046.013553	33931.023776
2047.704947	33931.756643
2049.394288	33873.451748
2051.084999	33813.177622
2052.771947	33768.785315
2054.458556	33701.120280
2056.146534	33655.163636
2057.830753	33611.361538
2059.516343	33582.551049
2061.201593	33577.786713
2062.884794	33537.424476
2064.569366	33525.093007
2066.248475	33554.865035
2067.932369	33578.825874
2069.610802	33575.109091
2071.292313	33601.910490
2072.970072	33623.972028
2074.647495	33632.690909
2076.326287	33659.077622
2078.003037	33672.184615
2079.677745	33694.911189
2081.353822	33677.491608
2083.027859	33665.798601
2084.701560	33657.729371
2086.374926	33696.818881
2088.046253	33671.051748
2089.717246	33655.465734
2091.387905	33606.572028
2093.058230	33606.761538
2094.728221	33600.702098
2096.396176	33639.981119
2098.063798	33677.490210
2099.729385	33779.967133
2101.396341	33882.178322
2103.061264	34037.758741
2104.725855	34165.878322
2106.388414	34288.184615
2108.052341	34373.886014
2109.714237	34446.446154
2111.375803	34518.777622
2113.037037	34605.583217
2114.696243	34634.503497
2116.355118	34710.650350
2118.013664	34775.794406
2119.671880	34850.894406
2121.326372	34921.058741
2122.983929	35018.803497
2124.641157	35042.802797
2126.294663	35067.955245
2127.949537	35089.298601
2129.600692	35049.826573
2131.254910	35047.078322
2132.905411	35037.085315
2134.557278	35023.555245
2136.203737	35020.885315
2137.854951	35063.241958
2139.502451	35076.255245
2141.151318	35147.287413
2142.798166	35207.423776
2144.444689	35234.134266
2146.090886	35288.400699
2147.733375	35303.416783
2149.378922	35305.991608
2151.020762	35325.436364
2152.665659	35366.733566
2154.306850	35398.261538
2155.947719	35419.135664
2157.588263	35489.458741
2159.226795	35506.783217
2160.866693	35497.688811
2162.502891	35503.651049
2164.140455	35505.485315
2165.777697	35533.793706
2167.412929	35532.295105
2169.047840	35556.307692
2170.682428	35581.268531
2172.316696	35620.711189
2173.947270	35677.597203
2175.580896	35741.797203
2177.210830	35811.853846
2178.842129	35844.858042
2180.471423	35848.376923
2182.100398	35856.832867
2183.729053	35899.309091
2185.357389	35887.420280
2186.983723	35868.423077
2188.609738	35827.240559
2190.233751	35820.911888
2191.859130	35797.741958
2193.482508	35805.162937
2195.107251	35826.409091
2196.728313	35826.360140
2198.349058	35774.699301
2199.971168	35745.784615
2201.591280	35708.330769
2203.209395	35701.024476
2204.827195	35670.825874
2206.444680	35662.726573
2208.061849	35673.806993
2209.678703	35733.674126
2211.295241	35761.009091
2212.909787	35811.646154
2214.522340	35848.784615
2216.136257	35885.599301
2217.748183	35912.174126
2219.361472	35941.223077
2220.972771	35947.508392
2222.582080	35933.594406
2224.192753	35961.072028
2225.801437	36003.611888
2227.409808	36071.381119
2229.016193	36132.260839
2230.623941	36163.193007
2232.229702	36270.344056
2233.835152	36342.913287
2235.438617	36442.227273
2237.043445	36540.318182
2238.646289	36581.999301
2240.247150	36628.188811
2241.849374	36671.793007
2243.449616	36728.320280
2245.051220	36782.346154
2246.649171	36827.178322
2248.248485	36903.987413
2249.845819	36943.583916
2251.442845	37060.478322
2253.041233	37100.096503
2254.635972	37162.971329
2256.228734	37243.543357
2257.822859	37282.981119
2259.418345	37306.227273
2261.010186	37362.307692
2262.601721	37398.151049
2264.194618	37402.018182
2265.782205	37440.365035
2267.374488	37450.119580
2268.961465	37410.448951
2270.551469	37405.245455
2272.136169	37330.051748
2273.725563	37270.610490
2275.309655	37164.054545
2276.895107	37017.625874
2278.478591	36920.048951
2280.065100	36881.451049
2281.647976	36833.840559
2283.230549	36794.636713
2284.812818	36800.849650
2286.391457	36811.858392
2287.973121	36816.572727
2289.551156	36824.846503
2291.132214	36806.555245
2292.709645	36785.003846
2294.285113	36727.467832
2295.863603	36679.173077
2297.438469	36669.269930
2299.013034	36604.038811
2300.587299	36545.084615
2302.161263	36499.764685
2303.734926	36481.105594
2305.308290	36466.018881
2306.878035	36432.391608
2308.447481	36427.197902
2310.019945	36472.565035
2311.587135	36515.074825
2313.157343	36610.005594
2314.723936	36658.565734
2316.291889	36730.969231
2317.857886	36790.065734
2319.423586	36888.646853
2320.988988	36947.150350
2322.552437	37029.980420
2324.117245	37118.224476
2325.678445	37183.268531
2327.242659	37240.618182
2328.801611	37296.022378
2330.363578	37321.700000
2331.923593	37362.518881
2333.483314	37343.338462
2335.041085	37350.655245
2336.598561	37360.060839
2338.155743	37364.641259
2339.710977	37360.853147
2341.265918	37344.875524
2342.820564	37341.448951
2344.374917	37303.145455
2345.928977	37291.634266
2347.482742	37274.262937
2349.034564	37240.204895
2350.584442	37201.502098
2352.137328	37132.180420
2353.684972	37082.319580
2355.235623	37043.139161
2356.782683	37050.294406
2358.331101	37024.681119
2359.879228	36954.000000
2361.423766	36943.162238
2362.969662	36931.813986
2364.513620	36944.260839
2366.058935	36958.174126
2367.600665	36933.195804
2369.143752	36909.887413
2370.684903	36891.388112
2372.225765	36873.664336
2373.766338	36896.116783
2375.306622	36898.615385
2376.846617	36892.218881
2378.383034	36863.272028
2379.922452	36895.725175
2381.458293	36897.522378
2382.995490	36941.547552
2384.529112	36973.509091
2386.065734	36983.587413
2387.600426	37039.863636
2389.133188	37104.100000
2390.665663	37157.398601
2392.196210	37219.525175
2393.729755	37233.251748
2395.258089	37283.796503
2396.787780	37309.670629
2398.317184	37356.446853
2399.846304	37371.264336
2401.375139	37388.300699
2402.898768	37384.732168
2404.427033	37400.422378
2405.950096	37423.635664
2407.477792	37447.251748
2408.998649	37475.535664
2410.524139	37498.718182
2412.046068	37550.094406
2413.569353	37631.645455
2415.090716	37645.444056
2416.610160	37649.188811
2418.130959	37679.026573
2419.649840	37693.762937
2421.168438	37708.658042
2422.685119	37743.084615
2424.203154	37788.144755
2425.720908	37851.338462
2427.235111	37919.597203
2428.749033	38041.330769
2430.262675	38146.757343
2431.777672	38245.711189
2433.289120	38263.632168
2434.801923	38311.741958
2436.312812	38372.877622
2437.823423	38383.858741
2439.332122	38404.899301
2440.843807	38422.576923
2442.351949	38458.362937
2443.859813	38496.324476
2445.367399	38575.646154
2446.871444	38680.127972
2448.378474	38781.060839
2449.883597	38881.934965
2451.388441	38958.027972
2452.891379	39016.033566
2454.394041	39067.264336
2455.896426	39073.150350
2457.396906	39097.341958
2458.898739	39079.793706
2460.398667	39131.117483
2461.898320	39171.790210
2463.397698	39245.093706
2464.895173	39332.713986
2466.390746	39456.979021
2467.889299	39570.289510
2469.384324	39647.913986
2470.880701	39726.082517
2472.373552	39790.244755
2473.867756	39845.310490
2475.361686	39897.253147
2476.852092	39921.013986
2478.345476	39971.755245
2479.836962	40007.904895
2481.326551	40073.317483
2482.815868	40130.190909
2484.303289	40172.267133
2485.793686	40177.904196
2487.280565	40154.602797
2488.768795	40152.004895
2490.253508	40130.138462
2491.737952	40110.266434
2493.223746	40067.299301
2494.707649	40019.034266
2496.192902	39988.258741
2497.673022	39986.860839
2499.156115	39988.690210
2500.637317	39980.502098
2502.118250	39964.686014
2503.597294	39965.278322
2505.076069	39908.361538
2506.554576	39855.858042
2508.032815	39799.571329
2509.510785	39745.612587
2510.985250	39646.169930
2512.462685	39580.878322
2513.936616	39474.031469
2515.411897	39378.764336
2516.886911	39305.782517
2518.358425	39236.964336
2519.831288	39160.005594
2521.302269	39083.537762
2522.774600	38979.528671
2524.241817	38856.267832
2525.712001	38765.595804
2527.180304	38680.534965
2528.648342	38590.730070
2530.116115	38556.762937
2531.583623	38499.762937
2533.050866	38466.746853
2534.514617	38440.536364
2535.979718	38406.115385
2537.442942	38371.574825
2538.907516	38327.697902
2540.368600	38325.876923
2541.831034	38306.102797
2543.293205	38311.302797
2544.751890	38306.985315
2546.215147	38305.788811
2547.673307	38313.558042
2549.132816	38311.079720
2550.587231	38303.928671
2552.046217	38262.868531
2553.503331	38241.990210
2554.958574	38227.546853
2556.413555	38181.624476
2557.866668	38235.318881
2559.321129	38252.083217
2560.773720	38245.191608
2562.226052	38255.225874
2563.676517	38269.357343
2565.129937	38310.226573
2566.578275	38350.920979
2568.029569	38422.605594
2569.478996	38449.823077
2570.924951	38541.469231
2572.373861	38576.183217
2573.819301	38606.807692
2575.266088	38663.324476
2576.711013	38669.286014
2578.155679	38660.127273
2579.601693	38652.062238
2581.044241	38630.939860
2582.488136	38602.746853
2583.928566	38603.501399
2585.370343	38619.367832
2586.810261	38636.968531
2588.251526	38693.146154
2589.689329	38749.941958
2591.130082	38817.891608
2592.565773	38921.092308
2594.004413	38990.218881
2595.441195	39054.758741
2596.876122	39143.289510
2598.313996	39184.018881
2599.746813	39222.126573
2601.180977	39249.176224
2602.613287	39296.514685
2604.046943	39317.397902
2605.478746	39340.282517
2606.910295	39376.525874
2608.341592	39336.918182
2609.771036	39351.125874
2611.200228	39302.639860
2612.627570	39327.506294
2614.056257	39339.648951
2615.484693	39348.318182
2616.909681	39380.457343
2618.336016	39400.665734
2619.760502	39501.520280
2621.186334	39543.806993
2622.608722	39615.139860
2624.032456	39643.420979
2625.454343	39620.120280
2626.875981	39674.230070
2628.295773	39672.146853
2629.716911	39738.451049
2631.137799	39741.867133
2632.555249	39832.210490
2633.975638	39888.361538
2635.392590	39947.720979
2636.809293	40061.888112
2638.225748	40119.701399
2639.641955	40175.629371
2641.057914	40192.309790
2642.472032	40199.070629
2643.885902	40239.878322
2645.297934	40277.276923
2646.711309	40349.270629
2648.121255	40394.240559
2649.534137	40481.592308
2650.943590	40572.856643
2652.352797	40649.239860
2653.760168	40722.030769
2655.170473	40796.900000
2656.578943	40828.208392
2657.985577	40918.879720
2659.391966	40948.379021
2660.796521	40999.924476
2662.202420	41101.776923
2663.606486	41188.991608
2665.010307	41282.071329
2666.413884	41332.716084
2667.815630	41423.953147
2669.218719	41424.574126
2670.618390	41414.445455
2672.019405	41402.907692
2673.417004	41337.425175
2674.817533	41368.202098
2676.214646	41310.705594
2677.613103	41292.697203
2679.009733	41336.208392
2680.406120	41344.906294
2681.802265	41378.576224
2683.196585	41407.934266
2684.592246	41429.802098
2685.984499	41491.540559
2687.378094	41510.512587
2688.769865	41499.686014
2690.162979	41519.655245
2691.554269	41598.080420
2692.943736	41623.646853
2694.332963	41662.041259
2695.721951	41733.737063
2697.112280	41740.071329
2698.497626	41795.016084
2699.885895	41855.167832
2701.272344	41851.044056
2702.658554	41934.995804
2704.044525	41945.912587
2705.427098	41976.941958
2706.811013	42066.006294
2708.194690	42142.875524
2709.578128	42242.711189
2710.958172	42332.629371
2712.339556	42433.134965
2713.719126	42503.877622
2715.100036	42586.737762
2716.479132	42667.016783
2717.856414	42701.270629
2719.235037	42790.160140
2720.611847	42839.034965
2721.988420	42891.986713
2723.364758	42974.820979
2724.739285	43036.206294
2726.115152	43120.782517
2727.487632	43171.430769
2728.863028	43228.569231
2730.233464	43284.776923
2731.605241	43338.302797
2732.976783	43392.436364
2734.346517	43466.550350
2735.717592	43553.990909
2737.086858	43598.252448
2738.455891	43674.797203
2739.823118	43804.000000
2741.190112	43893.451748
2742.556872	44000.238462
2743.923401	44114.031469
2745.288124	44256.157343
2746.652615	44379.048951
2748.016875	44489.565035
2749.380902	44556.360140
2750.744698	44667.344056
2752.105120	44730.769930
2753.468452	44690.803497
2754.826842	44712.839161
2756.188142	44695.966434
2757.546072	44669.599301
2758.906910	44628.176923
2760.265949	44588.179720
2761.621619	44588.038462
2762.980197	44575.512587
2764.335408	44599.836364
2765.690390	44623.585315
2767.043576	44712.757343
2768.399668	44740.833566
2769.752395	44776.336364
2771.104895	44851.742657
2772.457166	44876.659441
2773.810776	44932.177622
2775.161024	44959.385315
2776.509478	45013.604196
2777.860838	45087.504196
2779.208838	45125.127972
2780.558176	45176.513287
2781.905722	45215.921678
2783.253042	45262.973427
2784.600135	45224.434266
2785.945437	45233.052448
2787.290512	45223.337762
2788.635362	45239.799301
2789.979986	45280.876923
2791.321258	45379.162238
2792.663868	45469.143357
2794.006252	45587.530769
2795.348411	45691.214685
2796.687221	45813.881119
2798.028931	45922.581119
2799.367293	46007.468531
2800.706991	46030.036364
2802.044905	46115.740559
2803.381034	46172.907692
2804.716939	46244.265035
2806.054182	46330.570629
2807.389641	46433.002098
2808.724877	46464.814685
2810.058330	46581.170629
2811.393120	46673.408392
2812.724570	46739.803497
2814.058915	46790.797203
2815.388362	46826.016084
2816.719146	46879.591608
2818.049708	46951.170629
2819.378491	46987.383217
2820.708610	47067.256643
2822.036951	47138.079021
2823.365071	47159.599301
2824.691413	47137.444755
2826.019092	47178.940559
2827.343437	47189.122378
2828.669119	47152.841259
2829.993025	47109.723776
2831.316712	47098.229371
2832.641734	47071.221678
2833.963426	47125.516783
2835.284900	47152.358042
2836.606155	47224.669231
2837.927191	47240.873427
2839.246454	47264.344056
2840.567053	47277.581818
2841.885881	47284.685315
2843.204490	47259.967133
2844.521328	47222.597902
2845.837949	47165.689510
2847.154353	47176.544056
2848.468987	47167.837762
2849.784957	47244.087413
2851.097606	47289.634965
2852.411590	47352.972727
2853.725358	47397.602797
2855.038909	47459.872727
2856.350694	47577.835664
2857.660712	47596.237063
2858.972065	47628.729371
2860.280103	47684.006294
2861.589475	47733.424476
2862.898633	47862.762238
2864.207575	47936.958741
2865.514753	48023.751049
2866.820169	48111.183916
2868.126919	48161.448951
2869.431906	48174.991608
2870.736680	48223.856643
2872.039692	48305.482517
2873.345585	48263.158741
2874.646624	48349.270629
2875.948997	48340.227273
2877.249610	48345.738462
2878.551557	48358.095804
2879.853290	48337.095804
2881.151720	48341.976923
2882.451483	48307.134266
2883.749489	48259.634965
2885.047283	48225.726573
2886.343321	48253.582517
2887.640692	48228.921678
2888.936307	48222.983217
2890.231711	48280.680420
2891.526904	48196.379720
2892.818800	48212.501399
2894.113572	48164.825874
2895.405047	48112.798601
2896.697855	48058.098601
2897.990453	47947.533566
2899.279757	47921.418182
2900.570393	47936.564336
2901.859278	47968.062238
2903.149495	47998.498601
2904.436421	48030.637063
2905.724679	48042.984615
2907.011188	48062.678322
2908.297489	48123.705594
2909.583581	48059.225874
2910.867925	48014.076923
2912.155140	47941.298601
2913.437529	47891.602098
2914.721250	47879.532168
2916.003225	47898.996503
2917.284992	47951.950350
2918.565015	47978.526573
2919.847907	47994.972727
2921.129054	47985.401399
2922.406919	48049.818182
2923.687653	47993.511888
2924.965106	47932.728671
2926.242353	47879.606294
2927.517858	47791.180420
2928.796231	47730.534965
2930.069790	47682.111888
2931.346216	47667.061538
2932.620901	47677.104895
2933.893845	47671.248951
2935.168121	47691.863636
2936.440657	47664.548951
2937.712988	47674.340559
2938.982047	47612.031469
2940.253971	47574.488112
2941.524157	47485.283217
2942.794139	47406.066434
2944.063918	47351.157343
2945.331961	47324.530070
2946.598267	47301.369930
2947.864372	47286.135664
2949.131806	47283.373427
2950.397506	47251.217483
2951.663003	47294.447552
2952.928298	47276.444755
2954.190328	47286.065734
2955.453688	47232.960839
2956.716847	47205.170629
2957.978274	47194.424476
2959.241030	47226.130769
2960.502054	47234.182517
2961.761348	47239.332168
2963.020442	47248.874825
2964.279335	47239.054545
2965.538028	47195.511189
2966.796521	47285.139161
2968.053285	47237.151748
2969.309849	47285.465035
2970.564686	47274.692308
2971.820851	47313.208392
2973.073762	47311.920979
2974.328002	47373.785315
2975.582043	47327.231469
2976.834358	47347.351748
2978.086474	47387.718881
2979.336866	47392.462238
2980.590113	47396.825175
2981.838583	47454.717483
2983.089908	47443.444755
2984.337983	47479.181119
2985.585862	47485.400699
2986.833543	47479.482517
2988.081027	47465.269231
2989.326790	47467.390909
2990.572357	47464.559441
2991.819251	47503.232168
2993.062901	47552.897902
2994.307879	47612.789510
2995.549613	47614.374126
2996.794199	47638.937762
2998.037066	47698.351748
2999.276692	47730.236364
3000.519168	47770.595804
3001.758404	47758.941259
3002.998968	47820.782517
3004.237816	47849.672028
3005.476468	47908.333566
3006.713406	47951.333566
3007.951670	47972.832867
3009.188219	48017.610490
3010.424575	48032.234266
3011.660737	48101.441958
3012.895185	48172.364336
3014.129441	48195.021678
3015.363503	48192.283916
3016.595853	48196.501399
3017.826491	48226.728671
3019.059975	48223.988811
3020.291747	48262.516783
3021.521809	48307.876923
3022.751679	48319.235664
3023.979839	48353.068531
3025.209325	48392.630769
3026.437102	48407.904895
3027.664688	48439.747552
3028.893601	48459.931469
3030.117771	48431.455245
3031.344784	48478.756643
3032.568573	48462.800699
3033.793689	48464.733566
3035.017098	48502.174825
3036.240317	48493.582517
3037.461831	48511.499301
3038.686186	48536.113287
3039.905806	48570.093706
3041.126752	48539.267832
3042.347509	48539.090909
3043.566562	48575.957343
3044.786940	48584.104196
3046.004102	48605.697203
3047.222590	48659.200000
3048.439375	48683.283217
3049.655973	48688.985315
3050.872382	48693.268531
3052.085579	48714.788811
3053.301613	48762.267133
3054.514435	48724.972727
3055.730094	48663.190909
3056.941030	48657.581119
3058.153291	48636.875524
3059.365366	48627.609091
3060.577253	48594.967133
3061.787444	48629.895105
3062.997448	48596.944056
3064.207266	48586.533566
3065.415388	48599.089510
3066.623325	48632.195105
3067.829566	48690.747552
3069.037132	48628.342657
3070.243003	48691.132168
3071.448690	48782.296503
3072.654191	48797.010490
3073.857999	48869.614685
3075.063131	48886.174825
3076.266570	48893.290909
3077.468318	48919.521678
3078.669881	48883.834266
3079.871261	48918.597203
3081.072457	48937.968531
3082.271963	48932.366434
3083.471286	48877.424476
3084.671932	48941.366434
3085.870888	48940.648951
3087.066650	48933.593706
3088.265241	48963.995804
3089.460638	48954.417483
3090.657358	48936.584615
3091.850886	48931.639161
3093.047242	48904.622378
3094.241912	48946.406993
3095.433391	48954.940559
3096.629201	48931.328671
3097.820318	48942.724476
3099.012757	48964.609091
3100.202009	48997.255245
3101.394086	49029.622378
3102.584480	49063.998601
3103.771688	49069.755944
3104.960219	49072.338462
3106.150071	49097.470629
3107.336740	49083.930070
3108.523228	49093.963636
3109.709538	49034.789510
3110.897169	48962.039161
3112.081618	48951.169231
3113.264388	48966.637063
3114.449980	49010.646154
3115.633893	49026.906294
3116.816127	49057.782517
3117.998182	49110.606294
3119.180059	49162.214685
3120.361758	49212.223077
3121.541780	49198.603497
3122.720125	49202.886014
3123.901290	49130.359441
3125.079280	49118.111189
3126.257094	49136.449650
3127.434730	49091.038462
3128.610691	49061.520979
3129.786475	49019.137762
3130.963581	49023.809790
3132.139012	49056.099301
3133.312770	49128.186713
3134.484855	49151.555944
3135.658262	49161.096503
3136.831492	49243.574126
3138.003051	49337.920280
3139.175930	49438.900000
3140.345642	49544.310490
3141.516675	49495.596503
3142.686038	49498.457343
3143.853730	49473.584615
3145.024238	49462.873427
3146.190088	49459.656643
3147.360246	49473.475524
3148.525748	49450.151748
3149.691075	49419.551748
3150.856229	49430.288811
3152.021210	49445.514685
3153.187510	49379.524476
3154.349158	49258.215385
3155.512125	49108.576923
3156.674920	48936.315385
3157.837542	48766.541259
3158.998499	48648.741259
3160.159283	48516.034965
3161.319895	48436.509091
3162.478843	48413.202098
3163.637620	48411.743357
3164.796225	48458.974825
3165.954657	48496.274825
3167.112919	48529.579021
3168.269518	48579.504196
3169.424456	48638.155944
3170.580713	48649.813986
3171.735309	48728.318881
3172.889735	48802.276923
3174.042501	48762.918182
3175.195096	48828.837762
3176.347522	48870.717483
3177.499778	48932.527972
3178.651863	48962.714685
3179.800803	48998.909790
3180.952549	49099.812587
3182.102637	49169.430070
3183.251069	49276.353147
3184.399331	49422.045455
3185.547425	49596.534266
3186.695350	49775.377622
3187.841619	49875.251748
3188.987720	50006.838462
3190.132167	50065.968531
3191.276446	50149.467133
3192.420557	50141.738462
3193.565985	50135.919580
3194.708275	50119.423077
3195.850398	50094.246154
3196.992353	50079.907692
3198.134141	50070.968531
3199.275762	50066.183217
3200.414248	50079.934266
3201.554051	50082.845455
3202.695172	50075.330070
3203.833158	50118.262238
3204.969495	50113.834266
3206.105666	50128.433566
3207.243154	50155.873427
3208.378994	50220.863636
3209.516151	50205.539161
3210.648695	50192.078322
3211.785521	50165.319580
3212.917735	50125.174825
3214.051266	50036.028671
3215.184633	49924.910490
3216.314872	49782.693706
3217.447909	49664.672727
3218.577820	49526.288112
3219.709047	49447.662937
3220.837150	49444.170629
3221.968049	49429.784615
3223.097304	49386.455944
3224.224916	49442.996503
3225.349405	49473.318881
3226.478170	49574.955944
3227.603813	49614.795804
3228.729294	49675.790210
3229.853133	49750.411189
3230.979766	49789.665035
3232.101802	49787.520280
3233.225154	49810.872028
3234.348344	49791.698601
3235.471372	49747.591608
3236.592760	49660.732867
3237.713986	49630.467133
3238.833575	49627.339161
3239.953002	49691.923077
3241.070791	49739.117483
3242.191372	49870.295105
3243.308840	49965.290909
3244.426147	50120.189510
3245.543294	50213.475524
3246.658805	50359.161538
3247.775630	50415.064336
3248.889346	50540.998601
3250.005851	50567.669930
3251.120722	50620.744056
3252.232484	50667.691608
3253.344086	50659.927972
3254.457004	50602.838462
3255.569762	50604.963636
3256.679414	50547.390210
3257.790381	50584.160839
3258.901189	50569.674126
3260.010365	50612.842657
3261.117911	50658.890210
3262.226770	50777.490909
3263.335472	50852.550350
3264.441071	50967.569930
3265.547984	51071.990210
3266.653268	51115.197203
3267.759866	51148.230769
3268.863364	51220.951049
3269.968177	51210.815385
3271.072832	51280.734266
3272.174388	51327.248252
3273.275788	51354.981119
3274.378502	51364.920979
3275.481060	51438.058042
3276.580521	51419.912587
3277.682766	51434.276923
3278.781915	51442.971329
3279.879440	51403.869930
3280.976809	51401.227273
3282.076960	51378.949650
3283.174019	51285.134266
3284.270922	51315.893706
3285.367670	51254.887413
3286.459860	51212.706993
3287.556298	51207.892308
3288.651114	51165.873427
3289.745776	51124.822378
3290.838816	51124.352448
3291.931701	51119.106993
3293.022967	51092.028671
3294.115544	51083.232168
3295.206502	51051.625874
3296.295840	51003.589510
3297.385025	51057.867133
3298.475523	50971.495804
3299.562936	50959.031469
3300.650196	50980.151049
3301.738769	50970.685315
3302.827190	51004.225175
3303.911063	51028.434965
3304.999178	51056.018881
3306.084211	51075.717483
3307.167629	51165.555245
3308.252359	51213.293706
3309.335473	51306.318182
3310.419900	51350.665734
3311.501248	51348.380420
3312.583908	51362.327972
3313.664954	51368.388112
3314.745849	51376.260839
3315.825130	51368.365035
3316.904261	51414.520280
3317.984704	51412.107692
3319.062072	51445.965734
3320.140752	51552.292308
3321.217820	51585.161538
3322.294739	51657.883916
3323.370046	51700.049650
3324.445204	51731.974825
3325.521673	51739.995804
3326.595072	51745.376923
3327.668322	51764.094406
3328.742882	51790.058042
3329.815834	51767.234266
3330.887177	51683.890909
3331.959831	51673.332867
3333.029419	51644.140559
3334.100317	51556.288811
3335.169608	51490.555245
3336.240210	51399.816084
3337.309205	51295.413287
3338.376594	51259.397203
3339.442378	51172.915385
3340.512388	51104.650350
3341.579335	51093.252448
3342.643220	51035.195804
3343.709873	51050.258741
3344.774921	51063.844755
3345.838366	51070.529371
3346.901665	51030.339860
3347.964817	51057.967133
3349.027823	50975.718182
3350.090683	50977.847552
3351.151941	50935.071329
3352.210142	50854.024476
3353.272563	50865.365734
3354.331929	50897.669231
3355.391149	50916.862937
3356.451679	51020.990210
3357.507699	51076.579021
3358.566483	51159.776224
3359.620760	51259.937762
3360.677801	51347.904895
3361.733243	51394.939161
3362.789995	51503.574825
3363.845148	51529.211189
3364.898704	51553.511189
3365.950664	51648.427972
3367.005385	51683.507692
3368.057057	51712.657343
3369.108586	51771.100000
3370.161423	51770.593706
3371.211213	51794.697203
3372.262312	51812.695804
3373.310365	51831.808392
3374.361177	51851.034965
3375.408945	51873.240559
3376.456570	51868.420979
3377.504052	51856.305594
3378.549942	51891.693706
3379.597140	51856.376923
3380.641296	51886.002797
3381.688210	51889.444755
3382.733532	51837.191608
3383.775813	51812.074126
3384.817954	51802.604196
3385.861402	51833.606294
3386.904709	51759.484615
3387.946427	51755.027972
3388.988003	51767.679021
3390.029438	51805.286713
3391.069285	51864.464336
3392.107543	51901.565734
3393.147109	52036.892308
3394.186535	52069.139161
3395.224373	52041.680420
3396.260624	52037.578322
3397.296736	52037.546853
3398.334155	52031.390909
3399.368541	51944.109790
3400.404234	51926.660839
3401.439788	51933.139161
3402.472311	51981.372727
3403.507587	52022.941259
3404.539832	52062.194406
3405.571939	52156.788811
3406.602462	52187.004196
3407.634292	52183.881818
3408.665984	52180.919580
3409.694648	52217.026573
3410.723175	52199.226573
3411.753008	52133.673427
3412.782704	52112.734965
3413.809374	52124.523776
3414.837351	52174.983217
3415.862303	52179.790909
3416.890005	52250.516783
3417.914684	52279.497203
3418.940669	52278.260839
3419.965074	52305.447552
3420.989343	52266.787413
3422.012033	52269.553147
3423.034587	52166.621678
3424.058447	52089.571329
3425.079287	52005.506294
3426.099991	51941.614685
3427.122002	51891.079446
3428.140994	51859.109491
3429.159850	51850.913736
3430.180013	51871.701099
3431.197159	51926.680495
