-118.059454	25.097527
-115.389854	25.847253
-112.723189	26.051798
-110.057276	25.860639
-107.394295	25.423252
-104.729885	24.889111
-102.068405	24.407692
-99.405496	24.483916
-96.747693	24.086713
-94.088461	26.536364
-91.429977	28.442657
-88.774417	29.180420
-86.117429	29.635664
-83.465539	28.604196
-80.812218	27.475524
-78.161818	26.758042
-75.509988	26.633566
-72.863249	24.464336
-70.215081	23.037762
-67.567655	21.446853
-64.923143	22.952448
-62.277203	25.506993
-59.636344	26.463636
-56.994056	26.852448
-54.354677	28.200699
-51.713868	28.996503
-49.073800	27.608392
-46.438804	25.326573
-43.802380	24.611888
-41.168858	25.117483
-38.533908	25.759441
-35.904023	25.393706
-33.270546	25.849650
-30.642131	28.093007
-28.014450	31.001399
-25.385340	29.412587
-22.761287	28.567832
-20.133645	20.774825
-17.511056	3.079720
-14.889199	17.723776
-12.268072	80.356643
-9.647675	164.128671
-7.030167	229.390210
-4.411230	269.676923
-1.795178	290.338462
0.820145	289.639161
3.434741	265.488112
6.046454	218.837063
8.659596	155.504196
11.267704	81.293007
13.879394	13.595804
16.486053	-7.058042
19.094140	9.776923
21.701503	28.968531
24.303841	30.856643
26.909757	30.802797
29.510651	31.367133
32.112973	29.362238
34.710278	29.526573
37.311158	32.862238
39.907023	34.148252
42.504317	36.917483
45.100891	37.930070
47.692456	36.993706
50.285449	37.186713
52.875581	37.562937
55.467141	36.937063
58.055841	35.404895
60.645968	35.085315
63.231096	36.665734
65.817652	38.706993
68.403494	42.710490
70.986482	42.946154
73.570896	42.232867
76.148182	40.425175
78.729034	41.211189
81.307037	39.960839
83.884330	40.914685
86.463049	40.890909
89.036786	43.186014
91.611951	49.290210
94.184272	53.719580
96.755885	58.855944
99.324658	60.296503
101.894858	59.581119
104.462220	60.544056
107.031007	64.506993
109.596958	71.941259
112.160074	76.588112
114.726746	87.167133
117.284197	103.797902
119.847333	128.841259
122.405509	185.619580
124.967240	283.800699
127.524014	448.472028
130.082215	706.105594
132.635462	1079.662937
135.188012	1561.029371
137.744112	2138.435664
140.295264	2759.448252
142.845719	3390.234965
145.395476	3972.687413
147.942414	4470.094406
150.488657	4848.916084
153.036325	5117.732867
155.583297	5274.342657
158.125334	5344.317483
160.666677	5364.762937
163.207327	5363.851049
165.749403	5351.588811
168.288667	5349.867832
170.825123	5339.200699
173.360887	5337.379720
175.898077	5326.178322
178.434576	5324.515385
180.968269	5318.437063
183.499158	5324.402797
186.029360	5332.268531
188.560986	5344.955944
191.089811	5360.046154
193.615837	5377.760839
196.141177	5393.721678
198.667942	5406.801399
201.191911	5413.900000
203.715195	5414.344056
206.237794	5410.288811
208.757600	5413.884615
211.276723	5411.530070
213.795163	5417.177622
216.315027	5421.195804
218.827890	5438.488811
221.344284	5432.795105
223.859996	5435.247552
226.370818	5437.799301
228.883065	5445.119580
231.392530	5448.329371
233.901316	5445.377622
236.409423	5447.466434
238.918955	5448.258042
241.423606	5455.275524
243.927581	5459.939860
246.432980	5465.644056
248.933504	5473.142657
251.437552	5456.408392
253.934628	5452.524476
256.435228	5448.602797
258.933056	5445.384615
261.430211	5435.237762
263.926693	5421.457343
266.418312	5419.337762
268.913451	5407.667832
271.405823	5403.808392
273.897525	5397.981119
276.386464	5390.829371
278.876827	5378.548252
281.364427	5366.572727
283.849268	5354.869930
286.337624	5343.574825
288.819040	5336.088811
291.303970	5329.256643
293.784055	5322.267133
296.267652	5327.670629
298.746406	5320.525175
301.226584	5323.512587
303.704009	5327.832168
306.180771	5321.319580
308.656870	5321.832867
311.130220	5334.813287
313.602908	5342.587413
316.074935	5351.618881
318.546301	5368.934266
321.014922	5381.118881
323.482885	5397.887413
325.952269	5402.172727
328.416831	5408.812587
330.884897	5422.560839
333.348143	5429.499301
335.810731	5431.999301
338.272663	5446.500699
340.733938	5451.635664
343.192479	5459.197203
345.652442	5460.839161
348.109672	5472.341259
350.566248	5467.955944
353.022170	5463.780420
355.475362	5439.695105
357.929977	5421.916783
360.379790	5408.511189
362.833099	5391.595804
365.281610	5376.006993
367.729469	5355.016084
370.178751	5328.441259
372.623239	5323.340559
375.069149	5312.781119
377.514409	5309.829371
379.956951	5304.634965
382.398845	5301.973427
384.840092	5293.509091
387.278623	5289.880420
389.718576	5294.634965
392.155815	5295.749650
394.590342	5304.016783
397.028357	5311.132168
399.461595	5319.869231
401.896254	5335.832867
404.326141	5352.197203
406.759513	5369.804196
409.188115	5380.590909
411.616075	5391.538462
414.045457	5396.762238
416.470073	5407.173427
418.896111	5411.955245
421.321508	5421.625175
423.746265	5431.594406
426.166264	5435.416084
428.587684	5435.206294
431.006407	5440.309790
433.426551	5442.227972
435.844000	5429.097203
438.262869	5410.596503
440.679045	5414.320979
443.090473	5414.350350
445.505379	5426.302098
447.917594	5435.678322
450.329175	5450.704196
452.740122	5458.320280
455.148383	5468.508392
457.556011	5486.931469
459.963007	5500.767133
462.369372	5507.532168
464.773054	5501.148252
467.176106	5507.541958
469.578528	5520.561538
471.980320	5530.795105
474.379435	5533.528671
476.779969	5531.088811
479.179874	5520.821678
481.575056	5508.801399
483.973705	5495.927972
486.367634	5487.174825
488.760937	5477.481119
491.153614	5467.569930
493.545666	5451.168531
495.939136	5442.059441
498.327894	5436.162937
500.713986	5432.637762
503.101498	5414.244755
505.488387	5401.684615
507.872612	5394.185315
510.258255	5391.026573
512.641237	5381.536364
515.021558	5384.560140
517.403298	5379.945455
519.782379	5387.772727
522.162879	5394.356643
524.540721	5398.138462
526.915908	5404.157343
529.290477	5406.084615
531.666464	5402.247552
534.039799	5408.929371
536.414551	5415.872727
538.784618	5411.602797
541.154069	5396.180420
543.524938	5387.279021
545.891127	5375.726573
548.258734	5379.325874
550.623695	5376.562238
552.988043	5374.864336
555.351778	5359.602098
557.716931	5361.645455
560.077412	5361.430070
562.439311	5364.484615
564.798569	5359.563636
567.155190	5359.718182
569.515255	5356.124476
571.868629	5352.831469
574.225448	5358.411888
576.579632	5362.823077
578.933208	5363.868531
581.286175	5356.248951
583.636510	5340.986014
585.988263	5345.884615
588.333339	5342.297203
590.683879	5336.207692
593.027745	5322.101399
595.377073	5316.186014
597.721752	5303.364336
600.063807	5288.228671
602.407279	5281.459441
604.748128	5271.486713
607.088375	5261.543357
609.426001	5241.826573
611.767062	5233.518182
614.103485	5230.614685
616.441325	5229.458042
618.776548	5223.378322
621.109155	5209.354545
623.443178	5197.854545
625.774587	5189.418182
628.105398	5184.499301
630.435612	5182.642657
632.765227	5182.258741
635.090220	5181.821678
637.420653	5168.942657
639.746466	5172.782517
642.069671	5171.601399
644.394293	5172.997203
646.716309	5179.711888
649.037731	5181.769231
651.356551	5182.715385
653.676786	5187.614685
655.996428	5199.759441
658.313469	5202.839161
660.629918	5202.862937
662.943769	5210.293007
665.259036	5209.379720
667.571706	5213.624476
669.885791	5216.088811
672.195276	5225.780420
674.506177	5233.211189
676.814485	5240.706993
679.122205	5238.213986
681.431339	5246.610490
683.735881	5267.726573
686.039837	5268.403497
688.343207	5271.759441
690.647991	5284.576923
692.948189	5281.630769
695.249801	5283.170629
697.550829	5282.888112
699.847274	5268.130070
702.145135	5249.251748
704.442412	5235.446853
706.739106	5224.255245
709.031224	5227.758741
711.326753	5238.732867
713.617708	5234.304196
715.910078	5244.113287
718.199873	5254.874825
720.489087	5257.919580
722.777722	5272.031469
725.063784	5273.313287
727.351261	5267.516084
729.636166	5268.855245
731.920494	5269.901399
734.202253	5280.046853
736.485426	5286.101399
738.768022	5293.927273
741.046062	5302.760839
743.325517	5316.439161
745.604395	5312.166434
747.882699	5310.730070
750.156453	5315.594406
752.431620	5313.381119
754.706214	5313.051049
756.978249	5312.269930
759.251697	5316.746154
761.522587	5329.752448
763.790921	5336.020979
766.060668	5345.885315
768.327861	5356.126573
770.594483	5364.651049
772.860535	5358.781119
775.124036	5355.913287
777.388950	5348.469231
779.653294	5344.901399
781.913109	5338.188112
784.174336	5336.183217
786.434996	5337.460140
788.693110	5339.566434
790.948679	5337.518182
793.207639	5338.109091
795.460100	5333.869930
797.717927	5339.137762
799.971236	5324.300699
802.222005	5302.917483
804.474186	5298.274825
806.723828	5295.404895
808.974883	5286.165035
811.221426	5279.794406
813.469381	5273.300699
815.714802	5267.153846
817.961634	5257.954545
820.207905	5249.605594
822.449671	5243.030070
824.694821	5234.144056
826.933498	5221.734266
829.175557	5204.855245
831.413118	5206.932168
833.652091	5198.815385
835.888537	5187.423077
838.126394	5182.111888
840.361726	5179.582517
842.594535	5182.258042
844.828755	5183.390210
847.060452	5196.993706
849.291595	5211.636364
851.522183	5219.237063
853.752217	5222.360839
855.981697	5226.425175
858.206695	5232.749650
860.435068	5234.572028
862.658961	5234.093007
864.884266	5231.144755
867.105095	5225.764336
869.329296	5224.783916
871.549024	5223.769930
873.770162	5225.808392
875.990750	5223.155245
878.208829	5213.704196
880.428317	5200.886014
882.643339	5198.474825
884.857814	5194.869930
887.071740	5191.320280
889.285120	5184.406294
891.497952	5185.231469
893.710238	5179.528671
895.920021	5178.686014
898.129259	5181.709790
900.337952	5182.086713
902.544146	5186.060839
904.751749	5183.642657
906.956854	5189.034266
909.161416	5190.824476
911.363483	5211.346154
913.566959	5223.269930
915.767941	5242.716783
917.968381	5265.445455
920.170230	5275.793007
922.365688	5302.043357
924.564505	5319.659441
926.758883	5333.093007
928.956619	5347.905594
931.149919	5352.591608
933.344628	5368.164336
935.536851	5377.360839
937.728535	5389.611189
939.919682	5398.289510
942.108346	5414.462937
944.296474	5419.715385
946.482121	5430.391608
948.671120	5449.894406
950.855696	5457.984615
953.039737	5474.425874
955.227128	5491.269231
957.406215	5509.079021
959.588653	5535.432168
961.770557	5550.826573
963.949986	5575.548252
966.126943	5599.677622
968.305308	5624.840559
970.485080	5643.825175
972.658503	5656.380420
974.835272	5675.882517
977.007634	5690.318182
979.181404	5719.233566
981.350770	5734.283916
983.523480	5756.454545
985.693725	5777.783217
987.863441	5791.113287
990.032628	5821.763636
992.197418	5833.681119
994.365549	5865.034965
996.529286	5890.292308
998.694429	5905.737762
1000.857113	5927.907692
1003.019272	5951.457343
1005.178974	5975.469930
1007.338151	5991.291608
1009.498735	6004.395804
1011.656865	6017.653846
1013.814470	6022.790210
1015.971552	6048.899301
1018.128110	6051.905594
1020.280289	6075.355944
1022.433875	6108.182517
1024.586939	6138.221678
1026.737554	6168.602098
1028.889576	6213.984615
1031.037224	6252.727273
1033.188204	6293.546853
1035.334813	6324.915385
1037.480903	6354.683916
1039.626475	6374.933566
1041.773452	6395.723077
1043.914140	6397.486014
1046.058158	6403.216084
1048.199735	6419.086014
1050.340796	6418.507692
1052.483261	6414.394406
1054.619447	6422.100000
1056.758958	6414.473427
1058.894115	6415.388112
1061.032596	6411.088112
1063.166723	6400.791608
1065.300337	6384.073427
1067.435356	6373.062238
1069.566025	6352.647552
1071.698099	6335.478322
1073.827744	6321.431469
1075.956877	6303.568531
1078.085498	6279.015385
1080.213608	6262.291608
1082.339292	6231.609790
1084.464466	6199.034965
1086.591044	6165.081119
1088.713284	6123.807692
1090.836929	6085.654545
1092.956239	6049.676923
1095.080779	6008.510490
1097.199073	5987.645455
1099.318772	5963.934266
1101.436052	5948.325874
1103.552826	5922.804196
1105.669093	5908.874825
1107.782944	5893.166434
1109.898200	5878.753147
1112.009132	5859.953147
1114.123377	5839.712587
1116.233301	5830.571329
1118.344629	5819.306993
1120.455452	5807.424476
1122.561959	5801.760140
1124.671776	5789.748951
1126.777278	5780.685315
1128.884183	5762.980420
1130.984873	5749.041958
1133.090775	5732.083916
1135.192368	5711.846853
1137.295364	5680.760140
1139.397859	5670.246154
1141.494147	5663.910490
1143.595643	5659.546154
1145.692835	5652.729371
1147.789530	5652.377622
1149.885726	5652.372028
1151.981425	5648.286014
1154.076625	5643.891608
1156.169429	5629.988112
1158.263636	5618.041259
1160.351651	5619.162937
1162.444864	5612.106993
1164.531889	5620.651748
1166.622213	5619.122378
1168.708250	5625.942657
1170.797584	5631.614685
1172.880737	5636.420280
1174.965292	5644.991608
1177.051249	5648.357343
1179.132924	5658.855245
1181.216001	5649.806294
1183.296692	5650.583217
1185.376891	5660.195804
1187.456599	5645.213986
1189.535816	5645.793007
1191.612651	5645.152448
1193.687105	5651.826573
1195.764850	5659.439161
1197.838326	5669.260140
1199.913202	5675.776224
1201.983811	5681.081818
1204.055821	5697.853846
1206.125456	5696.071329
1208.196491	5704.329371
1210.267038	5709.274825
1212.333324	5694.013287
1214.401011	5700.309790
1216.466326	5707.050350
1218.533041	5700.714685
1220.595500	5700.044056
1222.661244	5698.688112
1224.722734	5691.337762
1226.785625	5701.010490
1228.846148	5724.499301
1230.906187	5733.874825
1232.965744	5745.372028
1235.022935	5764.262937
1237.079645	5763.810490
1239.133991	5777.921678
1241.191619	5802.374126
1243.246884	5818.046154
1245.297908	5825.448252
1247.350332	5854.969930
1249.402276	5874.475524
1251.451862	5909.260140
1253.500969	5945.753147
1255.549598	5969.276923
1257.597748	5997.025175
1259.645419	6034.373427
1261.688860	6045.253147
1263.735577	6070.588112
1265.779940	6116.256643
1267.823827	6165.387413
1269.865362	6184.925874
1271.904548	6244.278322
1273.947007	6294.715385
1275.985243	6359.160839
1278.024878	6423.683916
1280.064038	6481.839161
1282.098979	6565.291608
1284.135319	6673.177622
1286.169315	6771.939860
1288.204708	6874.269231
1290.235889	6998.471329
1292.268467	7111.475524
1294.300574	7195.927972
1296.330340	7299.635664
1298.361504	7357.473427
1300.388460	7425.706294
1302.416814	7476.515385
1304.440963	7517.561538
1306.468378	7578.700000
1308.491590	7645.435664
1310.516200	7642.268531
1312.538476	7469.009790
1314.562149	6702.103497
1316.583489	6530.176923
1318.604361	9797.737762
1320.624766	15709.414685
1322.640978	23463.593007
1324.658587	33682.815385
1326.673868	44993.277622
1328.692408	53092.509790
1330.706759	57211.012587
1332.718784	57022.741958
1334.734066	52564.019580
1336.745163	44273.199301
1338.757657	33240.046154
1340.765968	22424.083916
1342.777534	14387.800699
1344.783062	8256.932867
1346.791845	4840.326573
1348.796450	4933.833566
1350.804309	6404.404196
1352.811706	6481.285315
1354.813072	6469.176224
1356.815834	6413.778322
1358.818137	6349.146853
1360.819980	6300.281818
1362.821363	6246.568531
1364.820433	6224.973427
1366.819044	6206.451049
1368.817197	6179.874825
1370.814891	6179.711189
1372.808423	6155.244056
1374.803351	6146.537762
1376.797821	6124.342657
1378.791835	6093.366434
1380.783542	6081.430070
1382.774794	6057.937063
1384.763740	6046.247552
1386.754081	6035.644056
1388.743967	6040.032168
1390.731549	6021.676224
1392.718678	6021.478322
1394.703505	6048.745455
1396.689727	6048.323776
1398.673649	6081.017483
1400.657118	6085.259441
1402.640134	6094.955944
1404.620853	6108.006294
1406.602966	6113.037063
1408.582783	6129.211189
1410.562148	6149.202098
1412.537375	6154.461538
1414.515840	6167.704895
1416.492012	6192.386014
1418.467735	6233.442657
1420.443008	6256.751748
1422.415990	6286.752448
1424.388524	6304.236364
1426.360610	6336.017483
1428.332249	6344.823776
1430.299759	6369.327972
1432.272343	6389.194406
1434.237122	6402.574825
1436.206972	6415.736364
1438.172699	6435.639860
1440.139818	6443.692308
1442.104654	6462.023776
1444.065370	6472.999301
1446.031154	6477.637063
1447.990983	6486.432168
1449.952206	6495.715385
1451.914821	6500.960140
1453.873321	6517.265035
1455.831378	6528.562937
1457.788994	6541.486014
1459.746167	6556.722378
1461.701065	6571.709091
1463.657356	6574.474825
1465.611372	6567.876224
1467.564947	6571.157343
1469.516250	6564.251049
1471.468946	6550.295105
1473.419369	6530.988811
1475.369354	6510.646853
1477.318900	6496.774126
1479.266177	6485.373427
1481.211186	6474.853147
1483.157588	6463.766434
1485.103552	6463.534266
1487.049079	6449.783217
1488.992340	6444.848951
1490.935166	6444.278322
1492.875728	6440.204895
1494.817681	6433.069930
1496.757372	6421.048951
1498.696629	6423.086713
1500.635450	6420.809091
1502.572012	6416.795804
1504.509965	6420.993007
1506.445659	6426.225175
1508.380920	6435.031469
1510.313925	6443.031469
1512.246497	6457.037063
1514.178637	6453.309790
1516.110345	6465.885315
1518.039799	6477.994406
1519.970644	6489.250350
1521.901057	6507.475524
1523.827398	6513.984615
1525.755130	6529.007692
1527.680611	6536.937762
1529.605663	6550.994406
1531.530286	6563.688811
1533.454480	6594.121678
1535.376426	6605.169231
1537.299763	6609.970629
1539.220853	6629.823077
1541.139700	6640.183916
1543.059935	6644.811189
1544.977928	6657.341259
1546.895494	6660.834266
1548.810818	6660.183916
1550.727532	6655.158042
1552.640191	6651.413287
1554.556054	6665.503497
1556.469677	6670.636364
1558.381062	6669.018182
1560.293837	6674.600699
1562.202562	6682.623776
1564.112676	6692.141259
1566.022367	6708.087413
1567.931635	6722.134965
1569.838669	6717.682517
1571.743470	6726.384615
1573.649660	6732.030070
1575.553618	6731.814685
1577.457155	6734.511189
1579.360272	6732.286014
1581.261159	6739.994406
1583.163435	6743.772727
1585.063483	6736.873427
1586.964918	6743.720979
1588.862320	6746.941958
1590.759303	6741.992308
1592.655868	6742.393706
1594.553821	6764.995804
1596.445939	6761.965035
1598.341250	6773.233566
1600.236144	6782.823776
1602.128816	6803.474825
1604.021071	6813.283217
1605.911107	6821.700699
1607.800727	6820.962937
1609.689932	6829.733566
1611.578722	6847.086014
1613.465294	6866.481818
1615.353254	6891.297203
1617.237197	6898.383916
1619.122527	6911.556643
1621.007444	6931.630769
1622.890147	6946.205594
1624.774237	6967.269930
1626.654315	6974.561538
1628.535781	6976.625874
1630.415036	6983.010490
1632.295677	6994.458741
1634.170514	7014.234266
1636.050332	7018.428671
1637.926146	7028.958042
1639.801549	7024.758741
1641.678338	7035.105594
1643.549331	7028.536364
1645.423505	7043.976224
1647.293680	7045.509091
1649.167037	7018.334965
1651.038190	7013.590210
1652.907141	7006.100699
1654.777477	7003.206993
1656.643821	6985.553147
1658.511550	7001.250350
1660.377080	6998.286713
1662.243996	6993.673427
1664.106923	6986.349650
1665.971235	6994.229371
1667.833351	6994.362238
1669.695062	6984.540559
1671.558159	6966.570629
1673.419060	6972.858042
1675.277769	6974.333566
1677.136074	6975.640559
1678.995764	6990.118182
1680.849686	7017.862937
1682.706782	7016.129371
1684.563475	7027.802098
1686.416191	7042.822378
1688.272079	7053.730769
1690.123993	7056.568531
1691.975506	7064.132867
1693.826618	7053.855245
1695.677330	7046.827273
1697.527641	7022.790210
1699.375767	7020.559441
1701.225278	7009.130769
1703.069040	6983.643357
1704.917751	6971.161538
1706.760716	6948.531469
1708.606848	6934.939860
1710.449017	6915.327972
1712.294352	6906.554545
1714.133946	6892.403497
1715.974924	6866.344755
1717.817285	6842.913287
1719.655690	6826.916783
1721.495478	6831.823077
1723.333091	6796.637762
1725.170308	6779.229371
1727.005352	6759.600699
1728.841779	6730.380420
1730.676034	6711.466434
1732.509894	6692.893706
1734.343360	6679.319580
1736.172881	6665.732867
1738.005560	6639.209091
1739.834295	6624.494406
1741.666187	6596.962937
1743.494137	6567.725874
1745.321696	6529.855944
1747.148862	6497.122378
1748.975637	6461.520979
1750.802020	6434.044755
1752.624467	6405.486713
1754.450069	6389.511189
1756.271736	6358.606294
1758.094785	6336.776923
1759.915672	6312.234266
1761.736171	6292.366434
1763.558051	6265.803497
1765.374231	6264.561538
1767.193563	6253.403497
1769.008968	6251.050350
1770.827523	6243.579021
1772.642153	6254.259441
1774.456396	6255.250350
1776.270253	6246.020280
1778.083723	6231.479720
1779.895040	6227.339860
1781.707737	6222.139860
1783.520049	6198.567133
1785.328443	6176.946853
1787.138217	6165.639161
1788.944077	6147.193007
1790.753082	6133.496503
1792.558174	6120.206993
1794.364647	6116.665734
1796.170736	6105.832168
1797.972914	6094.329371
1799.778237	6095.526573
1801.579651	6087.445455
1803.382445	6080.767133
1805.181333	6065.222378
1806.981602	6054.668531
1808.781489	6051.673427
1810.579234	6041.594406
1812.376599	6029.553846
1814.173584	6032.306993
1815.970188	6025.465035
1817.764653	6029.497902
1819.560497	6027.871329
1821.350686	6019.910490
1823.145772	6011.845455
1824.935206	6001.360140
1826.727776	6000.457343
1828.518211	5982.710490
1830.306512	5981.583217
1832.097948	5971.127972
1833.883738	5960.889510
1835.670908	5965.789510
1837.455946	5971.334965
1839.244118	5972.541259
1841.028404	5980.617483
1842.810560	5987.052448
1844.594096	5992.090210
1846.375503	5986.128671
1848.158289	5989.379021
1849.937194	5975.690210
1851.717479	5976.962238
1853.495637	5970.713986
1855.275174	5957.571329
1857.052586	5954.804895
1858.827874	5949.804895
1860.604540	5946.805594
1862.379084	5963.325175
1864.155006	5960.296503
1865.925307	5957.517483
1867.698736	5959.222378
1869.470045	5965.906993
1871.240983	5969.542657
1873.013299	5979.801399
1874.780001	5984.155245
1876.549829	5989.332867
1878.315793	6001.216084
1880.084880	6010.331469
1881.850106	6012.597902
1883.614964	6019.846853
1885.381199	6017.681119
1887.143575	6007.434266
1888.905584	6009.611888
1890.667225	6005.583217
1892.428500	6009.840559
1894.189407	6017.239161
1895.949948	6022.597203
1897.708379	6044.942657
1899.466444	6068.928671
1901.222402	6094.306294
1902.979736	6111.623776
1904.736705	6137.900699
1906.491567	6160.141259
1908.244325	6156.918182
1909.996718	6165.313986
1911.750488	6168.918881
1913.502154	6184.369231
1915.251718	6201.064336
1917.002657	6217.569231
1918.753234	6242.896503
1920.499971	6268.200000
1922.248085	6300.737063
1923.994099	6329.688811
1925.741488	6344.398601
1927.486780	6361.409091
1929.229974	6380.099301
1930.974543	6410.020979
1932.717017	6439.322378
1934.459130	6469.974126
1936.200883	6509.398252
1937.942276	6552.263636
1939.681576	6593.300350
1941.420517	6633.866434
1943.159099	6672.269580
1944.895590	6707.502797
1946.631723	6723.084266
1948.369230	6732.222378
1950.102915	6753.707343
1951.837975	6771.826573
1953.570946	6777.699650
1955.303561	6794.877622
1957.035820	6812.884965
1958.767722	6845.772727
1960.497538	6866.437762
1962.225269	6888.502098
1963.954375	6912.980420
1965.683126	6938.075524
1967.409793	6947.066434
1969.136106	6963.104196
1970.863792	6989.412587
1972.585942	7021.044755
1974.311193	7042.204196
1976.032637	7079.509790
1977.757182	7107.474825
1979.479646	7139.590210
1981.198308	7148.353147
1982.920068	7161.843357
1984.638026	7168.037762
1986.357357	7171.411888
1988.072889	7181.300000
1989.793241	7208.355245
1991.509795	7220.912587
1993.222552	7249.619580
1994.938405	7269.586014
1996.652186	7312.109790
1998.365617	7348.603497
2000.076977	7369.557343
2001.789709	7387.927972
2003.498651	7412.403497
2005.210685	7426.161538
2006.917211	7454.232168
2008.626828	7469.247552
2010.334379	7487.552448
2012.041581	7501.477622
2013.746718	7523.475524
2015.451509	7533.513986
2017.157671	7546.674825
2018.860051	7554.386014
2020.563802	7566.504895
2022.265491	7575.037762
2023.966835	7585.813287
2025.667833	7592.302797
2027.366770	7613.644056
2029.067079	7623.114685
2030.763613	7634.274126
2032.461518	7654.608392
2034.157364	7666.856643
2035.856296	7663.055245
2037.549742	7659.254545
2039.244559	7658.839161
2040.939034	7671.162937
2042.629740	7662.630769
2044.323530	7661.864336
2046.013553	7652.498601
2047.704947	7652.830769
2049.394288	7644.656643
2051.084999	7631.140559
2052.771947	7643.120979
2054.458556	7636.656643
2056.146534	7625.619580
2057.830753	7619.818182
2059.516343	7620.788112
2061.201593	7629.386014
2062.884794	7619.709790
2064.569366	7617.339860
2066.248475	7616.488811
2067.932369	7620.309091
2069.610802	7621.799301
2071.292313	7626.255944
2072.970072	7636.955944
2074.647495	7642.831469
2076.326287	7643.701399
2078.003037	7643.318182
2079.677745	7644.029371
2081.353822	7638.396503
2083.027859	7628.734266
2084.701560	7616.090210
2086.374926	7623.120979
2088.046253	7614.856643
2089.717246	7622.181119
2091.387905	7628.146154
2093.058230	7635.932168
2094.728221	7651.773427
2096.396176	7651.342657
2098.063798	7660.586713
2099.729385	7675.364336
2101.396341	7699.082517
2103.061264	7711.183916
2104.725855	7719.791608
2106.388414	7736.021678
2108.052341	7745.781818
2109.714237	7764.340559
2111.375803	7773.051049
2113.037037	7790.421678
2114.696243	7801.593706
2116.355118	7814.988112
2118.013664	7836.849650
2119.671880	7856.341958
2121.326372	7878.966434
2122.983929	7894.327273
2124.641157	7904.532867
2126.294663	7913.980420
2127.949537	7920.828671
2129.600692	7918.606993
2131.254910	7913.534266
2132.905411	7927.858042
2134.557278	7928.810490
2136.203737	7927.880420
2137.854951	7935.803497
2139.502451	7941.387413
2141.151318	7951.528671
2142.798166	7964.571329
2144.444689	7969.239161
2146.090886	7990.898601
2147.733375	8007.620280
2149.378922	8014.379720
2151.020762	8026.105594
2152.665659	8050.006993
2154.306850	8058.972727
2155.947719	8066.738462
2157.588263	8084.627972
2159.226795	8093.390909
2160.866693	8093.034965
2162.502891	8093.960839
2164.140455	8093.514685
2165.777697	8104.860140
2167.412929	8106.042657
2169.047840	8107.029371
2170.682428	8115.696503
2172.316696	8124.376923
2173.947270	8135.827273
2175.580896	8150.133566
2177.210830	8159.416783
2178.842129	8166.219580
2180.471423	8168.898601
2182.100398	8159.382517
2183.729053	8158.813287
2185.357389	8162.497203
2186.983723	8149.740559
2188.609738	8151.632867
2190.233751	8142.283217
2191.859130	8137.544755
2193.482508	8136.235664
2195.107251	8127.524476
2196.728313	8122.162937
2198.349058	8108.846154
2199.971168	8107.032168
2201.591280	8088.806993
2203.209395	8092.467133
2204.827195	8085.451748
2206.444680	8059.239860
2208.061849	8063.332867
2209.678703	8063.440559
2211.295241	8058.957343
2212.909787	8059.993007
2214.522340	8056.150350
2216.136257	8067.679021
2217.748183	8071.505594
2219.361472	8091.025175
2220.972771	8103.829371
2222.582080	8127.395105
2224.192753	8137.409790
2225.801437	8152.663636
2227.409808	8177.230769
2229.016193	8198.816084
2230.623941	8203.595105
2232.229702	8227.160140
2233.835152	8233.746154
2235.438617	8246.876224
2237.043445	8256.551748
2238.646289	8272.649650
2240.247150	8285.141259
2241.849374	8300.302098
2243.449616	8303.951049
2245.051220	8312.214685
2246.649171	8319.812587
2248.248485	8341.873427
2249.845819	8356.872028
2251.442845	8385.869231
2253.041233	8406.693007
2254.635972	8431.991608
2256.228734	8462.031469
2257.822859	8480.876224
2259.418345	8491.527273
2261.010186	8494.916084
2262.601721	8499.631469
2264.194618	8506.857343
2265.782205	8523.548252
2267.374488	8531.437762
2268.961465	8528.850350
2270.551469	8537.248252
2272.136169	8528.426573
2273.725563	8520.483217
2275.309655	8504.253846
2276.895107	8472.472727
2278.478591	8459.207692
2280.065100	8442.923077
2281.647976	8439.191608
2283.230549	8434.228671
2284.812818	8434.265734
2286.391457	8428.223077
2287.973121	8415.960839
2289.551156	8412.684615
2291.132214	8399.439161
2292.709645	8403.973427
2294.285113	8396.089510
2295.863603	8396.922378
2297.438469	8404.966434
2299.013034	8408.416783
2300.587299	8404.440559
2302.161263	8397.325175
2303.734926	8394.400000
2305.308290	8368.297902
2306.878035	8349.271329
2308.447481	8340.443357
2310.019945	8346.448951
2311.587135	8348.146154
2313.157343	8360.016783
2314.723936	8384.759441
2316.291889	8398.289510
2317.857886	8433.558042
2319.423586	8459.562238
2320.988988	8476.308392
2322.552437	8498.935664
2324.117245	8513.781119
2325.678445	8536.944056
2327.242659	8542.706294
2328.801611	8544.809790
2330.363578	8532.893007
2331.923593	8523.343357
2333.483314	8520.523077
2335.041085	8502.156643
2336.598561	8498.079021
2338.155743	8492.748951
2339.710977	8483.123776
2341.265918	8488.627972
2342.820564	8489.926573
2344.374917	8485.732867
2345.928977	8473.146853
2347.482742	8464.787413
2349.034564	8452.579720
2350.584442	8449.439860
2352.137328	8451.395105
2353.684972	8425.786014
2355.235623	8416.138462
2356.782683	8417.946853
2358.331101	8407.913287
2359.879228	8401.476224
2361.423766	8392.270629
2362.969662	8395.126573
2364.513620	8394.951049
2366.058935	8398.533566
2367.600665	8403.302797
2369.143752	8411.493007
2370.684903	8412.582517
2372.225765	8409.076224
2373.766338	8428.282517
2375.306622	8436.872028
2376.846617	8441.698601
2378.383034	8448.635664
2379.922452	8459.744755
2381.458293	8467.652448
2382.995490	8482.689510
2384.529112	8478.066434
2386.065734	8476.448951
2387.600426	8487.876224
2389.133188	8502.374825
2390.665663	8528.554545
2392.196210	8545.253846
2393.729755	8543.481818
2395.258089	8546.022378
2396.787780	8558.109790
2398.317184	8562.030769
2399.846304	8574.413986
2401.375139	8580.175524
2402.898768	8569.504196
2404.427033	8571.488811
2405.950096	8591.744056
2407.477792	8605.829371
2408.998649	8632.535664
2410.524139	8644.711189
2412.046068	8662.049650
2413.569353	8687.320979
2415.090716	8715.804196
2416.610160	8720.132867
2418.130959	8743.559441
2419.649840	8742.767832
2421.168438	8750.417483
2422.685119	8750.606993
2424.203154	8759.274825
2425.720908	8770.606294
2427.235111	8789.592308
2428.749033	8817.675524
2430.262675	8850.255944
2431.777672	8873.881119
2433.289120	8901.854545
2434.801923	8912.385315
2436.312812	8931.376923
2437.823423	8939.139860
2439.332122	8947.540559
2440.843807	8954.071329
2442.351949	8960.816084
2443.859813	8982.020979
2445.367399	9007.286014
2446.871444	9034.268531
2448.378474	9066.904196
2449.883597	9094.837762
2451.388441	9137.337762
2452.891379	9152.734965
2454.394041	9166.716783
2455.896426	9167.024476
2457.396906	9167.561538
2458.898739	9171.862238
2460.398667	9179.432867
2461.898320	9199.588811
2463.397698	9218.448252
2464.895173	9235.686713
2466.390746	9263.956643
2467.889299	9294.469930
2469.384324	9332.130769
2470.880701	9359.817483
2472.373552	9381.337063
2473.867756	9396.661538
2475.361686	9422.804895
2476.852092	9437.756643
2478.345476	9454.645455
2479.836962	9466.441958
2481.326551	9485.139161
2482.815868	9493.099301
2484.303289	9501.971329
2485.793686	9512.258042
2487.280565	9527.119580
2488.768795	9535.656643
2490.253508	9547.398601
2491.737952	9550.790909
2493.223746	9560.793007
2494.707649	9550.660140
2496.192902	9549.123077
2497.673022	9542.186014
2499.156115	9533.864336
2500.637317	9510.946853
2502.118250	9489.393706
2503.597294	9463.755245
2505.076069	9436.651748
2506.554576	9405.777622
2508.032815	9383.397203
2509.510785	9350.637063
2510.985250	9317.641259
2512.462685	9280.537063
2513.936616	9257.484615
2515.411897	9219.770629
2516.886911	9188.357343
2518.358425	9158.393706
2519.831288	9135.768531
2521.302269	9106.290210
2522.774600	9083.772727
2524.241817	9061.400699
2525.712001	9028.729371
2527.180304	8999.315385
2528.648342	8960.182517
2530.116115	8935.073427
2531.583623	8916.037762
2533.050866	8889.702797
2534.514617	8874.095804
2535.979718	8866.688811
2537.442942	8866.700699
2538.907516	8862.591608
2540.368600	8872.569231
2541.831034	8879.770629
2543.293205	8868.887413
2544.751890	8875.686014
2546.215147	8863.885315
2547.673307	8862.904895
2549.132816	8851.962937
2550.587231	8844.996503
2552.046217	8840.031469
2553.503331	8831.969930
2554.958574	8825.700699
2556.413555	8818.129371
2557.866668	8828.020979
2559.321129	8822.160140
2560.773720	8813.998601
2562.226052	8823.901399
2563.676517	8823.119580
2565.129937	8831.849650
2566.578275	8847.332867
2568.029569	8879.281119
2569.478996	8895.913986
2570.924951	8909.790210
2572.373861	8915.262238
2573.819301	8917.306993
2575.266088	8914.481818
2576.711013	8908.535664
2578.155679	8913.220979
2579.601693	8925.559441
2581.044241	8924.681119
2582.488136	8929.369231
2583.928566	8945.146154
2585.370343	8950.221678
2586.810261	8947.291608
2588.251526	8954.203497
2589.689329	8959.178322
2591.130082	8958.737063
2592.565773	8975.746154
2594.004413	8995.204196
2595.441195	9012.815385
2596.876122	9033.345455
2598.313996	9036.207692
2599.746813	9049.290909
2601.180977	9041.538462
2602.613287	9044.732168
2604.046943	9042.547552
2605.478746	9047.607692
2606.910295	9059.462238
2608.341592	9056.153846
2609.771036	9077.487413
2611.200228	9071.758042
2612.627570	9085.304895
2614.056257	9089.032867
2615.484693	9090.662238
2616.909681	9106.517483
2618.336016	9100.281818
2619.760502	9121.527972
2621.186334	9125.600000
2622.608722	9147.579021
2624.032456	9153.099301
2625.454343	9147.653147
2626.875981	9158.998601
2628.295773	9156.976224
2629.716911	9179.118182
2631.137799	9180.402098
2632.555249	9202.948252
2633.975638	9218.382517
2635.392590	9216.016084
2636.809293	9243.285315
2638.225748	9252.067133
2639.641955	9266.083916
2641.057914	9254.246154
2642.472032	9246.783217
2643.885902	9247.455944
2645.297934	9252.267832
2646.711309	9282.120979
2648.121255	9300.919580
2649.534137	9330.352448
2650.943590	9354.504196
2652.352797	9379.594406
2653.760168	9405.250350
2655.170473	9415.755944
2656.578943	9427.944755
2657.985577	9444.556643
2659.391966	9440.653846
2660.796521	9444.546154
2662.202420	9461.468531
2663.606486	9492.004196
2665.010307	9510.916783
2666.413884	9529.170629
2667.815630	9552.319580
2669.218719	9558.153147
2670.618390	9559.334266
2672.019405	9572.088112
2673.417004	9574.930769
2674.817533	9586.641958
2676.214646	9582.553846
2677.613103	9593.161538
2679.009733	9608.972028
2680.406120	9608.245455
2681.802265	9620.266434
2683.196585	9637.743357
2684.592246	9639.014685
2685.984499	9641.665734
2687.378094	9649.187413
2688.769865	9655.795804
2690.162979	9644.574126
2691.554269	9651.503497
2692.943736	9660.720979
2694.332963	9654.890210
2695.721951	9668.144755
2697.112280	9649.230769
2698.497626	9663.085315
2699.885895	9670.674126
2701.272344	9665.697203
2702.658554	9684.761538
2704.044525	9685.649650
2705.427098	9700.709091
2706.811013	9708.723776
2708.194690	9726.573427
2709.578128	9753.925175
2710.958172	9778.469231
2712.339556	9810.055245
2713.719126	9823.418881
2715.100036	9849.168531
2716.479132	9871.355944
2717.856414	9892.426573
2719.235037	9920.602098
2720.611847	9928.860140
2721.988420	9954.339860
2723.364758	9970.881119
2724.739285	9985.116084
2726.115152	10016.755245
2727.487632	10039.971329
2728.863028	10067.053147
2730.233464	10091.315385
2731.605241	10109.848951
2732.976783	10132.858042
2734.346517	10155.325874
2735.717592	10180.639860
2737.086858	10195.483217
2738.455891	10212.322378
2739.823118	10248.180420
2741.190112	10267.074126
2742.556872	10301.379021
2743.923401	10324.689510
2745.288124	10368.175524
2746.652615	10388.446154
2748.016875	10409.075524
2749.380902	10426.206993
2750.744698	10449.191608
2752.105120	10459.918881
2753.468452	10448.976224
2754.826842	10450.460140
2756.188142	10458.463636
2757.546072	10457.374126
2758.906910	10461.410490
2760.265949	10448.733566
2761.621619	10462.271329
2762.980197	10468.129371
2764.335408	10475.299301
2765.690390	10489.141958
2767.043576	10508.009091
2768.399668	10503.669231
2769.752395	10511.027972
2771.104895	10524.525175
2772.457166	10535.690909
2773.810776	10549.514685
2775.161024	10563.397203
2776.509478	10571.556643
2777.860838	10597.456643
2779.208838	10613.511189
2780.558176	10618.919580
2781.905722	10641.493706
2783.253042	10640.539161
2784.600135	10626.618182
2785.945437	10637.860140
2787.290512	10638.623077
2788.635362	10651.800000
2789.979986	10665.165035
2791.321258	10689.130070
2792.663868	10710.278322
2794.006252	10744.165035
2795.348411	10777.192308
2796.687221	10807.316783
2798.028931	10852.155944
2799.367293	10864.251748
2800.706991	10873.706294
2802.044905	10904.165035
2803.381034	10935.594406
2804.716939	10960.830769
2806.054182	10988.737063
2807.389641	11015.739860
2808.724877	11029.632867
2810.058330	11066.883916
2811.393120	11097.948951
2812.724570	11123.197902
2814.058915	11151.472028
2815.388362	11151.399301
2816.719146	11166.911888
2818.049708	11180.502797
2819.378491	11186.072727
2820.708610	11183.542657
2822.036951	11192.559441
2823.365071	11185.459441
2824.691413	11182.119580
2826.019092	11193.538462
2827.343437	11196.295804
2828.669119	11188.883916
2829.993025	11183.393706
2831.316712	11176.983217
2832.641734	11185.004196
2833.963426	11186.487413
2835.284900	11184.829371
2836.606155	11194.884615
2837.927191	11204.694406
2839.246454	11205.628671
2840.567053	11218.332168
2841.885881	11218.536364
2843.204490	11216.934965
2844.521328	11205.961538
2845.837949	11203.753147
2847.154353	11216.592308
2848.468987	11241.014685
2849.784957	11260.080420
2851.097606	11270.548951
2852.411590	11279.093706
2853.725358	11273.832867
2855.038909	11272.884615
2856.350694	11294.916084
2857.660712	11298.465734
2858.972065	11303.993706
2860.280103	11313.320280
2861.589475	11329.692308
2862.898633	11362.841259
2864.207575	11394.765035
2865.514753	11400.808392
2866.820169	11421.801399
2868.126919	11426.082517
2869.431906	11424.004196
2870.736680	11443.348951
2872.039692	11475.623776
2873.345585	11468.926573
2874.646624	11494.777622
2875.948997	11498.009091
2877.249610	11494.525874
2878.551557	11493.804895
2879.853290	11494.377622
2881.151720	11502.173427
2882.451483	11503.058741
2883.749489	11501.893007
2885.047283	11492.806993
2886.343321	11495.404196
2887.640692	11491.776224
2888.936307	11494.849650
2890.231711	11503.839161
2891.526904	11480.628671
2892.818800	11475.897902
2894.113572	11466.213287
2895.405047	11464.479021
2896.697855	11455.562937
2897.990453	11438.634965
2899.279757	11448.760839
2900.570393	11439.065734
2901.859278	11440.176224
2903.149495	11440.814685
2904.436421	11443.981818
2905.724679	11432.687413
2907.011188	11428.931469
2908.297489	11447.062238
2909.583581	11416.259441
2910.867925	11412.811888
2912.155140	11402.148252
2913.437529	11403.053147
2914.721250	11401.237063
2916.003225	11405.893007
2917.284992	11410.766434
2918.565015	11408.739860
2919.847907	11407.483916
2921.129054	11404.687413
2922.406919	11416.446154
2923.687653	11409.384615
2924.965106	11389.197203
2926.242353	11398.155944
2927.517858	11396.581818
2928.796231	11397.786713
2930.069790	11394.930769
2931.346216	11394.195105
2932.620901	11385.014685
2933.893845	11380.898601
2935.168121	11376.730070
2936.440657	11369.311189
2937.712988	11367.491608
2938.982047	11351.925175
2940.253971	11347.846154
2941.524157	11332.848252
2942.794139	11327.645455
2944.063918	11334.616084
2945.331961	11342.827273
2946.598267	11334.452448
2947.864372	11326.791608
2949.131806	11332.056643
2950.397506	11325.997902
2951.663003	11333.977622
2952.928298	11328.546853
2954.190328	11337.937762
2955.453688	11321.463636
2956.716847	11315.824476
2957.978274	11310.781119
2959.241030	11335.413287
2960.502054	11344.157343
2961.761348	11347.413986
2963.020442	11348.889510
2964.279335	11346.036364
2965.538028	11325.498601
2966.796521	11333.786713
2968.053285	11323.804196
2969.309849	11338.991608
2970.564686	11340.253846
2971.820851	11359.922378
2973.073762	11354.680420
2974.328002	11382.980420
2975.582043	11374.430769
2976.834358	11382.941259
2978.086474	11378.553147
2979.336866	11378.102098
2980.590113	11376.879720
2981.838583	11394.762238
2983.089908	11401.848951
2984.337983	11424.231469
2985.585862	11439.355944
2986.833543	11447.282517
2988.081027	11445.828671
2989.326790	11449.997902
2990.572357	11440.783217
2991.819251	11435.578322
2993.062901	11442.269930
2994.307879	11457.824476
2995.549613	11456.716783
2996.794199	11467.646853
2998.037066	11487.915385
2999.276692	11490.438462
3000.519168	11498.278322
3001.758404	11500.972727
3002.998968	11518.012587
3004.237816	11516.697203
3005.476468	11516.054545
3006.713406	11528.488112
3007.951670	11531.842657
3009.188219	11544.884615
3010.424575	11553.751748
3011.660737	11571.891608
3012.895185	11583.413986
3014.129441	11570.026573
3015.363503	11576.540559
3016.595853	11589.102098
3017.826491	11584.074825
3019.059975	11574.655944
3020.291747	11579.963636
3021.521809	11594.111189
3022.751679	11581.686014
3023.979839	11606.660839
3025.209325	11619.221678
3026.437102	11618.404196
3027.664688	11634.285315
3028.893601	11651.051748
3030.117771	11672.184615
3031.344784	11685.634266
3032.568573	11668.676923
3033.793689	11683.513287
3035.017098	11686.827273
3036.240317	11668.007692
3037.461831	11657.006993
3038.686186	11676.379021
3039.905806	11677.973427
3041.126752	11680.582517
3042.347509	11691.747552
3043.566562	11700.727273
3044.786940	11712.446154
3046.004102	11712.639860
3047.222590	11722.137762
3048.439375	11725.872727
3049.655973	11712.643357
3050.872382	11701.804895
3052.085579	11699.132168
3053.301613	11705.259441
3054.514435	11692.830769
3055.730094	11685.249650
3056.941030	11676.199301
3058.153291	11674.467832
3059.365366	11689.656643
3060.577253	11697.846154
3061.787444	11711.589510
3062.997448	11705.915734
3064.207266	11710.126573
3065.415388	11718.101748
3066.623325	11723.986014
3067.829566	11721.526923
3069.037132	11709.041958
3070.243003	11722.477273
3071.448690	11746.204196
3072.654191	11750.059091
3073.857999	11787.542657
3075.063131	11802.001748
3076.266570	11817.760839
3077.468318	11826.839510
3078.669881	11825.862937
3079.871261	11832.621678
3081.072457	11830.324476
3082.271963	11819.251748
3083.471286	11806.888811
3084.671932	11811.418881
3085.870888	11811.555944
3087.066650	11809.716783
3088.265241	11822.199301
3089.460638	11828.559441
3090.657358	11847.878322
3091.850886	11844.043357
3093.047242	11838.756643
3094.241912	11846.813986
3095.433391	11853.289510
3096.629201	11848.662937
3097.820318	11858.374825
3099.012757	11854.885315
3100.202009	11874.420280
3101.394086	11881.584615
3102.584480	11887.048252
3103.771688	11903.286713
3104.960219	11903.003497
3106.150071	11905.119580
3107.336740	11895.297203
3108.523228	11888.349650
3109.709538	11869.136364
3110.897169	11850.134965
3112.081618	11865.156643
3113.264388	11861.153846
3114.449980	11895.199301
3115.633893	11905.680420
3116.816127	11917.827972
3117.998182	11938.518182
3119.180059	11957.919580
3120.361758	11976.095105
3121.541780	11968.519580
3122.720125	11962.065734
3123.901290	11939.375524
3125.079280	11936.875524
3126.257094	11941.556643
3127.434730	11925.323077
3128.610691	11922.969231
3129.786475	11902.420280
3130.963581	11900.748252
3132.139012	11904.162238
3133.312770	11917.514685
3134.484855	11931.628671
3135.658262	11938.550350
3136.831492	11962.606993
3138.003051	11970.414685
3139.175930	11995.884615
3140.345642	12023.237063
3141.516675	12008.274825
3142.686038	12009.430070
3143.853730	11999.279720
3145.024238	11990.302797
3146.190088	11983.667133
3147.360246	11986.630070
3148.525748	12000.448252
3149.691075	11988.165035
3150.856229	12007.176923
3152.021210	12008.603497
3153.187510	12010.944755
3154.349158	11997.553147
3155.512125	11963.852448
3156.674920	11927.779720
3157.837542	11882.422378
3158.998499	11844.590210
3160.159283	11809.245455
3161.319895	11779.581818
3162.478843	11764.798601
3163.637620	11751.258042
3164.796225	11767.843357
3165.954657	11772.885315
3167.112919	11776.930070
3168.269518	11797.574126
3169.424456	11814.688811
3170.580713	11813.683217
3171.735309	11843.025874
3172.889735	11858.325874
3174.042501	11835.116084
3175.195096	11842.133566
3176.347522	11844.534266
3177.499778	11858.218881
3178.651863	11854.472028
3179.800803	11857.301399
3180.952549	11884.062937
3182.102637	11914.132168
3183.251069	11946.341958
3184.399331	11990.606993
3185.547425	12048.411189
3186.695350	12087.532168
3187.841619	12100.398601
3188.987720	12143.732168
3190.132167	12151.085315
3191.276446	12171.686014
3192.420557	12170.620280
3193.565985	12173.125874
3194.708275	12159.747552
3195.850398	12144.334266
3196.992353	12133.156643
3198.134141	12126.997203
3199.275762	12127.140559
3200.414248	12126.651049
3201.554051	12125.872727
3202.695172	12121.318881
3203.833158	12127.425175
3204.969495	12137.748252
3206.105666	12143.216084
3207.243154	12152.093007
3208.378994	12159.037762
3209.516151	12159.978322
3210.648695	12148.686014
3211.785521	12151.616084
3212.917735	12154.781818
3214.051266	12139.699301
3215.184633	12098.554545
3216.314872	12052.784615
3217.447909	12036.776224
3218.577820	11990.072028
3219.709047	11964.297902
3220.837150	11954.349650
3221.968049	11938.660140
3223.097304	11926.779021
3224.224916	11945.527972
3225.349405	11966.247552
3226.478170	11994.146853
3227.603813	12000.693706
3228.729294	12007.218881
3229.853133	12021.000699
3230.979766	12024.376923
3232.101802	11995.574825
3233.225154	11981.819580
3234.348344	11961.134965
3235.471372	11951.906294
3236.592760	11936.965035
3237.713986	11938.155944
3238.833575	11949.600000
3239.953002	11977.372028
3241.070791	12003.740559
3242.191372	12056.986014
3243.308840	12095.712587
3244.426147	12145.960839
3245.543294	12172.375524
3246.658805	12208.014685
3247.775630	12242.383916
3248.889346	12277.810490
3250.005851	12279.337762
3251.120722	12293.629371
3252.232484	12316.813986
3253.344086	12319.002098
3254.457004	12322.139860
3255.569762	12335.893007
3256.679414	12346.250350
3257.790381	12358.520979
3258.901189	12346.430070
3260.010365	12345.083916
3261.117911	12357.551748
3262.226770	12360.769231
3263.335472	12376.334965
3264.441071	12404.594406
3265.547984	12430.925175
3266.653268	12431.489510
3267.759866	12455.406993
3268.863364	12478.293007
3269.968177	12496.274126
3271.072832	12514.689510
3272.174388	12528.892308
3273.275788	12541.858741
3274.378502	12556.246853
3275.481060	12579.106993
3276.580521	12600.917483
3277.682766	12604.559441
3278.781915	12602.044056
3279.879440	12575.414685
3280.976809	12586.650350
3282.076960	12570.484615
3283.174019	12545.480420
3284.270922	12551.061538
3285.367670	12530.976923
3286.459860	12529.207692
3287.556298	12542.355245
3288.651114	12537.916783
3289.745776	12532.981818
3290.838816	12531.813287
3291.931701	12523.539161
3293.022967	12508.916084
3294.115544	12507.635664
3295.206502	12484.721678
3296.295840	12462.654545
3297.385025	12477.272727
3298.475523	12460.281119
3299.562936	12463.848252
3300.650196	12480.660839
3301.738769	12495.651049
3302.827190	12515.329371
3303.911063	12530.649650
3304.999178	12549.732168
3306.084211	12559.472727
3307.167629	12577.806294
3308.252359	12576.899301
3309.335473	12583.597902
3310.419900	12597.036364
3311.501248	12591.673427
3312.583908	12590.601399
3313.664954	12591.493706
3314.745849	12606.343357
3315.825130	12600.774126
3316.904261	12608.125874
3317.984704	12622.389510
3319.062072	12622.954545
3320.140752	12644.962937
3321.217820	12648.077622
3322.294739	12659.539161
3323.370046	12670.162937
3324.445204	12673.067133
3325.521673	12671.560140
3326.595072	12665.086014
3327.668322	12691.900699
3328.742882	12696.726573
3329.815834	12688.576923
3330.887177	12674.372727
3331.959831	12670.830070
3333.029419	12662.882517
3334.100317	12646.073427
3335.169608	12629.682517
3336.240210	12617.437063
3337.309205	12593.948951
3338.376594	12593.963636
3339.442378	12597.735664
3340.512388	12599.216783
3341.579335	12596.220280
3342.643220	12587.471329
3343.709873	12589.401399
3344.774921	12592.183217
3345.838366	12591.939161
3346.901665	12585.503497
3347.964817	12592.570629
3349.027823	12564.088112
3350.090683	12555.627273
3351.151941	12539.264336
3352.210142	12521.993706
3353.272563	12507.250350
3354.331929	12515.317483
3355.391149	12516.962238
3356.451679	12544.426573
3357.507699	12574.644755
3358.566483	12604.574825
3359.620760	12629.141958
3360.677801	12649.441259
3361.733243	12665.348252
3362.789995	12693.107692
3363.845148	12696.195105
3364.898704	12705.960839
3365.950664	12711.619580
3367.005385	12728.617483
3368.057057	12724.518182
3369.108586	12743.204196
3370.161423	12751.994406
3371.211213	12749.985315
3372.262312	12752.404895
3373.310365	12750.616783
3374.361177	12763.727273
3375.408945	12757.511888
3376.456570	12756.821678
3377.504052	12752.958741
3378.549942	12748.821678
3379.597140	12751.143357
3380.641296	12755.274126
3381.688210	12766.434266
3382.733532	12760.160140
3383.775813	12768.102098
3384.817954	12767.096503
3385.861402	12760.234965
3386.904709	12748.278322
3387.946427	12739.716783
3388.988003	12743.676923
3390.029438	12754.385315
3391.069285	12777.111189
3392.107543	12785.947552
3393.147109	12834.990909
3394.186535	12855.546154
3395.224373	12858.500000
3396.260624	12875.775524
3397.296736	12868.134965
3398.334155	12865.598601
3399.368541	12861.169930
3400.404234	12858.327273
3401.439788	12867.483217
3402.472311	12875.810490
3403.507587	12879.374126
3404.539832	12874.287413
3405.571939	12909.808392
3406.602462	12915.922378
3407.634292	12923.284615
3408.665984	12933.300699
3409.694648	12942.316084
3410.723175	12950.033566
3411.753008	12932.848951
3412.782704	12923.415385
3413.809374	12923.184615
3414.837351	12923.132867
3415.862303	12901.166434
3416.890005	12905.225874
3417.914684	12911.832168
3418.940669	12915.687413
3419.965074	12930.372028
3420.989343	12926.913287
3422.012033	12936.460140
3423.034587	12904.976224
3424.058447	12865.767133
3425.079287	12838.182517
3426.099991	12804.394106
3427.122002	12775.940909
3428.140994	12757.005095
3429.159850	12751.768831
3430.180013	12764.414286
3431.197159	12799.123626
