-118.343598	-1.065934
-115.673997	-0.615385
-113.007332	1.078921
-110.341419	3.450549
-107.678439	5.933067
-105.014028	7.960040
-102.352548	8.965035
-99.689639	2.041958
-97.031836	2.391608
-94.372604	-1.496503
-91.714120	-9.503497
-89.058561	-18.300699
-86.401572	-28.111888
-83.749682	-27.174825
-81.096362	-27.223776
-78.445961	-17.160839
-75.794132	-1.601399
-73.147393	4.419580
-70.499224	12.923077
-67.851798	26.258741
-65.207287	35.349650
-62.561346	32.132867
-59.920487	23.496503
-57.278199	24.321678
-54.638820	17.447552
-51.998012	13.125874
-49.357943	11.384615
-46.722948	14.020979
-44.086523	17.272727
-41.453001	19.895105
-38.818051	17.062937
-36.188167	26.440559
-33.554689	22.251748
-30.926274	18.419580
-28.298593	24.790210
-25.669483	15.692308
-23.045431	-31.895105
-20.417788	-199.853147
-17.795200	-582.811189
-15.173342	-993.664336
-12.552215	392.510490
-9.931819	2934.510490
-7.314310	5041.454545
-4.695373	6532.601399
-2.079322	7393.426573
0.536002	7612.419580
3.150597	7200.188811
5.762311	6156.447552
8.375453	4524.132867
10.983561	2409.013986
13.595250	175.328671
16.201909	-1286.881119
18.809997	-806.937063
21.417359	-57.426573
24.019697	26.713287
26.625613	23.853147
29.226508	25.965035
31.828830	13.083916
34.426134	4.447552
37.027015	7.881119
39.622880	10.790210
42.220173	10.139860
44.816747	2.986014
47.408312	4.321678
50.001306	7.139860
52.591438	3.230769
55.182997	-0.545455
57.771698	-9.251748
60.361825	-2.265734
62.946953	-4.944056
65.533509	-0.895105
68.119350	4.832168
70.702338	0.328671
73.286753	-3.482517
75.864039	-2.685315
78.444890	-6.202797
81.022894	-9.349650
83.600186	-15.762238
86.178906	-18.251748
88.752643	-14.195804
91.327807	-2.111888
93.900128	-2.454545
96.471742	4.174825
99.040515	10.538462
101.610715	16.272727
104.178076	23.902098
106.746864	26.433566
109.312815	23.790210
111.875931	25.405594
114.442603	26.216783
117.000053	18.510490
119.563189	24.000000
122.121366	28.979021
124.683097	23.664336
127.239871	46.300699
129.798071	93.195804
132.351319	151.524476
134.903869	210.902098
137.459969	273.412587
140.011121	339.223776
142.561576	417.944056
145.111333	470.573427
147.658271	519.167832
150.204514	561.860140
152.752182	581.636364
155.299154	582.335664
157.841190	597.909091
160.382534	613.636364
162.923184	616.755245
165.465259	612.713287
168.004524	606.377622
170.540979	593.664336
173.076744	598.825175
175.613934	590.321678
178.150433	587.286713
180.684126	592.965035
183.215015	587.216783
185.745216	584.713287
188.276843	587.531469
190.805668	587.321678
193.331694	585.398601
195.857034	580.895105
198.383799	577.062937
200.907768	576.230769
203.431051	579.111888
205.953650	585.307692
208.473456	593.265734
210.992579	611.272727
213.511019	624.559441
216.030884	638.272727
218.543746	640.832168
221.060140	638.013986
223.575853	636.076923
226.086675	638.468531
228.598922	645.993007
231.108386	652.524476
233.617172	649.923077
236.125280	654.482517
238.634812	648.608392
241.139463	650.160839
243.643438	654.699301
246.148837	654.881119
248.649361	659.559441
251.153408	661.440559
253.650485	663.202797
256.151084	668.587413
258.648912	674.853147
261.146067	667.020979
263.642550	666.370629
266.134169	665.314685
268.629308	668.993007
271.121680	675.671329
273.613382	680.685315
276.102321	694.944056
278.592683	709.685315
281.080284	717.783217
283.565125	720.279720
286.053481	726.398601
288.534897	741.517483
291.019827	736.706294
293.499911	754.818182
295.983508	775.335664
298.462263	791.580420
300.942440	789.328671
303.419866	791.195804
305.896628	800.188811
308.372726	801.531469
310.846076	804.629371
313.318765	808.832168
315.790792	815.727273
318.262157	812.293706
320.730779	804.132867
323.198741	810.314685
325.668126	803.979021
328.132688	784.426573
330.600754	770.000000
333.063999	753.251748
335.526588	747.622378
337.988520	740.013986
340.449795	723.615385
342.908335	723.405594
345.368298	720.937063
347.825529	714.104895
350.282105	719.489510
352.738027	721.510490
355.191219	721.258741
357.645834	731.923077
360.095647	747.076923
362.548956	739.930070
364.997466	739.090909
367.445326	728.258741
369.894608	711.951049
372.339095	718.412587
374.785005	720.986014
377.230266	719.783217
379.672808	719.566434
382.114702	717.251748
384.555948	725.454545
386.994480	730.944056
389.434432	731.706294
391.871671	720.454545
394.306199	715.139860
396.744213	701.748252
399.177452	689.727273
401.612111	696.258741
404.041998	694.636364
406.475370	691.629371
408.903972	683.454545
411.331932	676.356643
413.761313	668.090909
416.185930	673.923077
418.611967	683.440559
421.037365	690.769231
423.462122	694.629371
425.882120	697.160839
428.303540	699.825175
430.722264	713.755245
433.142407	720.811189
435.559856	725.055944
437.978726	728.321678
440.394901	728.167832
442.806330	724.097902
445.221235	728.125874
447.633450	716.440559
450.045032	707.041958
452.455979	684.496503
454.864239	681.293706
457.271868	667.930070
459.678864	664.902098
462.085229	657.580420
464.488911	670.272727
466.891963	681.587413
469.294385	685.244755
471.696177	694.713287
474.095291	701.720280
476.495825	692.755245
478.895730	705.839161
481.290913	713.510490
483.689561	735.734266
486.083490	747.447552
488.476793	748.832168
490.869471	746.391608
493.261523	767.027972
495.654993	779.636364
498.043751	774.188811
500.429843	736.000000
502.817355	623.874126
505.204244	637.776224
507.588468	1466.356643
509.974112	3444.909091
512.357094	6015.517483
514.737414	8352.839161
517.119155	10021.216783
519.498236	10936.104895
521.878735	11020.846154
524.256578	10275.132867
526.631764	8729.706294
529.006333	6560.832168
531.382321	4066.685315
533.755656	1900.272727
536.130408	784.846154
538.500474	687.503497
540.869926	885.230769
543.240795	953.503497
545.606983	917.937063
547.974590	898.699301
550.339551	861.202797
552.703900	830.951049
555.067635	803.181818
557.432788	782.783217
559.793269	764.419580
562.155167	738.510490
564.514426	707.174825
566.871046	683.202797
569.231112	670.216783
571.584486	667.881119
573.941305	649.622378
576.295489	641.755245
578.649064	635.328671
581.002032	624.776224
583.352367	626.748252
585.704120	619.874126
588.049196	638.090909
590.399735	639.818182
592.743602	630.363636
595.092930	628.048951
597.437609	635.139860
599.779664	635.167832
602.123136	627.930070
604.463985	621.468531
606.804231	621.076923
609.141857	613.531469
611.482918	622.020979
613.819342	628.972028
616.157182	650.650350
618.492405	651.937063
620.825011	646.902098
623.159035	645.188811
625.490444	648.426573
627.821255	635.671329
630.151468	629.972028
632.481084	615.762238
634.806076	605.937063
637.136510	604.818182
639.462323	603.181818
641.785528	605.832168
644.110150	603.307692
646.432166	595.377622
648.753588	602.671329
651.072407	598.993007
653.392643	608.643357
655.712284	618.671329
658.029326	633.048951
660.345775	633.440559
662.659626	640.979021
664.974893	649.566434
667.287563	646.916084
669.601648	644.468531
671.911133	638.230769
674.222034	630.111888
676.530342	621.909091
678.838061	611.587413
681.147196	610.930070
683.451738	613.888112
685.755694	605.307692
688.059063	594.727273
690.363848	598.167832
692.664045	597.398601
694.965658	599.363636
697.266685	597.363636
699.563131	593.769231
701.860992	585.356643
704.158269	586.279720
706.454963	585.237762
708.747081	579.265734
711.042610	583.615385
713.333565	586.762238
715.625935	585.237762
717.915729	589.034965
720.204944	586.909091
722.493579	590.307692
724.779641	585.356643
727.067117	579.951049
729.352023	576.538462
731.636351	580.405594
733.918110	580.559441
736.201283	589.545455
738.483879	606.433566
740.761919	613.825175
743.041373	615.916084
745.320252	619.216783
747.598556	614.951049
749.872309	617.888112
752.147477	621.958042
754.422071	611.398601
756.694106	599.041958
758.967554	602.307692
761.238444	607.720280
763.506778	604.440559
765.776525	601.307692
768.043717	593.608392
770.310340	592.447552
772.576392	596.433566
774.839893	598.566434
777.104806	604.475524
779.369151	608.629371
781.628965	603.909091
783.890193	608.279720
786.150853	616.244755
788.408967	616.496503
790.664536	617.594406
792.923495	614.993007
795.175956	618.678322
797.433784	620.209790
799.687093	636.734266
801.937862	643.013986
804.190043	642.146853
806.439685	648.111888
808.690739	660.608392
810.937282	665.153846
813.185238	658.132867
815.430658	650.447552
817.677491	645.881119
819.923761	627.622378
822.165528	627.328671
824.410677	614.405594
826.649355	622.258741
828.891414	624.202797
831.128975	629.293706
833.367948	640.076923
835.604394	643.300699
837.842251	645.377622
840.077583	646.832168
842.310392	636.125874
844.544611	627.503497
846.776309	616.118881
849.007452	610.699301
851.238040	613.531469
853.468074	624.713287
855.697553	631.048951
857.922552	640.328671
860.150924	632.440559
862.374818	627.482517
864.600123	641.020979
866.820952	629.489510
869.045153	621.762238
871.264881	622.930070
873.486019	617.482517
875.706607	620.349650
877.924686	642.503497
880.144174	645.188811
882.359196	642.608392
884.573670	638.993007
886.787597	622.972028
889.000976	623.965035
891.213809	618.930070
893.426094	596.888112
895.635878	593.797203
897.845116	597.741259
900.053809	599.657343
902.260002	615.748252
904.467605	636.468531
906.672711	640.468531
908.877273	642.181818
911.079340	646.776224
913.282816	651.034965
915.483798	654.902098
917.684238	652.608392
919.886087	651.874126
922.081545	659.272727
924.280361	673.825175
926.474740	696.167832
928.672476	723.027972
930.865776	772.881119
933.060485	821.279720
935.252707	865.468531
937.444392	905.615385
939.635539	944.531469
941.824203	973.979021
944.012331	988.860140
946.197977	1003.209790
948.386977	1011.125874
950.571552	1004.685315
952.755593	1007.055944
954.942985	1016.734266
957.122072	1045.867133
959.304510	1056.216783
961.486414	1055.048951
963.665843	1059.300699
965.842800	1073.937063
968.021165	1070.048951
970.200937	1067.020979
972.374359	1066.608392
974.551129	1063.713287
976.723491	1058.237762
978.897261	1048.741259
981.066627	1044.377622
983.239337	1038.167832
985.409582	1013.972028
987.579297	980.265734
989.748484	951.986014
991.913274	916.664336
994.081406	881.132867
996.245142	850.496503
998.410286	820.517483
1000.572970	814.034965
1002.735129	807.223776
1004.894831	793.342657
1007.054008	796.314685
1009.214592	799.650350
1011.372721	796.993007
1013.530327	790.174825
1015.687409	772.923077
1017.843967	753.853147
1019.996146	745.447552
1022.149732	721.083916
1024.302796	714.790210
1026.453411	713.916084
1028.605432	713.412587
1030.753081	700.664336
1032.904061	690.160839
1035.050670	687.979021
1037.196760	686.440559
1039.342332	684.279720
1041.489309	672.314685
1043.629997	666.545455
1045.774014	664.839161
1047.915592	664.979021
1050.056652	673.433566
1052.199118	672.818182
1054.335303	686.188811
1056.474815	677.650350
1058.609971	683.461538
1060.748452	689.489510
1062.882580	691.433566
1065.016194	681.706294
1067.151212	686.076923
1069.281882	690.965035
1071.413956	691.951049
1073.543600	683.104895
1075.672733	682.797203
1077.801355	678.062937
1079.929465	677.986014
1082.055149	670.405594
1084.180323	669.909091
1086.306901	667.258741
1088.429141	661.349650
1090.552786	652.769231
1092.672096	664.622378
1094.796635	655.748252
1096.914930	655.524476
1099.034628	641.468531
1101.151909	648.909091
1103.268682	638.881119
1105.384949	631.699301
1107.498801	636.776224
1109.614056	643.440559
1111.724989	654.097902
1113.839234	657.699301
1115.949158	669.916084
1118.060485	680.447552
1120.171309	677.398601
1122.277816	679.489510
1124.387632	667.867133
1126.493134	666.986014
1128.600040	653.615385
1130.700730	648.160839
1132.806632	642.216783
1134.908225	638.993007
1137.011220	626.181818
1139.113716	632.489510
1141.210004	631.986014
1143.311499	631.405594
1145.408692	619.608392
1147.505386	614.846154
1149.601583	615.139860
1151.697281	627.482517
1153.792482	626.573427
1155.885286	627.643357
1157.979492	631.972028
1160.067507	633.895105
1162.160720	634.664336
1164.247746	648.230769
1166.338070	640.251748
1168.424106	630.531469
1170.513440	624.125874
1172.596593	613.958042
1174.681149	615.643357
1176.767106	620.230769
1178.848781	608.902098
1180.931857	615.202797
1183.012548	628.321678
1185.092748	639.594406
1187.172456	652.132867
1189.251673	655.468531
1191.328507	653.419580
1193.402961	649.748252
1195.480707	638.188811
1197.554182	628.342657
1199.629059	632.167832
1201.699668	625.671329
1203.771678	622.566434
1205.841312	632.195804
1207.912347	641.517483
1209.982894	647.874126
1212.049181	645.762238
1214.116868	647.678322
1216.182182	645.062937
1218.248897	646.538462
1220.311356	643.244755
1222.377101	647.272727
1224.438591	640.013986
1226.501482	638.615385
1228.562004	638.671329
1230.622044	634.419580
1232.681600	632.097902
1234.738792	633.853147
1236.795501	641.608392
1238.849848	642.419580
1240.907475	640.657343
1242.962740	653.279720
1245.013765	654.328671
1247.066189	655.461538
1249.118133	654.104895
1251.167719	654.272727
1253.216826	653.293706
1255.265454	647.468531
1257.313604	653.111888
1259.361276	659.790210
1261.404717	662.692308
1263.451434	668.097902
1265.495797	661.657343
1267.539683	659.937063
1269.581219	655.566434
1271.620405	653.685315
1273.662864	654.454545
1275.701100	645.055944
1277.740735	643.895105
1279.779894	644.755245
1281.814836	653.545455
1283.851176	664.902098
1285.885172	668.097902
1287.920565	667.860140
1289.951745	645.622378
1291.984324	639.622378
1294.016431	630.328671
1296.046197	619.293706
1298.077360	614.776224
1300.104316	605.034965
1302.132671	608.524476
1304.156820	624.293706
1306.184235	630.000000
1308.207447	637.524476
1310.232057	632.671329
1312.254332	629.923077
1314.278005	622.356643
1316.299345	625.349650
1318.320218	619.811189
1320.340623	628.223776
1322.356835	634.216783
1324.374444	638.139860
1326.389725	645.195804
1328.408265	643.531469
1330.422615	636.090909
1332.434640	639.706294
1334.449923	644.489510
1336.461020	645.909091
1338.473513	637.216783
1340.481824	640.125874
1342.493391	638.699301
1344.498919	644.713287
1346.507702	647.587413
1348.512307	644.671329
1350.520166	641.713287
1352.527563	634.951049
1354.528929	626.888112
1356.531691	629.986014
1358.533994	623.384615
1360.535837	609.272727
1362.537220	599.503497
1364.536289	603.748252
1366.534900	601.000000
1368.533053	602.769231
1370.530748	610.433566
1372.524280	622.524476
1374.519207	626.629371
1376.513678	624.881119
1378.507692	614.993007
1380.499399	617.307692
1382.490650	617.699301
1384.479596	605.811189
1386.469937	606.083916
1388.459824	610.048951
1390.447406	613.342657
1392.434535	618.706294
1394.419362	627.272727
1396.405584	634.909091
1398.389505	619.678322
1400.372974	608.055944
1402.355991	607.489510
1404.336710	600.545455
1406.318823	606.335664
1408.298639	597.293706
1410.278005	607.006993
1412.253232	607.258741
1414.231697	611.797203
1416.207869	623.321678
1418.183591	636.944056
1420.158864	636.832168
1422.131847	626.713287
1424.104381	621.846154
1426.076467	624.041958
1428.048106	623.076923
1430.015616	630.699301
1431.988200	629.041958
1433.952978	631.314685
1435.922829	638.153846
1437.888555	630.601399
1439.855675	641.475524
1441.820511	638.097902
1443.781227	644.552448
1445.747011	655.090909
1447.706840	650.538462
1449.668063	643.447552
1451.630677	635.629371
1453.589177	631.069930
1455.547235	620.832168
1457.504851	619.657343
1459.462024	619.972028
1461.416922	611.832168
1463.373213	624.048951
1465.327229	624.741259
1467.280804	653.776224
1469.232107	666.769231
1471.184802	664.286713
1473.135226	655.657343
1475.085211	656.643357
1477.034757	654.538462
1478.982034	646.370629
1480.927043	635.076923
1482.873445	623.594406
1484.819409	620.818182
1486.764936	613.496503
1488.708197	606.797203
1490.651022	604.909091
1492.591584	600.594406
1494.533538	608.419580
1496.473229	603.545455
1498.412485	610.076923
1500.351307	621.867133
1502.287869	637.258741
1504.225822	640.923077
1506.161516	649.839161
1508.096777	646.776224
1510.029781	647.853147
1511.962353	640.167832
1513.894493	629.412587
1515.826201	623.594406
1517.755656	621.377622
1519.686501	608.748252
1521.616914	608.566434
1523.543255	620.272727
1525.470986	624.321678
1527.396468	620.314685
1529.321520	617.657343
1531.246142	617.377622
1533.170336	625.916084
1535.092283	618.825175
1537.015620	622.146853
1538.936710	626.951049
1540.855556	635.601399
1542.775792	635.664336
1544.693784	633.538462
1546.611350	632.027972
1548.526675	625.083916
1550.443389	613.426573
1552.356047	597.594406
1554.271910	604.223776
1556.185534	607.762238
1558.096919	602.405594
1560.009694	607.566434
1561.918419	615.384615
1563.828533	623.776224
1565.738224	631.769231
1567.647492	637.482517
1569.554525	633.797203
1571.459326	638.762238
1573.365516	631.048951
1575.269475	628.405594
1577.173012	641.832168
1579.076129	655.209790
1580.977016	653.335664
1582.879292	655.062937
1584.779339	653.468531
1586.680775	655.755245
1588.578176	655.426573
1590.475160	647.146853
1592.371725	623.503497
1594.269677	613.993007
1596.161795	602.797203
1598.057107	603.545455
1599.952000	605.195804
1601.844673	617.615385
1603.736928	613.713287
1605.626964	620.566434
1607.516584	624.195804
1609.405789	627.027972
1611.294578	624.727273
1613.181151	632.888112
1615.069111	623.993007
1616.953054	624.811189
1618.838384	632.783217
1620.723301	635.832168
1622.606004	634.783217
1624.490094	638.454545
1626.370172	637.902098
1628.251638	641.419580
1630.130892	643.657343
1632.011534	645.587413
1633.886371	651.027972
1635.766189	663.972028
1637.642002	649.503497
1639.517406	658.174825
1641.394195	655.853147
1643.265187	661.972028
1645.139362	648.398601
1647.009537	648.580420
1648.882893	639.538462
1650.754046	631.867133
1652.622997	637.790210
1654.493334	643.888112
1656.359677	636.188811
1658.227407	640.048951
1660.092937	635.706294
1661.959853	653.230769
1663.822779	644.006993
1665.687092	649.594406
1667.549208	632.790210
1669.410919	629.874126
1671.274015	619.517483
1673.134917	622.615385
1674.993626	629.489510
1676.851931	635.804196
1678.711620	623.895105
1680.565543	629.615385
1682.422639	630.475524
1684.279331	634.349650
1686.132048	634.902098
1687.987936	626.384615
1689.839850	608.720280
1691.691363	595.699301
1693.542475	592.055944
1695.393186	597.321678
1697.243497	602.020979
1699.091624	612.321678
1700.941135	600.524476
1702.784896	605.524476
1704.633608	613.881119
1706.476573	621.321678
1708.322704	634.685315
1710.164874	630.559441
1712.010208	628.685315
1713.849802	630.405594
1715.690781	631.174825
1717.533142	642.153846
1719.371546	632.979021
1721.211334	621.447552
1723.048947	605.363636
1724.886165	611.720280
1726.721209	603.629371
1728.557636	605.188811
1730.391890	599.552448
1732.225751	603.517483
1734.059217	604.545455
1735.888737	603.279720
1737.721417	603.839161
1739.550151	614.090909
1741.382044	601.181818
1743.209994	596.461538
1745.037552	597.902098
1746.864719	609.041958
1748.691494	613.629371
1750.517877	618.517483
1752.340324	607.916084
1754.165926	605.069930
1755.987592	598.720280
1757.810641	591.181818
1759.631529	596.524476
1761.452027	606.335664
1763.273907	608.531469
1765.090087	603.881119
1766.909419	608.342657
1768.724824	610.475524
1770.543380	623.503497
1772.358010	617.013986
1774.172253	608.762238
1775.986110	599.720280
1777.799580	585.993007
1779.610896	582.307692
1781.423594	590.944056
1783.235905	600.461538
1785.044299	604.181818
1786.854074	602.118881
1788.659933	608.027972
1790.468939	619.937063
1792.274031	636.727273
1794.080504	639.027972
1795.886592	636.573427
1797.688771	630.881119
1799.494093	620.146853
1801.295507	624.937063
1803.098302	636.209790
1804.897190	630.538462
1806.697459	618.881119
1808.497346	620.818182
1810.295091	618.496503
1812.092456	615.545455
1813.889440	610.839161
1815.686044	600.965035
1817.480509	596.538462
1819.276354	583.538462
1821.066543	575.454545
1822.861629	570.181818
1824.651062	572.902098
1826.443633	565.027972
1828.234068	570.342657
1830.022368	584.937063
1831.813804	586.349650
1833.599595	582.755245
1835.386764	584.349650
1837.171803	585.965035
1838.959974	589.671329
1840.744260	581.013986
1842.526417	582.300699
1844.309953	592.720280
1846.091360	598.160839
1847.874145	607.230769
1849.653051	614.314685
1851.433335	619.188811
1853.211494	603.048951
1854.991030	590.223776
1856.768442	591.853147
1858.543731	595.209790
1860.320397	586.986014
1862.094941	589.874126
1863.870862	586.839161
1865.641164	595.202797
1867.414593	592.909091
1869.185902	596.251748
1870.956840	594.335664
1872.729156	586.111888
1874.495858	578.748252
1876.265685	583.888112
1878.031649	594.909091
1879.800737	590.307692
1881.565963	592.650350
1883.330821	599.951049
1885.097055	592.874126
1886.859431	592.000000
1888.621440	595.377622
1890.383082	591.020979
1892.144356	591.279720
1893.905264	590.405594
1895.665804	588.573427
1897.424236	582.867133
1899.182301	570.433566
1900.938259	569.202797
1902.695593	576.419580
1904.452562	577.524476
1906.207424	572.146853
1907.960181	564.034965
1909.712575	565.615385
1911.466345	560.244755
1913.218011	557.216783
1914.967574	553.083916
1916.718514	546.664336
1918.469090	557.132867
1920.215828	565.370629
1921.963941	580.839161
1923.709955	583.356643
1925.457345	590.363636
1927.202636	590.160839
1928.945830	587.188811
1930.690400	593.048951
1932.432873	594.755245
1934.174986	591.181818
1935.916740	586.118881
1937.658133	583.531469
1939.397433	590.895105
1941.136374	602.174825
1942.874956	598.223776
1944.611447	594.069930
1946.347579	596.384615
1948.085087	587.776224
1949.818772	592.531469
1951.553832	597.608392
1953.286803	601.566434
1955.019418	610.538462
1956.751676	602.601399
1958.483578	595.734266
1960.213395	602.195804
1961.941126	610.748252
1963.670232	602.860140
1965.398982	598.405594
1967.125649	592.510490
1968.851962	585.237762
1970.579649	582.475524
1972.301799	573.048951
1974.027050	567.391608
1975.748494	567.986014
1977.473038	558.776224
1979.195503	551.622378
1980.914164	554.734266
1982.635924	566.223776
1984.353883	564.713287
1986.073214	569.132867
1987.788746	571.440559
1989.509098	574.972028
1991.225652	571.720280
1992.938409	574.314685
1994.654262	572.587413
1996.368043	581.342657
1998.081474	582.279720
1999.792834	586.020979
2001.505566	587.594406
2003.214507	598.440559
2004.926542	594.090909
2006.633067	600.888112
2008.342685	601.461538
2010.050235	598.167832
2011.757438	601.181818
2013.462575	599.727273
2015.167365	604.041958
2016.873528	603.566434
2018.575907	599.958042
2020.279659	588.657343
2021.981348	586.832168
2023.682691	586.153846
2025.383690	580.034965
2027.082627	588.909091
2028.782936	588.692308
2030.479469	584.167832
2032.177374	587.440559
2033.873221	582.426573
2035.572153	586.349650
2037.265599	579.790210
2038.960416	582.496503
2040.654890	574.279720
2042.345597	590.986014
2044.039386	586.167832
2045.729410	587.643357
2047.420803	603.216783
2049.110144	606.440559
2050.800856	605.447552
2052.487804	607.643357
2054.174412	607.944056
2055.862391	603.594406
2057.546610	593.825175
2059.232199	590.363636
2060.917449	581.503497
2062.600651	583.006993
2064.285223	566.629371
2065.964331	573.048951
2067.648226	580.559441
2069.326659	576.986014
2071.008170	585.503497
2072.685929	586.594406
2074.363352	589.643357
2076.042144	584.468531
2077.718893	573.643357
2079.393601	570.419580
2081.069679	574.839161
2082.743715	577.538462
2084.417417	573.104895
2086.090783	584.881119
2087.762110	578.958042
2089.433103	571.300699
2091.103762	582.209790
2092.774087	579.524476
2094.444078	572.636364
2096.112032	569.083916
2097.779654	566.797203
2099.445242	570.839161
2101.112198	575.839161
2102.777121	571.524476
2104.441712	574.706294
2106.104271	574.069930
2107.768198	566.013986
2109.430094	557.566434
2111.091659	560.622378
2112.752894	566.608392
2114.412099	558.384615
2116.070975	568.909091
2117.729520	580.769231
2119.387736	581.678322
2121.042229	580.020979
2122.699786	577.321678
2124.357013	571.062937
2126.010520	571.713287
2127.665394	572.804196
2129.316549	569.300699
2130.970767	572.153846
2132.621267	583.916084
2134.273135	576.524476
2135.919594	584.363636
2137.570807	582.860140
2139.218308	573.251748
2140.867175	577.902098
2142.514023	579.650350
2144.160546	570.426573
2145.806743	589.440559
2147.449231	595.846154
2149.094778	607.650350
2150.736618	609.104895
2152.381515	606.209790
2154.022707	597.846154
2155.663575	588.741259
2157.304120	572.195804
2158.942652	571.188811
2160.582550	562.258741
2162.218748	554.902098
2163.856312	542.440559
2165.493554	547.741259
2167.128786	553.720280
2168.763696	571.454545
2170.398285	579.328671
2172.032553	585.097902
2173.663127	582.055944
2175.296753	574.062937
2176.926686	571.237762
2178.557986	562.237762
2180.187280	547.279720
2181.816255	549.167832
2183.444910	535.195804
2185.073246	538.923077
2186.699579	553.125874
2188.325594	562.300699
2189.949608	557.000000
2191.574987	556.720280
2193.198365	553.419580
2194.823108	559.881119
2196.444170	560.713287
2198.064915	552.825175
2199.687024	557.734266
2201.307136	565.293706
2202.925252	556.167832
2204.543052	564.433566
2206.160536	565.888112
2207.777706	559.314685
2209.394559	544.678322
2211.011098	548.727273
2212.625643	557.279720
2214.238197	555.629371
2215.852114	552.048951
2217.464040	545.629371
2219.077329	538.363636
2220.688627	545.146853
2222.297937	538.860140
2223.908609	543.867133
2225.517293	551.944056
2227.125665	553.993007
2228.732050	558.468531
2230.339797	565.993007
2231.945559	583.860140
2233.551009	580.307692
2235.154474	567.804196
2236.759302	554.881119
2238.362146	541.013986
2239.963007	529.713287
2241.565231	518.587413
2243.165473	509.937063
2244.767077	519.202797
2246.365028	529.349650
2247.964342	533.188811
2249.561676	546.258741
2251.158702	562.139860
2252.757089	563.279720
2254.351829	559.888112
2255.944591	567.412587
2257.538716	571.013986
2259.134202	562.111888
2260.726043	551.209790
2262.317578	534.888112
2263.910474	538.720280
2265.498062	532.111888
2267.090345	517.888112
2268.677321	514.475524
2270.267326	506.993007
2271.852026	515.181818
2273.441420	517.986014
2275.025511	534.181818
2276.610964	541.965035
2278.194448	546.986014
2279.780957	546.097902
2281.363833	546.839161
2282.946406	550.727273
2284.528675	548.419580
2286.107314	540.615385
2287.688978	526.223776
2289.267013	517.930070
2290.848071	521.041958
2292.425502	511.853147
2294.000970	509.825175
2295.579460	509.370629
2297.154326	526.930070
2298.728891	535.608392
2300.303155	536.419580
2301.877119	543.342657
2303.450783	543.090909
2305.024147	538.762238
2306.593892	527.972028
2308.163338	526.398601
2309.735802	524.440559
2311.302992	511.055944
2312.873199	504.741259
2314.439793	512.286713
2316.007745	514.335664
2317.573743	516.923077
2319.139443	516.594406
2320.704845	528.412587
2322.268294	533.937063
2323.833102	536.510490
2325.394301	532.195804
2326.958515	542.811189
2328.517468	540.027972
2330.079434	532.111888
2331.639450	534.174825
2333.199170	535.888112
2334.756942	526.174825
2336.314418	528.475524
2337.871600	519.181818
2339.426834	522.069930
2340.981774	522.804196
2342.536421	520.979021
2344.090774	515.475524
2345.644833	514.083916
2347.198599	513.412587
2348.750420	512.342657
2350.300298	518.461538
2351.853185	515.000000
2353.400828	510.174825
2354.951479	505.384615
2356.498540	502.797203
2358.046958	507.993007
2359.595084	510.321678
2361.139623	516.839161
2362.685519	525.356643
2364.229476	541.433566
2365.774791	553.048951
2367.316521	552.370629
2368.859609	554.839161
2370.400760	536.195804
2371.941622	532.727273
2373.482195	524.041958
2375.022479	508.727273
2376.562474	510.839161
2378.098890	511.132867
2379.638308	513.034965
2381.174149	512.468531
2382.711347	516.734266
2384.244969	507.755245
2385.781591	507.454545
2387.316283	514.104895
2388.849044	504.552448
2390.381520	508.307692
2391.912067	509.181818
2393.445612	510.944056
2394.973946	531.671329
2396.503636	536.839161
2398.033041	533.636364
2399.562161	528.216783
2401.090995	518.489510
2402.614625	514.223776
2404.142890	505.881119
2405.665952	496.671329
2407.193649	486.342657
2408.714506	474.902098
2410.239995	471.000000
2411.761925	473.979021
2413.285209	489.531469
2414.806573	490.293706
2416.326017	495.580420
2417.846816	506.545455
2419.365696	505.608392
2420.884295	521.657343
2422.400975	506.776224
2423.919011	499.139860
2425.436765	494.314685
2426.950967	481.139860
2428.464890	478.153846
2429.978532	487.034965
2431.493528	488.685315
2433.004977	481.601399
2434.517779	490.048951
2436.028669	493.545455
2437.539280	488.342657
2439.047979	497.279720
2440.559664	490.265734
2442.067806	487.125874
2443.575670	485.958042
2445.083255	489.629371
2446.587301	492.958042
2448.094331	505.776224
2449.599453	493.762238
2451.104298	495.244755
2452.607236	491.909091
2454.109897	485.468531
2455.612283	477.048951
2457.112762	490.307692
2458.614596	491.419580
2460.114524	487.041958
2461.614177	493.356643
2463.113555	498.069930
2464.611030	493.930070
2466.106603	490.531469
2467.605156	473.356643
2469.100181	468.797203
2470.596558	456.216783
2472.089409	448.930070
2473.583613	445.678322
2475.077543	454.272727
2476.567949	460.097902
2478.061333	471.230769
2479.552819	484.734266
2481.042408	490.118881
2482.531725	483.426573
2484.019146	481.132867
2485.509543	479.454545
2486.996422	478.230769
2488.484652	467.545455
2489.969365	467.664336
2491.453808	467.454545
2492.939603	468.685315
2494.423506	476.300699
2495.908759	485.790210
2497.388879	489.482517
2498.871971	484.300699
2500.353174	473.461538
2501.834107	473.321678
2503.313150	464.055944
2504.791926	461.160839
2506.270433	452.510490
2507.748671	454.454545
2509.226642	456.839161
2510.701107	454.370629
2512.178542	455.853147
2513.652472	457.860140
2515.127754	458.552448
2516.602768	460.615385
2518.074281	473.986014
2519.547145	477.804196
2521.018126	474.461538
2522.490457	473.965035
2523.957674	484.517483
2525.427858	495.608392
2526.896161	483.594406
2528.364198	461.993007
2529.831971	459.713287
2531.299479	456.706294
2532.766723	454.461538
2534.230474	469.104895
2535.695575	481.468531
2537.158799	481.776224
2538.623372	487.489510
2540.084457	503.398601
2541.546891	523.111888
2543.009062	516.426573
2544.467746	501.167832
2545.931003	492.636364
2547.389163	497.965035
2548.848673	501.748252
2550.303088	491.629371
2551.762074	491.062937
2553.219188	480.174825
2554.674430	477.272727
2556.129412	472.146853
2557.582524	481.125874
2559.036985	471.440559
2560.489577	463.258741
2561.941909	460.979021
2563.392373	460.097902
2564.845794	467.734266
2566.294132	473.664336
2567.745425	477.286713
2569.194852	475.713287
2570.640808	469.034965
2572.089718	458.048951
2573.535157	455.902098
2574.981945	461.111888
2576.426869	461.440559
2577.871536	466.776224
2579.317550	473.503497
2580.760097	485.580420
2582.203992	492.958042
2583.644422	495.496503
2585.086200	504.069930
2586.526118	492.727273
2587.967383	477.104895
2589.405186	455.615385
2590.845939	443.293706
2592.281630	434.853147
2593.720269	441.118881
2595.157052	439.083916
2596.591979	442.888112
2598.029853	443.881119
2599.462670	447.433566
2600.896834	451.286713
2602.329143	445.139860
2603.762800	446.993007
2605.194602	436.965035
2606.626152	428.321678
2608.057448	424.881119
2609.486893	433.328671
2610.916085	435.531469
2612.343426	428.216783
2613.772114	438.566434
2615.200549	446.685315
2616.625538	449.559441
2618.051872	453.650350
2619.476359	445.769231
2620.902190	463.384615
2622.324579	460.195804
2623.748312	462.174825
2625.170200	470.139860
2626.591837	462.342657
2628.011630	454.741259
2629.432768	454.335664
2630.853656	465.321678
2632.271105	463.566434
2633.691494	461.377622
2635.108446	465.426573
2636.525150	462.860140
2637.941605	464.195804
2639.357812	461.265734
2640.773771	462.888112
2642.187889	457.384615
2643.601759	440.601399
2645.013790	441.636364
2646.427166	437.580420
2647.837112	437.433566
2649.249994	436.041958
2650.659447	440.265734
2652.068654	439.664336
2653.476025	440.678322
2654.886330	433.867133
2656.294799	439.923077
2657.701434	446.629371
2659.107822	442.307692
2660.512378	450.356643
2661.918277	452.734266
2663.322342	447.279720
2664.726164	447.580420
2666.129741	446.503497
2667.531487	439.818182
2668.934576	426.265734
2670.334247	430.489510
2671.735262	421.587413
2673.132861	427.671329
2674.533389	437.076923
2675.930503	436.405594
2677.328960	444.342657
2678.725589	446.055944
2680.121977	451.139860
2681.518122	444.314685
2682.912441	447.160839
2684.308103	437.314685
2685.700356	431.888112
2687.093951	441.384615
2688.485722	433.524476
2689.878836	428.377622
2691.270125	427.657343
2692.659593	428.755245
2694.048820	439.356643
2695.437807	449.356643
2696.828137	449.860140
2698.213483	430.769231
2699.601752	442.104895
2700.988201	432.734266
2702.374411	425.146853
2703.760382	422.755245
2705.142955	410.874126
2706.526870	401.986014
2707.910546	410.244755
2709.293985	421.573427
2710.674028	429.972028
2712.055413	440.454545
2713.434982	429.783217
2714.815893	424.531469
2716.194989	431.412587
2717.572271	427.559441
2718.950894	421.699301
2720.327703	414.328671
2721.704277	407.818182
2723.080615	405.979021
2724.455141	408.762238
2725.831008	407.286713
2727.203488	404.230769
2728.578885	412.188811
2729.949321	412.853147
2731.321097	411.846154
2732.692640	421.573427
2734.062374	433.174825
2735.433448	431.629371
2736.802715	431.615385
2738.171748	433.104895
2739.538975	424.384615
2740.905968	415.223776
2742.272729	400.972028
2743.639257	391.321678
2745.003981	397.727273
2746.368472	396.195804
2747.732731	388.146853
2749.096759	407.034965
2750.460554	409.776224
2751.820977	412.461538
2753.184309	422.832168
2754.542699	418.076923
2755.903999	408.874126
2757.261929	406.692308
2758.622767	400.580420
2759.981805	401.629371
2761.337475	396.741259
2762.696054	387.643357
2764.051265	387.643357
2765.406247	387.706294
2766.759432	390.748252
2768.115524	403.405594
2769.468252	404.454545
2770.820751	398.958042
2772.173023	399.538462
2773.526632	404.244755
2774.876880	401.769231
2776.225335	395.216783
2777.576694	387.139860
2778.924694	388.727273
2780.274033	395.027972
2781.621579	380.237762
2782.968899	386.923077
2784.315991	393.146853
2785.661293	390.755245
2787.006369	393.839161
2788.351219	400.440559
2789.695843	406.174825
2791.037115	403.090909
2792.379724	408.874126
2793.722109	420.832168
2795.064268	428.762238
2796.403078	431.041958
2797.744788	412.384615
2799.083149	410.321678
2800.422848	406.006993
2801.760761	393.006993
2803.096890	389.139860
2804.432796	385.545455
2805.770038	382.804196
2807.105497	384.678322
2808.440733	394.573427
2809.774187	403.104895
2811.108977	413.356643
2812.440426	417.321678
2813.774771	416.181818
2815.104218	414.902098
2816.435002	412.307692
2817.765564	400.657343
2819.094347	391.720280
2820.424467	375.874126
2821.752808	370.132867
2823.080927	366.916084
2824.407270	364.783217
2825.734948	360.832168
2827.059294	356.664336
2828.384976	362.097902
2829.708882	372.888112
2831.032568	377.636364
2832.357590	390.251748
2833.679283	383.167832
2835.000757	379.538462
2836.322011	377.517483
2837.643047	374.447552
2838.962311	370.503497
2840.282910	365.874126
2841.601737	363.874126
2842.920346	373.251748
2844.237185	381.412587
2845.553806	380.853147
2846.870210	378.888112
2848.184844	385.258741
2849.500813	389.503497
2850.813463	391.160839
2852.127447	384.503497
2853.441215	381.321678
2854.754766	381.321678
2856.066551	371.349650
2857.376569	364.594406
2858.687922	364.286713
2859.995960	355.370629
2861.305332	353.307692
2862.614489	350.300699
2863.923431	364.692308
2865.230610	381.202797
2866.536025	378.993007
2867.842775	380.706294
2869.147763	380.139860
2870.452536	370.496503
2871.755549	368.279720
2873.061442	357.419580
2874.362481	365.937063
2875.664853	366.300699
2876.965467	367.013986
2878.267413	365.370629
2879.569147	373.692308
2880.867577	376.664336
2882.167340	367.909091
2883.465346	364.643357
2884.763140	361.146853
2886.059177	361.097902
2887.356548	377.041958
2888.652164	371.594406
2889.947568	370.664336
2891.242761	367.461538
2892.534657	363.720280
2893.829428	362.335664
2895.120904	363.132867
2896.413712	360.958042
2897.706310	365.559441
2898.995613	362.195804
2900.286250	367.216783
2901.575135	372.279720
2902.865352	376.230769
2904.152278	371.384615
2905.440536	369.685315
2906.727045	366.755245
2908.013345	353.692308
2909.299437	360.104895
2910.583781	357.860140
2911.870997	353.881119
2913.153386	361.468531
2914.437107	344.790210
2915.719081	351.510490
2917.000849	365.923077
2918.280871	363.783217
2919.563763	373.181818
2920.844910	378.230769
2922.122775	366.755245
2923.403509	364.349650
2924.680962	375.874126
2925.958210	368.307692
2927.233715	362.328671
2928.512088	355.230769
2929.785647	350.979021
2931.062073	353.398601
2932.336757	356.146853
2933.609702	347.258741
2934.883978	342.391608
2936.156513	340.888112
2937.428845	337.195804
2938.697904	343.223776
2939.969828	338.741259
2941.240014	338.741259
2942.509996	336.055944
2943.779775	335.972028
2945.047818	347.188811
2946.314124	343.363636
2947.580228	347.034965
2948.847663	351.167832
2950.113362	348.993007
2951.378860	357.608392
2952.644155	352.587413
2953.906185	353.867133
2955.169545	346.419580
2956.432704	349.363636
2957.694130	340.020979
2958.956887	335.986014
2960.217911	333.888112
2961.477205	326.720280
2962.736298	335.223776
2963.995191	336.188811
2965.253884	333.902098
2966.512377	337.328671
2967.769141	343.594406
2969.025706	355.706294
2970.280542	366.307692
2971.536708	366.342657
2972.789619	357.797203
2974.043858	362.209790
2975.297899	356.104895
2976.550214	357.650350
2977.802331	360.797203
2979.052723	350.412587
2980.305970	346.573427
2981.554440	345.314685
2982.805765	342.426573
2984.053840	341.216783
2985.301718	341.965035
2986.549400	325.041958
2987.796884	316.293706
2989.042647	323.867133
2990.288213	323.958042
2991.535108	338.349650
2992.778758	346.377622
2994.023735	344.153846
2995.265470	353.146853
2996.510056	358.888112
2997.752923	358.356643
2998.992549	357.356643
3000.235025	349.314685
3001.474261	332.860140
3002.714825	323.979021
3003.953672	323.860140
3005.192325	320.454545
3006.429262	327.545455
3007.667527	323.993007
3008.904076	322.216783
3010.140432	328.664336
3011.376594	339.839161
3012.611042	337.580420
3013.845297	336.300699
3015.079359	341.699301
3016.311709	340.776224
3017.542347	339.272727
3018.775831	342.440559
3020.007604	338.811189
3021.237665	339.923077
3022.467535	329.153846
3023.695695	321.062937
3024.925182	315.608392
3026.152959	318.832168
3027.380545	303.048951
3028.609457	306.496503
3029.833627	309.510490
3031.060640	310.790210
3032.284430	314.776224
3033.509545	322.104895
3034.732955	320.419580
3035.956174	326.286713
3037.177688	315.979021
3038.402043	314.860140
3039.621663	320.657343
3040.842609	319.755245
3042.063365	311.041958
3043.282419	327.300699
3044.502797	329.174825
3045.719959	333.755245
3046.938446	336.559441
3048.155232	339.594406
3049.371829	341.265734
3050.588239	339.867133
3051.801435	331.678322
3053.017469	329.419580
3054.230291	321.909091
3055.445950	318.825175
3056.656886	320.223776
3057.869148	322.895105
3059.081222	315.153846
3060.293110	316.097902
3061.503301	317.300699
3062.713305	318.402098
3063.923123	319.489510
3065.131245	320.856643
3066.339182	337.552448
3067.545423	336.891608
3068.752989	340.762238
3069.958860	346.444056
3071.164546	343.720280
3072.370048	329.465035
3073.573856	317.293706
3074.778988	313.003497
3075.982427	303.923077
3077.184174	290.940559
3078.385738	281.811189
3079.587118	282.216783
3080.788314	292.342657
3081.987820	290.118881
3083.187143	297.608392
3084.387789	301.118881
3085.586745	297.958042
3086.782506	298.846154
3087.981097	305.531469
3089.176494	316.314685
3090.373215	311.482517
3091.566743	306.216783
3092.763099	298.405594
3093.957768	295.377622
3095.149247	294.475524
3096.345058	296.727273
3097.536174	302.111888
3098.728614	309.713287
3099.917865	304.706294
3101.109943	314.559441
3102.300337	317.419580
3103.487545	316.377622
3104.676075	304.342657
3105.865928	303.517483
3107.052596	289.580420
3108.239085	293.867133
3109.425395	291.958042
3110.613026	294.097902
3111.797475	297.538462
3112.980245	301.020979
3114.165837	300.083916
3115.349750	311.118881
3116.531983	306.811189
3117.714039	315.013986
3118.895916	321.776224
3120.077615	321.286713
3121.257637	307.076923
3122.435982	312.538462
3123.617147	297.160839
3124.795137	299.888112
3125.972950	297.874126
3127.150586	304.314685
3128.326547	304.258741
3129.502332	312.363636
3130.679437	318.167832
3131.854869	334.860140
3133.028627	335.587413
3134.200712	327.349650
3135.374118	322.405594
3136.547349	312.188811
3137.718908	303.104895
3138.891787	312.888112
3140.061499	307.307692
3141.232532	310.160839
3142.401894	311.629371
3143.569587	316.349650
3144.740095	314.622378
3145.905944	311.209790
3147.076103	305.454545
3148.241604	301.020979
3149.406932	297.433566
3150.572086	282.986014
3151.737067	286.041958
3152.903367	287.818182
3154.065014	295.020979
3155.227982	304.104895
3156.390777	310.951049
3157.553398	298.342657
3158.714355	294.153846
3159.875140	291.930070
3161.035752	289.286713
3162.194700	281.951049
3163.353477	274.027972
3164.512081	268.587413
3165.670514	277.293706
3166.828775	287.888112
3167.985375	292.314685
3169.140313	291.482517
3170.296570	286.188811
3171.451166	283.125874
3172.605592	285.153846
3173.758357	288.321678
3174.910953	284.930070
3176.063379	276.447552
3177.215634	268.888112
3178.367720	261.216783
3179.516659	264.951049
3180.668405	264.601399
3181.818494	254.790210
3182.966925	258.643357
3184.115188	256.503497
3185.263282	265.601399
3186.411207	263.412587
3187.557476	275.846154
3188.703577	275.377622
3189.848024	272.930070
3190.992302	267.951049
3192.136413	256.874126
3193.281842	261.804196
3194.424132	272.097902
3195.566254	269.860140
3196.708210	275.825175
3197.849998	267.034965
3198.991619	268.545455
3200.130105	270.174825
3201.269908	277.958042
3202.411028	286.951049
3203.549015	289.328671
3204.685351	287.195804
3205.821523	286.867133
3206.959011	294.979021
3208.094851	298.342657
3209.232008	290.874126
3210.364552	286.412587
3211.501377	281.125874
3212.633592	276.650350
3213.767123	280.818182
3214.900489	277.132867
3216.030729	286.741259
3217.163766	283.391608
3218.293677	278.475524
3219.424904	271.468531
3220.553006	266.391608
3221.683906	261.090909
3222.813161	261.251748
3223.940773	260.342657
3225.065262	270.734266
3226.194027	266.090909
3227.319670	274.678322
3228.445150	276.965035
3229.568989	278.363636
3230.695623	272.636364
3231.817659	261.153846
3232.941011	256.636364
3234.064200	255.006993
3235.187228	251.510490
3236.308616	248.846154
3237.429843	243.937063
3238.549431	238.048951
3239.668858	240.461538
3240.786648	247.524476
3241.907229	246.790210
3243.024697	244.818182
3244.142004	245.027972
3245.259151	250.979021
3246.374661	272.958042
3247.491487	285.230769
3248.605202	288.657343
3249.721708	295.076923
3250.836578	294.398601
3251.948340	294.776224
3253.059943	302.405594
3254.172861	291.062937
3255.285619	273.321678
3256.395271	254.699301
3257.506238	241.916084
3258.617046	236.545455
3259.726222	237.678322
3260.833767	227.755245
3261.942627	230.797203
3263.051328	242.139860
3264.156927	253.762238
3265.263841	264.923077
3266.369125	269.475524
3267.475723	264.699301
3268.579221	256.041958
3269.684033	262.699301
3270.788688	269.783217
3271.890245	274.209790
3272.991645	273.349650
3274.094359	263.020979
3275.196917	261.482517
3276.296378	262.349650
3277.398623	264.664336
3278.497772	260.139860
3279.595296	255.993007
3280.692666	255.377622
3281.792817	255.503497
3282.889876	273.048951
3283.986779	275.643357
3285.083527	272.783217
3286.175716	266.566434
3287.272155	253.419580
3288.366971	243.356643
3289.461632	245.307692
3290.554672	244.349650
3291.647558	236.048951
3292.738823	242.342657
3293.831401	248.727273
3294.922359	254.251748
3296.011697	249.545455
3297.100882	239.804196
3298.191379	233.594406
3299.278793	227.419580
3300.366053	218.083916
3301.454626	231.440559
3302.543046	247.321678
3303.626920	251.216783
3304.715035	257.853147
3305.800068	270.000000
3306.883486	275.496503
3307.968216	271.811189
3309.051330	257.174825
3310.135756	254.489510
3311.217105	250.006993
3312.299765	241.573427
3313.380810	233.601399
3314.461705	253.580420
3315.540987	257.832168
3316.620118	255.000000
3317.700561	257.125874
3318.777929	258.419580
3319.856609	260.230769
3320.933677	265.657343
3322.010595	273.629371
3323.085903	273.783217
3324.161061	273.111888
3325.237530	264.594406
3326.310929	251.559441
3327.384178	251.069930
3328.458739	241.034965
3329.531691	232.153846
3330.603034	216.524476
3331.675688	217.377622
3332.745275	218.790210
3333.816173	230.650350
3334.885465	233.377622
3335.956066	237.090909
3337.025061	242.041958
3338.092451	245.216783
3339.158235	244.671329
3340.228245	245.937063
3341.295192	247.412587
3342.359077	245.657343
3343.425729	242.832168
3344.490778	239.923077
3345.554223	235.412587
3346.617522	237.139860
3347.680674	228.916084
3348.743680	227.125874
3349.806540	226.048951
3350.867797	237.685315
3351.925998	230.475524
3352.988420	230.069930
3354.047786	226.426573
3355.107006	231.650350
3356.167535	235.496503
3357.223556	220.846154
3358.282340	226.342657
3359.336617	230.783217
3360.393658	227.286713
3361.449100	223.734266
3362.505852	228.874126
3363.561005	235.020979
3364.614561	225.293706
3365.666520	220.349650
3366.721242	222.734266
3367.772914	227.090909
3368.824442	226.237762
3369.877280	220.552448
3370.927070	223.727273
3371.978169	227.482517
3373.026221	218.972028
3374.077034	206.524476
3375.124801	199.846154
3376.172426	194.853147
3377.219909	193.335664
3378.265799	200.356643
3379.312997	209.475524
3380.357152	223.741259
3381.404067	232.769231
3382.449389	235.909091
3383.491670	242.755245
3384.533810	254.405594
3385.577259	247.090909
3386.620566	243.391608
3387.662283	242.335664
3388.703860	235.440559
3389.745295	228.489510
3390.785142	230.769231
3391.823400	225.671329
3392.862966	227.909091
3393.902392	210.503497
3394.940230	202.482517
3395.976481	194.762238
3397.012592	197.405594
3398.050011	198.538462
3399.084397	209.706294
3400.120091	221.055944
3401.155645	218.461538
3402.188167	216.335664
3403.223443	221.307692
3404.255689	225.328671
3405.287795	231.587413
3406.318319	225.496503
3407.350149	228.944056
3408.381841	226.839161
3409.410505	230.951049
3410.439032	238.286713
3411.468865	240.496503
3412.498561	232.209790
3413.525231	218.930070
3414.553207	208.727273
3415.578159	215.440559
3416.605862	215.377622
3417.630540	216.608392
3418.656525	216.916084
3419.680931	219.608392
3420.705200	215.013986
3421.727890	212.629371
3422.750444	219.027972
3423.774304	212.951049
3424.795144	210.832168
3425.815848	217.353646
3426.837858	223.601399
3427.856850	227.827173
3428.875707	228.282717
3429.895870	223.219780
3430.913016	210.890110
