-118.343598	-28.983516
-115.673997	-13.868132
-113.007332	-4.384615
-110.341419	0.358641
-107.678439	1.253247
-105.014028	-0.809191
-102.352548	-4.937063
-99.689639	-14.622378
-97.031836	-10.146853
-94.372604	-19.664336
-91.714120	-22.776224
-89.058561	-16.000000
-86.401572	-12.097902
-83.749682	-12.601399
-81.096362	-5.468531
-78.445961	-8.874126
-75.794132	-11.573427
-73.147393	-14.454545
-70.499224	-9.020979
-67.851798	-7.965035
-65.207287	-7.209790
-62.561346	-12.090909
-59.920487	-17.188811
-57.278199	-14.818182
-54.638820	-18.489510
-51.998012	-21.678322
-49.357943	-21.552448
-46.722948	-27.797203
-44.086523	-21.699301
-41.453001	-12.832168
-38.818051	-1.671329
-36.188167	10.363636
-33.554689	16.594406
-30.926274	21.517483
-28.298593	23.419580
-25.669483	11.811189
-23.045431	-28.174825
-20.417788	-184.706294
-17.795200	-556.741259
-15.173342	-1015.237762
-12.552215	285.342657
-9.931819	2781.986014
-7.314310	4849.587413
-4.695373	6312.608392
-2.079322	7164.573427
0.536002	7396.153846
3.150597	7015.034965
5.762311	6023.104895
8.375453	4450.195804
10.983561	2393.965035
13.595250	207.524476
16.201909	-1279.923077
18.809997	-823.797203
21.417359	-61.307692
24.019697	8.762238
26.625613	-2.489510
29.226508	-0.027972
31.828830	-9.090909
34.426134	-9.405594
37.027015	-5.440559
39.622880	-3.188811
42.220173	-4.069930
44.816747	-2.209790
47.408312	-4.251748
50.001306	-2.748252
52.591438	-7.573427
55.182997	-10.762238
57.771698	-13.699301
60.361825	-8.139860
62.946953	-14.685315
65.533509	-10.566434
68.119350	-5.643357
70.702338	-2.230769
73.286753	-6.160839
75.864039	-4.748252
78.444890	-5.055944
81.022894	-7.587413
83.600186	-7.251748
86.178906	-3.552448
88.752643	2.580420
91.327807	-0.027972
93.900128	-4.279720
96.471742	-5.349650
99.040515	0.440559
101.610715	5.349650
104.178076	1.692308
106.746864	1.216783
109.312815	4.216783
111.875931	8.139860
114.442603	24.657343
117.000053	25.384615
119.563189	28.006993
122.121366	31.349650
124.683097	34.132867
127.239871	57.146853
129.798071	97.720280
132.351319	148.118881
134.903869	202.209790
137.459969	267.391608
140.011121	344.629371
142.561576	428.951049
145.111333	503.020979
147.658271	546.083916
150.204514	588.055944
152.752182	601.741259
155.299154	596.454545
157.841190	600.167832
160.382534	598.440559
162.923184	590.587413
165.465259	584.209790
168.004524	572.062937
170.540979	558.111888
173.076744	559.412587
175.613934	564.510490
178.150433	556.461538
180.684126	559.531469
183.215015	554.125874
185.745216	554.034965
188.276843	561.503497
190.805668	570.699301
193.331694	569.692308
195.857034	575.335664
198.383799	564.678322
200.907768	561.153846
203.431051	570.202797
205.953650	569.076923
208.473456	563.860140
210.992579	578.510490
213.511019	580.342657
216.030884	587.174825
218.543746	595.874126
221.060140	614.167832
223.575853	619.167832
226.086675	637.944056
228.598922	651.223776
231.108386	673.314685
233.617172	685.951049
236.125280	683.909091
238.634812	687.314685
241.139463	689.363636
243.643438	680.398601
246.148837	688.685315
248.649361	681.762238
251.153408	688.895105
253.650485	688.069930
256.151084	693.251748
258.648912	699.503497
261.146067	702.020979
263.642550	695.468531
266.134169	691.524476
268.629308	697.734266
271.121680	692.895105
273.613382	699.006993
276.102321	703.125874
278.592683	698.643357
281.080284	708.321678
283.565125	718.671329
286.053481	729.013986
288.534897	745.244755
291.019827	754.825175
293.499911	782.748252
295.983508	802.111888
298.462263	814.230769
300.942440	807.776224
303.419866	804.335664
305.896628	795.349650
308.372726	789.825175
310.846076	784.370629
313.318765	790.013986
315.790792	791.685315
318.262157	794.559441
320.730779	803.923077
323.198741	818.461538
325.668126	805.118881
328.132688	799.503497
330.600754	793.979021
333.063999	775.517483
335.526588	759.692308
337.988520	744.041958
340.449795	734.762238
342.908335	737.741259
345.368298	731.328671
347.825529	716.972028
350.282105	720.195804
352.738027	718.069930
355.191219	722.818182
357.645834	733.909091
360.095647	743.482517
362.548956	738.965035
364.997466	730.370629
367.445326	724.013986
369.894608	717.650350
372.339095	718.797203
374.785005	704.328671
377.230266	684.923077
379.672808	685.972028
382.114702	682.118881
384.555948	690.426573
386.994480	693.790210
389.434432	698.720280
391.871671	696.181818
394.306199	695.160839
396.744213	699.034965
399.177452	697.062937
401.612111	695.097902
404.041998	686.804196
406.475370	683.685315
408.903972	679.538462
411.331932	688.909091
413.761313	692.951049
416.185930	701.132867
418.611967	700.489510
421.037365	703.517483
423.462122	706.391608
425.882120	709.048951
428.303540	708.524476
430.722264	708.314685
433.142407	710.979021
435.559856	705.097902
437.978726	696.384615
440.394901	689.251748
442.806330	672.069930
445.221235	673.342657
447.633450	666.545455
450.045032	660.069930
452.455979	649.202797
454.864239	659.272727
457.271868	656.160839
459.678864	657.916084
462.085229	665.461538
464.488911	665.132867
466.891963	658.930070
469.294385	645.713287
471.696177	654.405594
474.095291	669.090909
476.495825	675.216783
478.895730	691.503497
481.290913	709.188811
483.689561	729.832168
486.083490	742.727273
488.476793	752.230769
490.869471	757.832168
493.261523	757.006993
495.654993	757.041958
498.043751	761.916084
500.429843	731.363636
502.817355	612.608392
505.204244	660.713287
507.588468	1539.573427
509.974112	3494.930070
512.357094	6047.671329
514.737414	8381.895105
517.119155	10035.986014
519.498236	10923.041958
521.878735	10982.244755
524.256578	10220.853147
526.631764	8687.958042
529.006333	6511.531469
531.382321	4027.020979
533.755656	1909.706294
536.130408	830.076923
538.500474	705.657343
540.869926	907.678322
543.240795	972.615385
545.606983	934.566434
547.974590	902.727273
550.339551	861.265734
552.703900	820.174825
555.067635	784.874126
557.432788	752.265734
559.793269	733.209790
562.155167	704.811189
564.514426	680.167832
566.871046	671.440559
569.231112	655.874126
571.584486	650.615385
573.941305	639.629371
576.295489	634.615385
578.649064	632.629371
581.002032	624.419580
583.352367	623.503497
585.704120	620.671329
588.049196	625.517483
590.399735	620.398601
592.743602	622.804196
595.092930	628.706294
597.437609	624.874126
599.779664	628.783217
602.123136	622.895105
604.463985	619.188811
606.804231	617.104895
609.141857	616.286713
611.482918	621.657343
613.819342	627.741259
616.157182	631.335664
618.492405	637.055944
620.825011	639.867133
623.159035	642.125874
625.490444	640.139860
627.821255	631.944056
630.151468	622.230769
632.481084	603.139860
634.806076	586.125874
637.136510	577.762238
639.462323	574.307692
641.785528	578.000000
644.110150	584.503497
646.432166	587.510490
648.753588	595.055944
651.072407	609.013986
653.392643	620.867133
655.712284	625.195804
658.029326	621.937063
660.345775	615.657343
662.659626	613.832168
664.974893	612.860140
667.287563	611.531469
669.601648	612.433566
671.911133	612.594406
674.222034	594.580420
676.530342	597.244755
678.838061	606.118881
681.147196	604.993007
683.451738	591.811189
685.755694	581.279720
688.059063	566.860140
690.363848	575.006993
692.664045	570.503497
694.965658	572.538462
697.266685	576.643357
699.563131	569.048951
701.860992	566.552448
704.158269	578.020979
706.454963	580.797203
708.747081	577.153846
711.042610	567.811189
713.333565	575.930070
715.625935	559.986014
717.915729	570.272727
720.204944	562.993007
722.493579	569.951049
724.779641	579.370629
727.067117	574.790210
729.352023	579.986014
731.636351	587.468531
733.918110	583.559441
736.201283	579.559441
738.483879	579.923077
740.761919	582.279720
743.041373	570.286713
745.320252	576.286713
747.598556	573.062937
749.872309	573.993007
752.147477	589.874126
754.422071	581.328671
756.694106	574.615385
758.967554	585.013986
761.238444	581.342657
763.506778	586.258741
765.776525	583.181818
768.043717	585.979021
770.310340	587.986014
772.576392	593.482517
774.839893	593.587413
777.104806	606.769231
779.369151	625.139860
781.628965	623.517483
783.890193	618.433566
786.150853	635.062937
788.408967	637.251748
790.664536	644.769231
792.923495	641.258741
795.175956	639.937063
797.433784	637.202797
799.687093	633.657343
801.937862	630.874126
804.190043	635.923077
806.439685	629.265734
808.690739	609.832168
810.937282	604.027972
813.185238	613.776224
815.430658	608.713287
817.677491	609.104895
819.923761	610.664336
822.165528	609.202797
824.410677	613.958042
826.649355	620.860140
828.891414	629.433566
831.128975	633.671329
833.367948	630.349650
835.604394	625.370629
837.842251	633.944056
840.077583	621.657343
842.310392	608.027972
844.544611	587.601399
846.776309	582.097902
849.007452	570.713287
851.238040	578.237762
853.468074	582.013986
855.697553	584.027972
857.922552	593.468531
860.150924	601.643357
862.374818	617.454545
864.600123	633.426573
866.820952	632.062937
869.045153	628.762238
871.264881	627.111888
873.486019	632.055944
875.706607	627.881119
877.924686	647.979021
880.144174	642.713287
882.359196	645.489510
884.573670	650.573427
886.787597	659.797203
889.000976	660.503497
891.213809	654.713287
893.426094	638.951049
895.635878	627.405594
897.845116	636.846154
900.053809	630.790210
902.260002	632.062937
904.467605	645.664336
906.672711	641.125874
908.877273	644.664336
911.079340	645.000000
913.282816	652.209790
915.483798	635.153846
917.684238	623.741259
919.886087	627.902098
922.081545	643.223776
924.280361	668.692308
926.474740	694.307692
928.672476	720.328671
930.865776	761.664336
933.060485	807.594406
935.252707	850.902098
937.444392	898.111888
939.635539	937.538462
941.824203	951.580420
944.012331	968.286713
946.197977	984.545455
948.386977	994.342657
950.571552	1012.482517
952.755593	1024.510490
954.942985	1031.629371
957.122072	1056.657343
959.304510	1070.377622
961.486414	1071.209790
963.665843	1071.965035
965.842800	1069.664336
968.021165	1063.097902
970.200937	1061.972028
972.374359	1045.811189
974.551129	1048.475524
976.723491	1063.629371
978.897261	1057.825175
981.066627	1060.342657
983.239337	1045.272727
985.409582	1025.000000
987.579297	998.419580
989.748484	957.888112
991.913274	922.496503
994.081406	882.986014
996.245142	849.013986
998.410286	808.188811
1000.572970	793.237762
1002.735129	788.384615
1004.894831	777.405594
1007.054008	778.629371
1009.214592	770.265734
1011.372721	786.657343
1013.530327	772.517483
1015.687409	748.762238
1017.843967	731.811189
1019.996146	705.874126
1022.149732	688.664336
1024.302796	676.055944
1026.453411	672.321678
1028.605432	681.692308
1030.753081	681.741259
1032.904061	683.293706
1035.050670	683.671329
1037.196760	693.937063
1039.342332	670.643357
1041.489309	669.790210
1043.629997	669.111888
1045.774014	660.552448
1047.915592	664.559441
1050.056652	671.055944
1052.199118	680.923077
1054.335303	690.867133
1056.474815	693.853147
1058.609971	689.272727
1060.748452	690.657343
1062.882580	697.048951
1065.016194	686.244755
1067.151212	685.643357
1069.281882	672.307692
1071.413956	660.951049
1073.543600	655.286713
1075.672733	638.349650
1077.801355	632.860140
1079.929465	634.587413
1082.055149	634.090909
1084.180323	623.657343
1086.306901	640.006993
1088.429141	648.097902
1090.552786	653.258741
1092.672096	664.783217
1094.796635	672.839161
1096.914930	675.447552
1099.034628	668.244755
1101.151909	661.979021
1103.268682	660.965035
1105.384949	661.755245
1107.498801	654.335664
1109.614056	642.517483
1111.724989	639.139860
1113.839234	632.139860
1115.949158	643.538462
1118.060485	656.951049
1120.171309	656.454545
1122.277816	649.727273
1124.387632	640.916084
1126.493134	645.419580
1128.600040	637.797203
1130.700730	635.671329
1132.806632	623.643357
1134.908225	619.636364
1137.011220	616.846154
1139.113716	625.874126
1141.210004	634.475524
1143.311499	634.349650
1145.408692	633.111888
1147.505386	638.167832
1149.601583	638.160839
1151.697281	642.034965
1153.792482	632.272727
1155.885286	634.524476
1157.979492	632.755245
1160.067507	642.300699
1162.160720	646.741259
1164.247746	641.006993
1166.338070	642.328671
1168.424106	634.307692
1170.513440	632.496503
1172.596593	622.412587
1174.681149	614.867133
1176.767106	610.048951
1178.848781	598.349650
1180.931857	605.370629
1183.012548	611.146853
1185.092748	619.692308
1187.172456	631.482517
1189.251673	637.818182
1191.328507	641.209790
1193.402961	643.069930
1195.480707	630.244755
1197.554182	632.482517
1199.629059	640.510490
1201.699668	635.139860
1203.771678	627.139860
1205.841312	624.048951
1207.912347	632.720280
1209.982894	635.601399
1212.049181	637.118881
1214.116868	638.272727
1216.182182	625.027972
1218.248897	619.643357
1220.311356	615.832168
1222.377101	626.118881
1224.438591	628.804196
1226.501482	623.433566
1228.562004	627.587413
1230.622044	624.930070
1232.681600	635.860140
1234.738792	626.678322
1236.795501	629.307692
1238.849848	626.573427
1240.907475	611.181818
1242.962740	601.629371
1245.013765	608.111888
1247.066189	607.685315
1249.118133	611.510490
1251.167719	614.244755
1253.216826	628.699301
1255.265454	636.566434
1257.313604	647.545455
1259.361276	655.363636
1261.404717	657.034965
1263.451434	652.111888
1265.495797	640.636364
1267.539683	635.377622
1269.581219	639.314685
1271.620405	635.776224
1273.662864	628.321678
1275.701100	617.391608
1277.740735	622.202797
1279.779894	632.972028
1281.814836	639.048951
1283.851176	653.125874
1285.885172	644.000000
1287.920565	644.300699
1289.951745	628.167832
1291.984324	634.230769
1294.016431	631.489510
1296.046197	628.727273
1298.077360	624.720280
1300.104316	609.356643
1302.132671	617.342657
1304.156820	634.265734
1306.184235	642.370629
1308.207447	650.755245
1310.232057	654.587413
1312.254332	658.293706
1314.278005	647.944056
1316.299345	663.818182
1318.320218	653.867133
1320.340623	656.825175
1322.356835	643.559441
1324.374444	631.706294
1326.389725	634.804196
1328.408265	627.713287
1330.422615	616.370629
1332.434640	616.909091
1334.449923	625.587413
1336.461020	621.776224
1338.473513	606.993007
1340.481824	612.076923
1342.493391	610.615385
1344.498919	611.944056
1346.507702	611.174825
1348.512307	612.419580
1350.520166	617.671329
1352.527563	612.286713
1354.528929	614.741259
1356.531691	624.153846
1358.533994	622.363636
1360.535837	611.013986
1362.537220	608.454545
1364.536289	616.468531
1366.534900	622.594406
1368.533053	615.902098
1370.530748	623.363636
1372.524280	633.601399
1374.519207	633.111888
1376.513678	627.692308
1378.507692	621.958042
1380.499399	610.797203
1382.490650	601.748252
1384.479596	590.692308
1386.469937	602.209790
1388.459824	600.314685
1390.447406	597.545455
1392.434535	600.972028
1394.419362	609.965035
1396.405584	613.244755
1398.389505	594.447552
1400.372974	599.958042
1402.355991	599.013986
1404.336710	596.209790
1406.318823	607.783217
1408.298639	608.097902
1410.278005	623.328671
1412.253232	633.160839
1414.231697	635.300699
1416.207869	654.748252
1418.183591	652.384615
1420.158864	647.048951
1422.131847	641.069930
1424.104381	643.580420
1426.076467	643.216783
1428.048106	641.902098
1430.015616	646.657343
1431.988200	633.412587
1433.952978	628.475524
1435.922829	630.895105
1437.888555	621.804196
1439.855675	625.580420
1441.820511	613.657343
1443.781227	613.930070
1445.747011	625.377622
1447.706840	633.265734
1449.668063	639.811189
1451.630677	644.545455
1453.589177	649.314685
1455.547235	647.874126
1457.504851	655.286713
1459.462024	662.000000
1461.416922	654.944056
1463.373213	641.391608
1465.327229	631.384615
1467.280804	624.853147
1469.232107	627.328671
1471.184802	616.573427
1473.135226	608.783217
1475.085211	615.181818
1477.034757	624.209790
1478.982034	644.426573
1480.927043	651.902098
1482.873445	653.223776
1484.819409	645.335664
1486.764936	631.461538
1488.708197	626.020979
1490.651022	615.923077
1492.591584	607.139860
1494.533538	601.608392
1496.473229	609.000000
1498.412485	616.027972
1500.351307	622.055944
1502.287869	641.727273
1504.225822	641.419580
1506.161516	639.132867
1508.096777	637.174825
1510.029781	636.041958
1511.962353	644.734266
1513.894493	645.951049
1515.826201	639.272727
1517.755656	637.986014
1519.686501	625.146853
1521.616914	624.601399
1523.543255	613.000000
1525.470986	616.265734
1527.396468	603.734266
1529.321520	595.762238
1531.246142	599.314685
1533.170336	604.482517
1535.092283	614.083916
1537.015620	610.433566
1538.936710	609.412587
1540.855556	606.545455
1542.775792	601.398601
1544.693784	619.111888
1546.611350	616.202797
1548.526675	624.202797
1550.443389	627.559441
1552.356047	630.055944
1554.271910	627.517483
1556.185534	630.755245
1558.096919	617.244755
1560.009694	606.545455
1561.918419	597.000000
1563.828533	590.020979
1565.738224	593.643357
1567.647492	599.755245
1569.554525	606.209790
1571.459326	614.909091
1573.365516	613.258741
1575.269475	620.363636
1577.173012	625.496503
1579.076129	648.020979
1580.977016	638.272727
1582.879292	636.650350
1584.779339	631.202797
1586.680775	635.118881
1588.578176	627.867133
1590.475160	615.328671
1592.371725	604.055944
1594.269677	596.153846
1596.161795	587.496503
1598.057107	598.783217
1599.952000	607.342657
1601.844673	619.076923
1603.736928	616.244755
1605.626964	608.867133
1607.516584	612.496503
1609.405789	610.972028
1611.294578	608.818182
1613.181151	611.678322
1615.069111	608.398601
1616.953054	610.454545
1618.838384	614.195804
1620.723301	617.720280
1622.606004	624.902098
1624.490094	620.615385
1626.370172	629.587413
1628.251638	624.041958
1630.130892	620.377622
1632.011534	623.937063
1633.886371	637.664336
1635.766189	645.692308
1637.642002	644.881119
1639.517406	645.615385
1641.394195	648.657343
1643.265187	652.412587
1645.139362	645.601399
1647.009537	641.041958
1648.882893	638.146853
1650.754046	627.195804
1652.622997	609.041958
1654.493334	616.419580
1656.359677	616.713287
1658.227407	615.111888
1660.092937	618.867133
1661.959853	620.223776
1663.822779	615.804196
1665.687092	611.237762
1667.549208	607.223776
1669.410919	607.188811
1671.274015	600.797203
1673.134917	593.895105
1674.993626	598.755245
1676.851931	611.923077
1678.711620	602.482517
1680.565543	608.475524
1682.422639	616.111888
1684.279331	613.398601
1686.132048	604.825175
1687.987936	600.909091
1689.839850	603.692308
1691.691363	591.811189
1693.542475	588.000000
1695.393186	583.160839
1697.243497	585.405594
1699.091624	584.524476
1700.941135	569.790210
1702.784896	578.342657
1704.633608	583.181818
1706.476573	589.356643
1708.322704	591.475524
1710.164874	609.349650
1712.010208	626.356643
1713.849802	630.412587
1715.690781	646.615385
1717.533142	645.104895
1719.371546	635.384615
1721.211334	631.923077
1723.048947	615.545455
1724.886165	615.510490
1726.721209	606.601399
1728.557636	601.349650
1730.391890	591.398601
1732.225751	602.503497
1734.059217	609.762238
1735.888737	601.083916
1737.721417	602.853147
1739.550151	594.573427
1741.382044	591.986014
1743.209994	589.335664
1745.037552	584.097902
1746.864719	592.426573
1748.691494	583.384615
1750.517877	585.055944
1752.340324	585.293706
1754.165926	588.244755
1755.987592	591.041958
1757.810641	583.538462
1759.631529	588.328671
1761.452027	592.027972
1763.273907	588.188811
1765.090087	585.475524
1766.909419	589.923077
1768.724824	597.013986
1770.543380	590.489510
1772.358010	591.881119
1774.172253	592.300699
1775.986110	587.510490
1777.799580	593.972028
1779.610896	591.727273
1781.423594	595.503497
1783.235905	599.426573
1785.044299	596.013986
1786.854074	601.972028
1788.659933	598.412587
1790.468939	604.027972
1792.274031	598.783217
1794.080504	604.965035
1795.886592	601.622378
1797.688771	598.321678
1799.494093	596.461538
1801.295507	595.272727
1803.098302	604.286713
1804.897190	610.636364
1806.697459	610.580420
1808.497346	613.013986
1810.295091	600.622378
1812.092456	612.034965
1813.889440	600.993007
1815.686044	609.685315
1817.480509	601.797203
1819.276354	591.335664
1821.066543	573.811189
1822.861629	574.342657
1824.651062	574.020979
1826.443633	575.202797
1828.234068	577.139860
1830.022368	575.013986
1831.813804	574.293706
1833.599595	574.573427
1835.386764	567.090909
1837.171803	578.902098
1838.959974	575.776224
1840.744260	564.118881
1842.526417	556.944056
1844.309953	572.223776
1846.091360	566.566434
1847.874145	571.209790
1849.653051	573.328671
1851.433335	575.419580
1853.211494	573.797203
1854.991030	576.538462
1856.768442	575.874126
1858.543731	584.489510
1860.320397	575.496503
1862.094941	577.559441
1863.870862	582.937063
1865.641164	589.552448
1867.414593	579.132867
1869.185902	582.650350
1870.956840	590.069930
1872.729156	596.923077
1874.495858	592.272727
1876.265685	608.433566
1878.031649	605.804196
1879.800737	615.076923
1881.565963	606.615385
1883.330821	610.370629
1885.097055	597.118881
1886.859431	585.881119
1888.621440	573.916084
1890.383082	572.734266
1892.144356	579.174825
1893.905264	581.174825
1895.665804	574.356643
1897.424236	586.279720
1899.182301	585.615385
1900.938259	589.944056
1902.695593	577.748252
1904.452562	574.510490
1906.207424	562.762238
1907.960181	553.818182
1909.712575	556.307692
1911.466345	559.671329
1913.218011	564.153846
1914.967574	569.265734
1916.718514	575.678322
1918.469090	586.671329
1920.215828	593.104895
1921.963941	589.762238
1923.709955	583.762238
1925.457345	583.006993
1927.202636	571.181818
1928.945830	562.181818
1930.690400	568.566434
1932.432873	557.461538
1934.174986	551.104895
1935.916740	553.685315
1937.658133	559.755245
1939.397433	557.622378
1941.136374	563.132867
1942.874956	563.909091
1944.611447	575.979021
1946.347579	576.650350
1948.085087	572.356643
1949.818772	578.818182
1951.553832	575.846154
1953.286803	570.377622
1955.019418	572.202797
1956.751676	581.979021
1958.483578	579.055944
1960.213395	574.076923
1961.941126	576.685315
1963.670232	574.692308
1965.398982	582.146853
1967.125649	573.853147
1968.851962	568.202797
1970.579649	573.489510
1972.301799	564.321678
1974.027050	569.377622
1975.748494	574.405594
1977.473038	586.118881
1979.195503	585.839161
1980.914164	585.125874
1982.635924	588.734266
1984.353883	594.419580
1986.073214	602.601399
1987.788746	602.370629
1989.509098	600.720280
1991.225652	601.104895
1992.938409	602.223776
1994.654262	587.874126
1996.368043	575.993007
1998.081474	578.566434
1999.792834	574.384615
2001.505566	563.013986
2003.214507	558.601399
2004.926542	563.314685
2006.633067	564.293706
2008.342685	564.244755
2010.050235	565.153846
2011.757438	571.209790
2013.462575	580.510490
2015.167365	575.146853
2016.873528	573.944056
2018.575907	583.216783
2020.279659	587.006993
2021.981348	587.860140
2023.682691	582.146853
2025.383690	584.384615
2027.082627	581.993007
2028.782936	578.986014
2030.479469	585.867133
2032.177374	583.860140
2033.873221	581.545455
2035.572153	585.538462
2037.265599	578.174825
2038.960416	582.174825
2040.654890	580.622378
2042.345597	589.118881
2044.039386	576.328671
2045.729410	571.314685
2047.420803	570.958042
2049.110144	577.510490
2050.800856	577.398601
2052.487804	577.720280
2054.174412	575.125874
2055.862391	577.272727
2057.546610	570.223776
2059.232199	570.258741
2060.917449	566.832168
2062.600651	576.041958
2064.285223	560.062937
2065.964331	562.440559
2067.648226	564.181818
2069.326659	576.923077
2071.008170	569.384615
2072.685929	570.559441
2074.363352	560.944056
2076.042144	559.083916
2077.718893	557.013986
2079.393601	559.314685
2081.069679	570.881119
2082.743715	580.601399
2084.417417	577.685315
2086.090783	576.839161
2087.762110	572.391608
2089.433103	574.000000
2091.103762	558.762238
2092.774087	554.776224
2094.444078	544.377622
2096.112032	545.237762
2097.779654	548.048951
2099.445242	550.174825
2101.112198	560.797203
2102.777121	569.811189
2104.441712	569.342657
2106.104271	563.958042
2107.768198	563.531469
2109.430094	561.643357
2111.091659	571.363636
2112.752894	575.930070
2114.412099	570.636364
2116.070975	570.069930
2117.729520	573.587413
2119.387736	573.328671
2121.042229	573.139860
2122.699786	576.104895
2124.357013	565.034965
2126.010520	566.433566
2127.665394	567.993007
2129.316549	579.650350
2130.970767	589.832168
2132.621267	578.538462
2134.273135	575.202797
2135.919594	566.083916
2137.570807	577.000000
2139.218308	584.958042
2140.867175	579.937063
2142.514023	581.391608
2144.160546	584.825175
2145.806743	594.951049
2147.449231	592.160839
2149.094778	593.580420
2150.736618	580.587413
2152.381515	560.895105
2154.022707	549.825175
2155.663575	534.979021
2157.304120	540.832168
2158.942652	547.363636
2160.582550	536.951049
2162.218748	548.755245
2163.856312	560.447552
2165.493554	562.062937
2167.128786	564.461538
2168.763696	566.216783
2170.398285	562.321678
2172.032553	552.174825
2173.663127	540.251748
2175.296753	537.734266
2176.926686	539.307692
2178.557986	535.111888
2180.187280	528.328671
2181.816255	548.853147
2183.444910	560.699301
2185.073246	570.524476
2186.699579	577.482517
2188.325594	574.237762
2189.949608	567.685315
2191.574987	559.055944
2193.198365	547.825175
2194.823108	540.608392
2196.444170	528.825175
2198.064915	511.048951
2199.687024	507.573427
2201.307136	515.664336
2202.925252	515.986014
2204.543052	517.902098
2206.160536	519.601399
2207.777706	521.916084
2209.394559	535.097902
2211.011098	544.356643
2212.625643	551.664336
2214.238197	554.699301
2215.852114	558.118881
2217.464040	555.846154
2219.077329	555.867133
2220.688627	561.825175
2222.297937	550.405594
2223.908609	548.398601
2225.517293	542.923077
2227.125665	538.139860
2228.732050	545.881119
2230.339797	533.335664
2231.945559	528.804196
2233.551009	517.062937
2235.154474	516.069930
2236.759302	515.461538
2238.362146	517.566434
2239.963007	514.909091
2241.565231	498.650350
2243.165473	507.573427
2244.767077	505.769231
2246.365028	511.167832
2247.964342	517.510490
2249.561676	517.818182
2251.158702	525.482517
2252.757089	523.139860
2254.351829	530.216783
2255.944591	532.132867
2257.538716	533.370629
2259.134202	532.314685
2260.726043	526.314685
2262.317578	533.153846
2263.910474	529.258741
2265.498062	524.461538
2267.090345	516.272727
2268.677321	518.307692
2270.267326	517.265734
2271.852026	509.447552
2273.441420	508.629371
2275.025511	508.930070
2276.610964	507.748252
2278.194448	514.209790
2279.780957	507.629371
2281.363833	511.685315
2282.946406	510.500000
2284.528675	505.090909
2286.107314	498.080420
2287.688978	498.419580
2289.267013	504.066434
2290.848071	510.937063
2292.425502	519.493007
2294.000970	521.139860
2295.579460	525.290210
2297.154326	526.573427
2298.728891	526.695804
2300.303155	530.643357
2301.877119	524.632867
2303.450783	510.412587
2305.024147	512.412587
2306.593892	507.209790
2308.163338	507.496503
2309.735802	501.111888
2311.302992	501.027972
2312.873199	501.321678
2314.439793	510.615385
2316.007745	505.944056
2317.573743	508.944056
2319.139443	510.671329
2320.704845	511.524476
2322.268294	515.230769
2323.833102	523.405594
2325.394301	518.811189
2326.958515	522.762238
2328.517468	519.489510
2330.079434	525.566434
2331.639450	525.482517
2333.199170	535.342657
2334.756942	532.454545
2336.314418	533.048951
2337.871600	525.699301
2339.426834	522.678322
2340.981774	518.251748
2342.536421	502.356643
2344.090774	505.279720
2345.644833	503.244755
2347.198599	494.951049
2348.750420	489.181818
2350.300298	481.398601
2351.853185	488.419580
2353.400828	484.146853
2354.951479	477.384615
2356.498540	466.643357
2358.046958	478.594406
2359.595084	483.349650
2361.139623	487.265734
2362.685519	505.041958
2364.229476	513.552448
2365.774791	521.748252
2367.316521	519.349650
2368.859609	516.013986
2370.400760	516.643357
2371.941622	514.629371
2373.482195	506.223776
2375.022479	497.755245
2376.562474	508.615385
2378.098890	507.965035
2379.638308	508.000000
2381.174149	514.853147
2382.711347	518.153846
2384.244969	519.181818
2385.781591	516.097902
2387.316283	518.118881
2388.849044	513.818182
2390.381520	511.951049
2391.912067	507.160839
2393.445612	504.363636
2394.973946	514.888112
2396.503636	512.972028
2398.033041	511.069930
2399.562161	511.916084
2401.090995	505.972028
2402.614625	500.538462
2404.142890	491.174825
2405.665952	486.405594
2407.193649	480.979021
2408.714506	474.195804
2410.239995	486.167832
2411.761925	487.846154
2413.285209	495.377622
2414.806573	482.482517
2416.326017	482.202797
2417.846816	484.000000
2419.365696	484.335664
2420.884295	487.832168
2422.400975	487.097902
2423.919011	489.818182
2425.436765	493.111888
2426.950967	499.489510
2428.464890	520.657343
2429.978532	523.636364
2431.493528	519.027972
2433.004977	509.286713
2434.517779	507.391608
2436.028669	500.608392
2437.539280	492.517483
2439.047979	486.020979
2440.559664	476.944056
2442.067806	465.027972
2443.575670	459.622378
2445.083255	473.265734
2446.587301	476.888112
2448.094331	487.874126
2449.599453	490.328671
2451.104298	500.405594
2452.607236	491.839161
2454.109897	486.881119
2455.612283	484.636364
2457.112762	497.447552
2458.614596	487.573427
2460.114524	488.874126
2461.614177	489.510490
2463.113555	502.083916
2464.611030	491.762238
2466.106603	495.895105
2467.605156	483.825175
2469.100181	483.363636
2470.596558	469.986014
2472.089409	466.650350
2473.583613	465.258741
2475.077543	466.167832
2476.567949	451.629371
2478.061333	463.111888
2479.552819	462.993007
2481.042408	467.587413
2482.531725	456.377622
2484.019146	454.419580
2485.509543	459.559441
2486.996422	469.524476
2488.484652	473.279720
2489.969365	480.888112
2491.453808	485.559441
2492.939603	495.321678
2494.423506	503.615385
2495.908759	503.874126
2497.388879	497.461538
2498.871971	488.881119
2500.353174	473.153846
2501.834107	474.153846
2503.313150	461.867133
2504.791926	453.000000
2506.270433	443.223776
2507.748671	443.167832
2509.226642	443.216783
2510.701107	459.132867
2512.178542	466.965035
2513.652472	467.167832
2515.127754	465.391608
2516.602768	468.664336
2518.074281	466.405594
2519.547145	468.062937
2521.018126	449.923077
2522.490457	450.804196
2523.957674	436.748252
2525.427858	443.629371
2526.896161	447.328671
2528.364198	454.181818
2529.831971	463.692308
2531.299479	460.573427
2532.766723	461.027972
2534.230474	471.804196
2535.695575	461.517483
2537.158799	465.251748
2538.623372	464.566434
2540.084457	460.132867
2541.546891	455.111888
2543.009062	457.790210
2544.467746	464.412587
2545.931003	474.923077
2547.389163	496.468531
2548.848673	498.811189
2550.303088	503.377622
2551.762074	505.685315
2553.219188	497.692308
2554.674430	495.636364
2556.129412	488.251748
2557.582524	475.965035
2559.036985	465.839161
2560.489577	456.881119
2561.941909	458.916084
2563.392373	467.363636
2564.845794	476.622378
2566.294132	470.846154
2567.745425	468.762238
2569.194852	466.622378
2570.640808	466.832168
2572.089718	462.608392
2573.535157	464.923077
2574.981945	469.090909
2576.426869	463.034965
2577.871536	470.769231
2579.317550	474.524476
2580.760097	474.405594
2582.203992	471.000000
2583.644422	461.993007
2585.086200	454.769231
2586.526118	448.923077
2587.967383	446.958042
2589.405186	441.958042
2590.845939	429.601399
2592.281630	433.979021
2593.720269	433.496503
2595.157052	446.692308
2596.591979	450.818182
2598.029853	452.062937
2599.462670	442.461538
2600.896834	444.944056
2602.329143	437.776224
2603.762800	441.461538
2605.194602	437.825175
2606.626152	438.601399
2608.057448	434.524476
2609.486893	440.524476
2610.916085	446.622378
2612.343426	446.510490
2613.772114	448.342657
2615.200549	450.594406
2616.625538	443.300699
2618.051872	449.832168
2619.476359	444.321678
2620.902190	452.944056
2622.324579	452.482517
2623.748312	466.426573
2625.170200	473.524476
2626.591837	463.461538
2628.011630	463.804196
2629.432768	445.426573
2630.853656	446.664336
2632.271105	450.286713
2633.691494	446.636364
2635.108446	451.258741
2636.525150	447.818182
2637.941605	450.062937
2639.357812	449.636364
2640.773771	463.503497
2642.187889	460.006993
2643.601759	449.671329
2645.013790	438.279720
2646.427166	419.965035
2647.837112	424.412587
2649.249994	424.195804
2650.659447	419.223776
2652.068654	424.839161
2653.476025	422.776224
2654.886330	419.594406
2656.294799	424.552448
2657.701434	437.629371
2659.107822	440.216783
2660.512378	447.083916
2661.918277	445.006993
2663.322342	450.097902
2664.726164	458.216783
2666.129741	453.146853
2667.531487	450.986014
2668.934576	451.979021
2670.334247	449.160839
2671.735262	440.811189
2673.132861	439.230769
2674.533389	433.538462
2675.930503	434.314685
2677.328960	444.398601
2678.725589	440.433566
2680.121977	442.832168
2681.518122	434.377622
2682.912441	424.279720
2684.308103	423.699301
2685.700356	427.748252
2687.093951	433.000000
2688.485722	430.678322
2689.878836	425.517483
2691.270125	424.538462
2692.659593	432.538462
2694.048820	432.181818
2695.437807	414.727273
2696.828137	418.300699
2698.213483	399.475524
2699.601752	403.671329
2700.988201	406.027972
2702.374411	413.118881
2703.760382	416.426573
2705.142955	421.461538
2706.526870	417.055944
2707.910546	430.629371
2709.293985	434.923077
2710.674028	432.286713
2712.055413	440.398601
2713.434982	437.727273
2714.815893	433.860140
2716.194989	437.489510
2717.572271	438.566434
2718.950894	441.419580
2720.327703	430.440559
2721.704277	427.517483
2723.080615	418.195804
2724.455141	424.363636
2725.831008	418.160839
2727.203488	420.650350
2728.578885	426.328671
2729.949321	415.006993
2731.321097	417.181818
2732.692640	411.244755
2734.062374	420.755245
2735.433448	417.034965
2736.802715	403.027972
2738.171748	397.594406
2739.538975	393.531469
2740.905968	385.755245
2742.272729	382.664336
2743.639257	388.419580
2745.003981	394.426573
2746.368472	400.468531
2747.732731	405.272727
2749.096759	414.251748
2750.460554	418.965035
2751.820977	410.916084
2753.184309	411.181818
2754.542699	411.972028
2755.903999	418.069930
2757.261929	417.454545
2758.622767	417.349650
2759.981805	423.202797
2761.337475	426.349650
2762.696054	431.902098
2764.051265	420.027972
2765.406247	403.104895
2766.759432	386.664336
2768.115524	376.972028
2769.468252	370.272727
2770.820751	369.867133
2772.173023	368.384615
2773.526632	368.979021
2774.876880	374.559441
2776.225335	380.496503
2777.576694	395.608392
2778.924694	401.076923
2780.274033	393.433566
2781.621579	380.391608
2782.968899	381.951049
2784.315991	379.097902
2785.661293	370.832168
2787.006369	375.482517
2788.351219	366.496503
2789.695843	370.692308
2791.037115	383.454545
2792.379724	383.286713
2793.722109	403.188811
2795.064268	413.489510
2796.403078	417.755245
2797.744788	414.699301
2799.083149	416.482517
2800.422848	406.944056
2801.760761	401.062937
2803.096890	392.825175
2804.432796	375.755245
2805.770038	371.083916
2807.105497	370.517483
2808.440733	354.174825
2809.774187	363.258741
2811.108977	370.454545
2812.440426	376.958042
2813.774771	381.587413
2815.104218	389.083916
2816.435002	397.468531
2817.765564	405.594406
2819.094347	404.566434
2820.424467	410.461538
2821.752808	407.622378
2823.080927	403.545455
2824.407270	390.503497
2825.734948	385.013986
2827.059294	373.223776
2828.384976	370.671329
2829.708882	362.762238
2831.032568	368.363636
2832.357590	382.699301
2833.679283	383.104895
2835.000757	383.944056
2836.322011	384.293706
2837.643047	374.804196
2838.962311	380.230769
2840.282910	374.657343
2841.601737	371.748252
2842.920346	372.587413
2844.237185	373.090909
2845.553806	375.188811
2846.870210	373.825175
2848.184844	386.874126
2849.500813	382.279720
2850.813463	380.370629
2852.127447	377.174825
2853.441215	379.685315
2854.754766	380.230769
2856.066551	375.713287
2857.376569	380.251748
2858.687922	380.832168
2859.995960	381.825175
2861.305332	384.118881
2862.614489	366.286713
2863.923431	381.237762
2865.230610	383.020979
2866.536025	382.433566
2867.842775	386.104895
2869.147763	388.958042
2870.452536	380.594406
2871.755549	381.006993
2873.061442	379.762238
2874.362481	378.412587
2875.664853	385.125874
2876.965467	373.286713
2878.267413	356.727273
2879.569147	359.461538
2880.867577	352.426573
2882.167340	339.650350
2883.465346	339.440559
2884.763140	347.524476
2886.059177	348.790210
2887.356548	360.678322
2888.652164	365.790210
2889.947568	376.013986
2891.242761	385.034965
2892.534657	376.874126
2893.829428	368.958042
2895.120904	359.146853
2896.413712	353.286713
2897.706310	352.545455
2898.995613	347.839161
2900.286250	352.797203
2901.575135	350.356643
2902.865352	347.293706
2904.152278	350.832168
2905.440536	355.349650
2906.727045	351.377622
2908.013345	338.006993
2909.299437	340.104895
2910.583781	340.398601
2911.870997	345.699301
2913.153386	354.391608
2914.437107	342.482517
2915.719081	346.307692
2917.000849	349.776224
2918.280871	351.328671
2919.563763	367.265734
2920.844910	363.160839
2922.122775	359.685315
2923.403509	359.363636
2924.680962	369.000000
2925.958210	362.139860
2927.233715	357.643357
2928.512088	351.013986
2929.785647	344.160839
2931.062073	344.300699
2932.336757	350.734266
2933.609702	350.398601
2934.883978	350.069930
2936.156513	339.811189
2937.428845	336.923077
2938.697904	339.167832
2939.969828	330.111888
2941.240014	328.937063
2942.509996	334.041958
2943.779775	332.000000
2945.047818	339.986014
2946.314124	341.468531
2947.580228	354.062937
2948.847663	353.937063
2950.113362	358.468531
2951.378860	361.363636
2952.644155	356.034965
2953.906185	360.083916
2955.169545	349.720280
2956.432704	347.923077
2957.694130	341.755245
2958.956887	325.335664
2960.217911	324.881119
2961.477205	324.104895
2962.736298	326.594406
2963.995191	326.692308
2965.253884	341.811189
2966.512377	348.349650
2967.769141	350.986014
2969.025706	353.531469
2970.280542	354.300699
2971.536708	350.622378
2972.789619	342.503497
2974.043858	341.391608
2975.297899	344.566434
2976.550214	338.797203
2977.802331	331.951049
2979.052723	337.797203
2980.305970	341.314685
2981.554440	342.755245
2982.805765	344.510490
2984.053840	340.944056
2985.301718	341.811189
2986.549400	333.986014
2987.796884	332.664336
2989.042647	333.783217
2990.288213	319.328671
2991.535108	316.475524
2992.778758	320.363636
2994.023735	321.510490
2995.265470	322.083916
2996.510056	327.993007
2997.752923	331.223776
2998.992549	322.342657
3000.235025	319.097902
3001.474261	324.132867
3002.714825	326.279720
3003.953672	321.671329
3005.192325	317.132867
3006.429262	330.930070
3007.667527	329.006993
3008.904076	326.643357
3010.140432	324.811189
3011.376594	325.048951
3012.611042	318.860140
3013.845297	311.902098
3015.079359	314.377622
3016.311709	311.741259
3017.542347	302.433566
3018.775831	302.755245
3020.007604	312.552448
3021.237665	325.559441
3022.467535	327.272727
3023.695695	320.363636
3024.925182	317.139860
3026.152959	321.440559
3027.380545	312.069930
3028.609457	316.818182
3029.833627	302.174825
3031.060640	288.986014
3032.284430	289.279720
3033.509545	300.041958
3034.732955	309.531469
3035.956174	328.384615
3037.177688	326.930070
3038.402043	324.132867
3039.621663	323.965035
3040.842609	322.622378
3042.063365	320.391608
3043.282419	329.797203
3044.502797	320.783217
3045.719959	320.888112
3046.938446	320.811189
3048.155232	324.895105
3049.371829	319.790210
3050.588239	324.881119
3051.801435	323.692308
3053.017469	325.601399
3054.230291	320.195804
3055.445950	324.734266
3056.656886	331.433566
3057.869148	347.398601
3059.081222	348.783217
3060.293110	345.860140
3061.503301	335.524476
3062.713305	329.832168
3063.923123	316.160839
3065.131245	307.538462
3066.339182	302.867133
3067.545423	296.741259
3068.752989	290.804196
3069.958860	290.615385
3071.164546	287.811189
3072.370048	299.643357
3073.573856	297.783217
3074.778988	298.727273
3075.982427	295.657343
3077.184174	301.720280
3078.385738	307.804196
3079.587118	307.888112
3080.788314	305.748252
3081.987820	308.153846
3083.187143	308.209790
3084.387789	314.314685
3085.586745	305.139860
3086.782506	312.321678
3087.981097	318.937063
3089.176494	330.965035
3090.373215	328.384615
3091.566743	329.062937
3092.763099	317.671329
3093.957768	306.888112
3095.149247	301.972028
3096.345058	293.258741
3097.536174	291.006993
3098.728614	291.328671
3099.917865	278.937063
3101.109943	291.531469
3102.300337	302.636364
3103.487545	301.027972
3104.676075	293.223776
3105.865928	286.223776
3107.052596	274.132867
3108.239085	278.552448
3109.425395	279.818182
3110.613026	270.867133
3111.797475	276.006993
3112.980245	273.153846
3114.165837	274.748252
3115.349750	285.762238
3116.531983	284.888112
3117.714039	278.748252
3118.895916	284.230769
3120.077615	289.433566
3121.257637	284.391608
3122.435982	290.783217
3123.617147	290.622378
3124.795137	291.923077
3125.972950	290.713287
3127.150586	295.496503
3128.326547	298.580420
3129.502332	299.174825
3130.679437	291.734266
3131.854869	291.566434
3133.028627	290.699301
3134.200712	292.818182
3135.374118	284.377622
3136.547349	285.328671
3137.718908	282.237762
3138.891787	284.951049
3140.061499	275.447552
3141.232532	290.545455
3142.401894	293.426573
3143.569587	299.363636
3144.740095	292.916084
3145.905944	289.475524
3147.076103	289.951049
3148.241604	297.076923
3149.406932	295.076923
3150.572086	294.615385
3151.737067	285.720280
3152.903367	283.370629
3154.065014	284.657343
3155.227982	291.601399
3156.390777	297.090909
3157.553398	292.727273
3158.714355	286.979021
3159.875140	281.902098
3161.035752	288.993007
3162.194700	296.580420
3163.353477	291.265734
3164.512081	289.293706
3165.670514	283.377622
3166.828775	284.524476
3167.985375	283.216783
3169.140313	275.251748
3170.296570	276.804196
3171.451166	271.706294
3172.605592	267.580420
3173.758357	268.363636
3174.910953	270.342657
3176.063379	269.356643
3177.215634	269.972028
3178.367720	271.237762
3179.516659	280.069930
3180.668405	287.762238
3181.818494	283.748252
3182.966925	291.181818
3184.115188	288.776224
3185.263282	287.447552
3186.411207	281.636364
3187.557476	287.692308
3188.703577	279.713287
3189.848024	276.293706
3190.992302	276.125874
3192.136413	272.636364
3193.281842	272.748252
3194.424132	280.384615
3195.566254	277.272727
3196.708210	281.475524
3197.849998	267.755245
3198.991619	265.230769
3200.130105	255.503497
3201.269908	258.706294
3202.411028	262.419580
3203.549015	271.419580
3204.685351	272.811189
3205.821523	272.776224
3206.959011	271.391608
3208.094851	284.545455
3209.232008	288.580420
3210.364552	296.405594
3211.501377	284.286713
3212.633592	278.041958
3213.767123	272.937063
3214.900489	277.965035
3216.030729	277.762238
3217.163766	272.916084
3218.293677	261.461538
3219.424904	250.853147
3220.553006	249.699301
3221.683906	256.958042
3222.813161	265.790210
3223.940773	269.433566
3225.065262	264.979021
3226.194027	264.552448
3227.319670	273.510490
3228.445150	281.405594
3229.568989	274.622378
3230.695623	269.748252
3231.817659	261.902098
3232.941011	253.055944
3234.064200	252.013986
3235.187228	248.755245
3236.308616	240.496503
3237.429843	232.923077
3238.549431	225.006993
3239.668858	226.384615
3240.786648	235.356643
3241.907229	247.790210
3243.024697	248.881119
3244.142004	254.062937
3245.259151	257.454545
3246.374661	254.902098
3247.491487	258.433566
3248.605202	256.986014
3249.721708	252.104895
3250.836578	255.622378
3251.948340	255.853147
3253.059943	267.860140
3254.172861	270.181818
3255.285619	271.895105
3256.395271	272.720280
3257.506238	276.902098
3258.617046	270.825175
3259.726222	260.930070
3260.833767	256.195804
3261.942627	246.622378
3263.051328	242.503497
3264.156927	243.979021
3265.263841	241.860140
3266.369125	242.510490
3267.475723	235.461538
3268.579221	242.853147
3269.684033	271.328671
3270.788688	290.265734
3271.890245	290.048951
3272.991645	293.622378
3274.094359	285.916084
3275.196917	270.636364
3276.296378	262.433566
3277.398623	246.979021
3278.497772	236.335664
3279.595296	233.713287
3280.692666	232.202797
3281.792817	244.797203
3282.889876	263.867133
3283.986779	266.398601
3285.083527	263.419580
3286.175716	265.174825
3287.272155	246.524476
3288.366971	235.846154
3289.461632	241.405594
3290.554672	235.986014
3291.647558	240.447552
3292.738823	246.146853
3293.831401	250.496503
3294.922359	250.657343
3296.011697	251.671329
3297.100882	240.174825
3298.191379	242.615385
3299.278793	230.104895
3300.366053	218.209790
3301.454626	225.979021
3302.543046	241.503497
3303.626920	237.734266
3304.715035	248.930070
3305.800068	255.181818
3306.883486	266.825175
3307.968216	273.601399
3309.051330	270.496503
3310.135756	268.279720
3311.217105	270.237762
3312.299765	252.545455
3313.380810	245.545455
3314.461705	245.174825
3315.540987	246.951049
3316.620118	237.699301
3317.700561	240.986014
3318.777929	236.972028
3319.856609	239.538462
3320.933677	241.657343
3322.010595	244.335664
3323.085903	247.391608
3324.161061	246.986014
3325.237530	242.545455
3326.310929	241.300699
3327.384178	244.062937
3328.458739	249.734266
3329.531691	246.790210
3330.603034	235.510490
3331.675688	241.405594
3332.745275	242.461538
3333.816173	245.349650
3334.885465	243.839161
3335.956066	236.755245
3337.025061	231.769231
3338.092451	236.300699
3339.158235	232.293706
3340.228245	231.741259
3341.295192	232.846154
3342.359077	228.251748
3343.425729	217.713287
3344.490778	224.622378
3345.554223	225.643357
3346.617522	222.923077
3347.680674	218.895105
3348.743680	213.349650
3349.806540	209.909091
3350.867797	227.237762
3351.925998	215.300699
3352.988420	221.468531
3354.047786	220.174825
3355.107006	225.496503
3356.167535	219.951049
3357.223556	219.734266
3358.282340	219.916084
3359.336617	216.944056
3360.393658	219.412587
3361.449100	216.804196
3362.505852	223.216783
3363.561005	227.111888
3364.614561	214.923077
3365.666520	215.853147
3366.721242	211.468531
3367.772914	223.405594
3368.824442	222.160839
3369.877280	225.104895
3370.927070	218.832168
3371.978169	223.111888
3373.026221	220.804196
3374.077034	214.657343
3375.124801	214.958042
3376.172426	208.433566
3377.219909	210.181818
3378.265799	212.608392
3379.312997	221.657343
3380.357152	240.251748
3381.404067	242.475524
3382.449389	243.321678
3383.491670	240.951049
3384.533810	248.335664
3385.577259	240.048951
3386.620566	234.083916
3387.662283	232.930070
3388.703860	234.111888
3389.745295	231.783217
3390.785142	236.475524
3391.823400	240.727273
3392.862966	242.356643
3393.902392	230.517483
3394.940230	228.006993
3395.976481	220.244755
3397.012592	214.965035
3398.050011	207.090909
3399.084397	204.699301
3400.120091	209.496503
3401.155645	211.895105
3402.188167	204.636364
3403.223443	206.944056
3404.255689	218.972028
3405.287795	223.545455
3406.318319	216.377622
3407.350149	219.153846
3408.381841	211.552448
3409.410505	213.517483
3410.439032	220.790210
3411.468865	222.041958
3412.498561	228.580420
3413.525231	223.328671
3414.553207	219.972028
3415.578159	226.566434
3416.605862	235.328671
3417.630540	226.909091
3418.656525	215.622378
3419.680931	221.685315
3420.705200	217.279720
3421.727890	209.258741
3422.750444	211.944056
3423.774304	215.958042
3424.795144	224.902098
3425.815848	235.072927
3426.837858	242.942058
3427.856850	246.292707
3428.875707	242.908092
3429.895870	230.571429
3430.913016	207.065934
