-118.059454	-7.211813
-115.389854	-9.598901
-112.723189	-10.663886
-110.057276	-10.689111
-107.394295	-9.956918
-104.729885	-8.749650
-102.068405	-7.349650
-99.405496	-6.573427
-96.747693	-7.008392
-94.088461	-5.124476
-91.429977	-6.446853
-88.774417	-6.574126
-86.117429	-7.355944
-83.465539	-10.108392
-80.812218	-8.741259
-78.161818	-7.111189
-75.509988	-5.480420
-72.863249	-4.491608
-70.215081	-3.473427
-67.567655	-2.650350
-64.923143	0.704196
-62.277203	1.943357
-59.636344	-0.202797
-56.994056	0.540559
-54.354677	-0.776224
-51.713868	-3.038462
-49.073800	-4.890210
-46.438804	-7.496503
-43.802380	-7.869930
-41.168858	-6.735664
-38.533908	-5.295105
-35.904023	-4.979021
-33.270546	-0.746154
-30.642131	-0.248252
-28.014450	0.649650
-25.385340	-2.741259
-22.761287	-30.902797
-20.133645	-112.183217
-17.511056	-271.113287
-14.889199	-427.259441
-12.268072	268.806993
-9.647675	1505.858042
-7.030167	2523.500699
-4.411230	3234.237762
-1.795178	3633.646154
0.820145	3720.746853
3.434741	3494.407692
6.046454	2964.262238
8.659596	2151.759441
11.267704	1120.160839
13.879394	61.361538
16.486053	-626.574126
19.094140	-393.616783
21.701503	-33.805594
24.303841	5.225874
26.909757	7.007692
29.510651	3.490210
32.112973	0.862238
34.710278	-3.240559
37.311158	-3.323776
39.907023	-3.390210
42.504317	-6.874126
45.100891	-9.093706
47.692456	-7.596503
50.285449	-7.693007
52.875581	-5.813986
55.467141	-6.035664
58.055841	-3.079720
60.645968	-4.421678
63.231096	-4.512587
65.817652	-2.151049
68.403494	-4.350350
70.986482	-4.967832
73.570896	-2.969930
76.148182	-2.718881
78.729034	-2.637063
81.307037	-1.233566
83.884330	1.393706
86.463049	1.347552
89.036786	3.963636
91.611951	3.195105
94.184272	0.083916
96.755885	0.235664
99.324658	-3.297902
101.894858	-2.649650
104.462220	-2.603497
107.031007	-6.077622
109.596958	-3.693706
112.160074	-3.029371
114.726746	-4.332168
117.284197	-6.340559
119.847333	-4.363636
122.405509	-3.563636
124.967240	-2.939860
127.524014	2.774126
130.082215	10.511189
132.635462	22.069231
135.188012	33.693007
137.744112	42.962937
140.295264	54.571329
142.845719	63.976224
145.395476	73.598601
147.942414	83.798601
150.488657	91.148951
153.036325	94.814685
155.583297	98.827273
158.125334	99.620280
160.666677	98.819580
163.207327	96.677622
165.749403	96.144755
168.288667	92.553147
170.825123	89.834965
173.360887	90.560140
175.898077	94.732867
178.434576	95.894406
180.968269	94.813287
183.499158	94.100000
186.029360	95.195105
188.560986	96.526573
191.089811	96.013986
193.615837	94.962238
196.141177	97.044755
198.667942	96.939161
201.191911	95.960140
203.715195	97.224476
206.237794	98.164336
208.757600	96.827273
211.276723	96.181119
213.795163	95.195804
216.315027	96.690210
218.827890	97.837762
221.344284	99.180420
223.859996	100.395105
226.370818	101.779720
228.883065	101.268531
231.392530	100.168531
233.901316	102.017483
236.409423	101.783217
238.918955	102.430070
241.423606	101.951049
243.927581	100.844755
246.432980	99.824476
248.933504	97.235664
251.437552	97.880420
253.934628	96.743357
256.435228	96.539161
258.933056	94.796503
261.430211	95.938462
263.926693	99.074126
266.418312	100.029371
268.913451	102.199301
271.405823	103.573427
273.897525	106.947552
276.386464	108.079720
278.876827	108.679720
281.364427	109.404895
283.849268	110.704895
286.337624	112.730070
288.819040	113.653147
291.303970	114.114685
293.784055	115.422378
296.267652	115.575524
298.746406	116.135664
301.226584	116.681119
303.704009	117.354545
306.180771	117.162937
308.656870	118.310490
311.130220	124.095105
313.602908	130.258741
316.074935	135.550350
318.546301	140.312587
321.014922	140.825874
323.482885	143.655245
325.952269	143.076923
328.416831	141.216084
330.884897	137.112587
333.348143	130.524476
335.810731	125.088112
338.272663	121.762238
340.733938	121.993007
343.192479	119.866434
345.652442	118.710490
348.109672	120.509091
350.566248	121.568531
353.022170	124.451748
355.475362	125.672727
357.929977	127.781818
360.379790	127.518182
362.833099	125.836364
365.281610	124.571329
367.729469	126.059441
370.178751	124.238462
372.623239	122.441259
375.069149	121.741958
377.514409	123.860140
379.956951	125.504196
382.398845	126.507692
384.840092	127.012587
387.278623	128.074126
389.718576	126.686014
392.155815	123.913986
394.590342	123.714685
397.028357	124.332168
399.461595	122.365035
401.896254	121.696503
404.326141	122.490909
406.759513	122.724476
409.188115	125.144056
411.616075	126.695804
414.045457	129.311189
416.470073	131.657343
418.896111	131.488811
421.321508	134.071329
423.746265	135.669231
426.166264	134.692308
428.587684	132.713287
431.006407	133.797902
433.426551	133.563636
435.844000	131.183916
438.262869	131.117483
440.679045	127.231469
443.090473	126.698601
445.505379	126.300000
447.917594	125.707692
450.329175	128.650350
452.740122	127.486014
455.148383	125.655944
457.556011	122.867832
459.963007	121.583217
462.369372	116.531469
464.773054	117.232867
467.176106	114.597902
469.578528	114.541259
471.980320	117.597203
474.379435	119.520979
476.779969	121.802098
479.179874	125.920979
481.575056	127.727273
483.973705	127.811189
486.367634	123.528671
488.760937	117.687413
491.153614	112.630070
493.545666	112.667832
495.939136	106.830769
498.327894	105.302797
500.713986	101.232867
503.101498	97.144755
505.488387	93.997203
507.872612	89.502098
510.258255	85.809091
512.641237	82.827273
515.021558	81.002797
517.403298	76.172028
519.782379	72.529371
522.162879	73.283916
524.540721	73.234266
526.915908	71.461538
529.290477	71.943357
531.666464	70.365734
534.039799	69.459441
536.414551	66.845455
538.784618	67.869231
541.154069	67.171329
543.524938	69.820280
545.891127	67.625874
548.258734	66.348951
550.623695	68.124476
552.988043	65.826573
555.351778	61.376923
557.716931	61.286014
560.077412	58.568531
562.439311	58.574825
564.798569	56.511189
567.155190	55.758042
569.515255	57.038462
571.868629	60.419580
574.225448	59.639161
576.579632	59.409091
578.933208	61.416084
581.286175	59.272028
583.636510	62.405594
585.988263	64.813287
588.333339	64.570629
590.683879	64.051748
593.027745	63.913287
595.377073	63.923077
597.721752	67.352448
600.063807	64.625175
602.407279	63.052448
604.748128	61.614685
607.088375	60.556643
609.426001	59.011888
611.767062	61.206294
614.103485	59.106993
616.441325	55.274126
618.776548	52.697203
621.109155	53.311189
623.443178	54.245455
625.774587	53.972028
628.105398	52.786014
630.435612	53.844056
632.765227	52.018881
635.090220	49.330769
637.420653	49.377622
639.746466	47.890210
642.069671	47.474126
644.394293	47.727972
646.716309	49.352448
649.037731	49.816783
651.356551	51.209790
653.676786	51.242657
655.996428	52.280420
658.313469	51.983217
660.629918	50.710490
662.943769	44.696503
665.259036	42.758741
667.571706	39.575524
669.885791	38.695105
672.195276	39.676923
674.506177	39.669231
676.814485	36.632867
679.122205	38.251049
681.431339	39.387413
683.735881	40.684615
686.039837	42.741958
688.343207	45.126573
690.647991	44.523077
692.948189	45.157343
695.249801	44.381119
697.550829	45.827273
699.847274	48.036364
702.145135	47.406294
704.442412	46.596503
706.739106	47.297203
709.031224	43.935664
711.326753	41.590909
713.617708	40.448252
715.910078	39.653846
718.199873	40.176923
720.489087	38.520280
722.777722	39.551748
725.063784	42.289510
727.351261	42.390909
729.636166	44.616084
731.920494	47.667832
734.202253	46.397203
736.485426	44.777622
738.768022	44.161538
741.046062	42.702797
743.325517	43.337063
745.604395	45.353846
747.882699	46.134965
750.156453	47.160140
752.431620	47.746853
754.706214	49.053147
756.978249	51.930769
759.251697	49.954545
761.522587	47.288112
763.790921	46.317483
766.060668	43.195105
768.327861	40.363636
770.594483	42.641259
772.860535	45.004196
775.124036	45.529371
777.388950	48.355944
779.653294	51.855944
781.913109	54.947552
784.174336	55.137762
786.434996	52.520979
788.693110	49.395804
790.948679	46.641259
793.207639	44.724476
795.460100	42.332168
797.717927	41.549650
799.971236	41.639860
802.222005	38.426573
804.474186	41.655245
806.723828	42.549650
808.974883	42.000699
811.221426	40.833566
813.469381	38.865035
815.714802	39.344056
817.961634	41.247552
820.207905	42.305594
822.449671	41.193706
824.694821	41.565734
826.933498	44.246154
829.175557	45.338462
831.413118	50.009790
833.652091	53.152448
835.888537	53.534965
838.126394	50.193706
840.361726	51.935664
842.594535	52.841259
844.828755	46.976923
847.060452	43.147552
849.291595	38.430070
851.522183	35.067832
853.752217	35.046853
855.981697	36.483217
858.206695	38.385315
860.435068	39.404895
862.658961	39.739161
864.884266	36.802098
867.105095	37.766434
869.329296	35.453147
871.549024	33.713986
873.770162	35.424476
875.990750	34.832867
878.208829	36.574126
880.428317	39.486014
882.643339	40.120280
884.857814	41.618881
887.071740	42.809091
889.285120	42.723077
891.497952	37.972028
893.710238	32.152448
895.920021	31.466434
898.129259	30.990210
900.337952	31.809790
902.544146	31.005594
904.751749	30.436364
906.956854	31.360839
909.161416	36.707692
911.363483	43.639161
913.566959	46.941259
915.767941	46.060839
917.968381	44.161538
920.170230	42.233566
922.365688	42.220280
924.564505	43.848252
926.758883	43.117483
928.956619	37.643357
931.149919	32.200699
933.344628	32.527273
935.536851	34.239161
937.728535	32.580420
939.919682	34.506993
942.108346	34.129371
944.296474	34.379720
946.482121	35.818182
948.671120	37.590210
950.855696	41.445455
953.039737	39.942657
955.227128	38.356643
957.406215	34.144056
959.588653	37.766434
961.770557	34.234965
963.949986	37.354545
966.126943	42.253846
968.305308	41.531469
970.485080	47.036364
972.658503	45.840559
974.835272	43.966434
977.007634	40.266434
979.181404	44.131469
981.350770	50.190210
983.523480	49.837762
985.693725	55.441259
987.863441	50.076224
990.032628	50.390909
992.197418	48.813287
994.365549	56.153147
996.529286	64.660839
998.694429	60.285315
1000.857113	57.051748
1003.019272	57.044755
1005.178974	67.343357
1007.338151	62.412587
1009.498735	64.172028
1011.656865	64.251049
1013.814470	57.943357
1015.971552	50.088112
1018.128110	50.213287
1020.280289	57.902797
1022.433875	57.953846
1024.586939	54.790909
1026.737554	54.337063
1028.889576	62.351049
1031.037224	62.687413
1033.188204	59.209091
1035.334813	72.368531
1037.480903	81.677622
1039.626475	87.317483
1041.773452	89.713287
1043.914140	99.426573
1046.058158	103.132168
1048.199735	93.993706
1050.340796	86.093007
1052.483261	79.410490
1054.619447	71.246154
1056.758958	56.548252
1058.894115	54.739860
1061.032596	44.852448
1063.166723	44.151049
1065.300337	36.563636
1067.435356	44.090909
1069.566025	53.345455
1071.698099	53.766434
1073.827744	48.220280
1075.956877	57.400000
1078.085498	58.780420
1080.213608	62.389510
1082.339292	69.506993
1084.464466	69.274126
1086.591044	64.084615
1088.713284	61.576923
1090.836929	55.965734
1092.956239	60.870629
1095.080779	62.867832
1097.199073	67.334965
1099.318772	72.183217
1101.436052	85.358741
1103.552826	87.665035
1105.669093	89.858042
1107.782944	90.571329
1109.898200	83.015385
1112.009132	76.055944
1114.123377	62.474825
1116.233301	53.732867
1118.344629	46.060140
1120.455452	50.754545
1122.561959	52.499301
1124.671776	48.307692
1126.777278	53.818182
1128.884183	57.983916
1130.984873	51.756643
1133.090775	49.969231
1135.192368	47.667133
1137.295364	42.072028
1139.397859	47.302098
1141.494147	47.058741
1143.595643	48.219580
1145.692835	56.034266
1147.789530	59.939860
1149.885726	56.516084
1151.981425	66.458042
1154.076625	67.976224
1156.169429	65.374126
1158.263636	66.961538
1160.351651	71.365035
1162.444864	64.388811
1164.531889	58.716084
1166.622213	49.440559
1168.708250	47.990210
1170.797584	43.156643
1172.880737	39.169930
1174.965292	29.385315
1177.051249	34.419580
1179.132924	35.325874
1181.216001	39.190909
1183.296692	37.259441
1185.376891	40.939860
1187.456599	39.120280
1189.535816	37.656643
1191.612651	45.277622
1193.687105	49.479720
1195.764850	44.959441
1197.838326	46.327273
1199.913202	49.756643
1201.983811	56.554545
1204.055821	54.058741
1206.125456	49.156643
1208.196491	43.000699
1210.267038	41.597902
1212.333324	41.744056
1214.401011	39.450350
1216.466326	37.356643
1218.533041	32.814685
1220.595500	32.193706
1222.661244	38.037762
1224.722734	42.309790
1226.785625	45.742657
1228.846148	44.540559
1230.906187	48.886713
1232.965744	49.455245
1235.022935	46.618182
1237.079645	47.902797
1239.133991	47.427972
1241.191619	39.962937
1243.246884	34.712587
1245.297908	39.841958
1247.350332	41.715385
1249.402276	40.748252
1251.451862	40.697902
1253.500969	43.366434
1255.549598	45.488811
1257.597748	43.145455
1259.645419	38.683217
1261.688860	35.560140
1263.735577	35.313986
1265.779940	34.572727
1267.823827	31.784615
1269.865362	40.227972
1271.904548	40.238462
1273.947007	39.933566
1275.985243	48.262238
1278.024878	54.235664
1280.064038	55.368531
1282.098979	51.480420
1284.135319	45.705594
1286.169315	41.000699
1288.204708	38.426573
1290.235889	42.244755
1292.268467	40.756643
1294.300574	44.253846
1296.330340	43.151049
1298.361504	41.006294
1300.388460	47.835664
1302.416814	49.355245
1304.440963	50.439860
1306.468378	43.772028
1308.491590	44.339161
1310.516200	43.702098
1312.538476	45.190909
1314.562149	48.667832
1316.583489	49.735664
1318.604361	45.687413
1320.624766	43.007692
1322.640978	36.875524
1324.658587	36.710490
1326.673868	37.591608
1328.692408	35.444755
1330.706759	29.907692
1332.718784	33.375524
1334.734066	35.319580
1336.745163	34.539161
1338.757657	33.779720
1340.765968	33.854545
1342.777534	30.918182
1344.783062	32.474126
1346.791845	31.727273
1348.796450	34.215385
1350.804309	38.698601
1352.811706	42.343357
1354.813072	41.953147
1356.815834	51.374126
1358.818137	49.882517
1360.819980	47.198601
1362.821363	50.486713
1364.820433	47.390210
1366.819044	46.482517
1368.817197	45.207692
1370.814891	37.802098
1372.808423	36.874126
1374.803351	35.220979
1376.797821	32.259441
1378.791835	29.154545
1380.783542	31.842657
1382.774794	30.307692
1384.763740	37.105594
1386.754081	43.183217
1388.743967	43.452448
1390.731549	46.786014
1392.718678	48.827273
1394.703505	45.418881
1396.689727	44.927972
1398.673649	37.154545
1400.657118	33.988811
1402.640134	31.172727
1404.620853	32.483217
1406.602966	36.767133
1408.582783	41.532867
1410.562148	42.267133
1412.537375	43.329371
1414.515840	45.874825
1416.492012	46.862937
1418.467735	41.939161
1420.443008	36.613986
1422.415990	31.730769
1424.388524	34.375524
1426.360610	34.038462
1428.332249	35.076923
1430.299759	36.849650
1432.272343	40.353147
1434.237122	42.720979
1436.206972	48.206294
1438.172699	49.081119
1440.139818	49.755944
1442.104654	46.720280
1444.065370	44.550350
1446.031154	44.620979
1447.990983	45.745455
1449.952206	48.042657
1451.914821	50.498601
1453.873321	47.680420
1455.831378	46.639161
1457.788994	49.527972
1459.746167	47.700699
1461.701065	41.973427
1463.657356	41.679021
1465.611372	37.912587
1467.564947	35.092308
1469.516250	38.428671
1471.468946	39.933566
1473.419369	49.530070
1475.369354	52.191608
1477.318900	45.919580
1479.266177	45.962238
1481.211186	42.989510
1483.157588	39.169231
1485.103552	38.515385
1487.049079	40.720979
1488.992340	40.557343
1490.935166	41.153846
1492.875728	44.139860
1494.817681	41.167133
1496.757372	44.546154
1498.696629	41.758741
1500.635450	36.716084
1502.572012	34.927972
1504.509965	31.662937
1506.445659	34.737063
1508.380920	36.445455
1510.313925	45.037762
1512.246497	45.464336
1514.178637	45.441958
1516.110345	45.103497
1518.039799	44.032867
1519.970644	48.366434
1521.901057	50.032168
1523.827398	51.687413
1525.755130	52.526573
1527.680611	50.522378
1529.605663	47.888112
1531.530286	50.569930
1533.454480	53.926573
1535.376426	49.127972
1537.299763	49.090909
1539.220853	49.446853
1541.139700	52.311189
1543.059935	54.813287
1544.977928	55.946853
1546.895494	64.133566
1548.810818	64.832168
1550.727532	62.160839
1552.640191	61.370629
1554.556054	70.362238
1556.469677	71.255245
1558.381062	78.692308
1560.293837	85.818881
1562.202562	94.313287
1564.112676	108.991608
1566.022367	121.089510
1567.931635	148.379720
1569.838669	181.727972
1571.743470	227.827273
1573.649660	274.983217
1575.553618	321.344056
1577.457155	363.992308
1579.360272	380.821678
1581.261159	380.748252
1583.163435	364.218182
1585.063483	331.329371
1586.964918	284.259441
1588.862320	228.206993
1590.759303	187.480420
1592.655868	148.058741
1594.553821	131.631469
1596.445939	111.341259
1598.341250	105.604895
1600.236144	99.538462
1602.128816	86.383916
1604.021071	82.954545
1605.911107	78.327273
1607.800727	70.451049
1609.689932	60.332168
1611.578722	51.505594
1613.465294	48.374126
1615.353254	43.402098
1617.237197	43.197902
1619.122527	41.752448
1621.007444	44.754545
1622.890147	41.844755
1624.774237	50.395105
1626.654315	57.395804
1628.535781	52.582517
1630.415036	55.837762
1632.295677	56.334266
1634.170514	57.197902
1636.050332	59.905594
1637.926146	62.506993
1639.801549	59.734965
1641.678338	54.386713
1643.549331	43.800699
1645.423505	41.848951
1647.293680	44.415385
1649.167037	38.555245
1651.038190	30.496503
1652.907141	33.898601
1654.777477	35.518881
1656.643821	43.823776
1658.511550	54.166434
1660.377080	53.091608
1662.243996	47.586014
1664.106923	46.516783
1665.971235	41.874825
1667.833351	39.058042
1669.695062	36.779720
1671.558159	33.814685
1673.419060	24.538462
1675.277769	28.251748
1677.136074	24.769930
1678.995764	33.195105
1680.849686	31.279720
1682.706782	28.662937
1684.563475	32.788811
1686.416191	38.392308
1688.272079	44.810490
1690.123993	52.030070
1691.975506	58.475524
1693.826618	70.673427
1695.677330	74.114685
1697.527641	78.809790
1699.375767	75.740559
1701.225278	65.606294
1703.069040	45.794406
1704.917751	44.223077
1706.760716	42.027972
1708.606848	38.596503
1710.449017	30.623776
1712.294352	32.454545
1714.133946	27.362937
1715.974924	41.641259
1717.817285	42.665734
1719.655690	41.809091
1721.495478	40.974825
1723.333091	39.923776
1725.170308	37.687413
1727.005352	45.003497
1728.841779	55.768531
1730.676034	57.392308
1732.509894	54.565734
1734.343360	53.062937
1736.172881	49.795105
1738.005560	54.804196
1739.834295	54.179021
1741.666187	45.851049
1743.494137	26.458741
1745.321696	23.248951
1747.148862	11.281818
1748.975637	9.715385
1750.802020	5.558741
1752.624467	12.474126
1754.450069	12.934266
1756.271736	13.501399
1758.094785	25.274126
1759.915672	26.977622
1761.736171	29.649650
1763.558051	26.672028
1765.374231	21.956643
1767.193563	37.162937
1769.008968	48.953846
1770.827523	45.809790
1772.642153	37.874126
1774.456396	51.402098
1776.270253	46.730070
1778.083723	53.835664
1779.895040	52.398601
1781.707737	35.255944
1783.520049	24.665734
1785.328443	17.942657
1787.138217	14.748252
1788.944077	17.751748
1790.753082	24.653846
1792.558174	17.834266
1794.364647	21.967133
1796.170736	27.641958
1797.972914	40.503497
1799.778237	52.892308
1801.579651	55.497902
1803.382445	53.115385
1805.181333	56.735664
1806.981602	56.348252
1808.781489	61.375524
1810.579234	66.690909
1812.376599	69.957343
1814.173584	58.439860
1815.970188	53.158042
1817.764653	50.720979
1819.560497	53.624476
1821.350686	46.413986
1823.145772	42.558741
1824.935206	48.111888
1826.727776	52.941259
1828.518211	56.470629
1830.306512	59.357343
1832.097948	56.639860
1833.883738	45.615385
1835.670908	38.739161
1837.455946	35.494406
1839.244118	35.550350
1841.028404	28.528671
1842.810560	28.957343
1844.594096	29.704895
1846.375503	42.248951
1848.158289	45.686713
1849.937194	57.517483
1851.717479	59.960140
1853.495637	58.415385
1855.275174	60.395804
1857.052586	62.102098
1858.827874	56.443357
1860.604540	49.383217
1862.379084	46.681119
1864.155006	44.452448
1865.925307	33.634965
1867.698736	30.927273
1869.470045	26.357343
1871.240983	24.712587
1873.013299	20.123776
1874.780001	24.285315
1876.549829	32.023776
1878.315793	30.248252
1880.084880	31.891608
1881.850106	37.186014
1883.614964	48.884615
1885.381199	47.317483
1887.143575	43.320979
1888.905584	38.798601
1890.667225	38.990909
1892.428500	36.927273
1894.189407	40.972028
1895.949948	49.427273
1897.708379	51.296503
1899.466444	49.683916
1901.222402	51.770629
1902.979736	53.628671
1904.736705	53.872727
1906.491567	48.339860
1908.244325	49.725874
1909.996718	47.048252
1911.750488	50.399301
1913.502154	48.539161
1915.251718	49.116783
1917.002657	49.960839
1918.753234	46.638462
1920.499971	42.937063
1922.248085	42.118881
1923.994099	40.207692
1925.741488	39.150350
1927.486780	37.058042
1929.229974	42.600699
1930.974543	42.568531
1932.717017	38.847552
1934.459130	42.819580
1936.200883	43.044755
1937.942276	37.358042
1939.681576	30.555944
1941.420517	27.301399
1943.159099	28.588811
1944.895590	32.230769
1946.631723	29.925175
1948.369230	32.813287
1950.102915	38.613287
1951.837975	40.810490
1953.570946	43.076923
1955.303561	50.467832
1957.035820	47.819580
1958.767722	46.491608
1960.497538	39.447552
1962.225269	42.072727
1963.954375	38.249650
1965.683126	36.536364
1967.409793	35.716084
1969.136106	39.604196
1970.863792	40.681818
1972.585942	41.709790
1974.311193	38.334965
1976.032637	33.524476
1977.757182	33.477622
1979.479646	30.339161
1981.198308	29.696503
1982.920068	30.269231
1984.638026	23.783217
1986.357357	18.905594
1988.072889	26.130769
1989.793241	32.728671
1991.509795	38.990909
1993.222552	38.464336
1994.938405	42.579720
1996.652186	43.466434
1998.365617	45.881818
2000.076977	43.265734
2001.789709	45.562238
2003.498651	42.978322
2005.210685	41.688112
2006.917211	36.455245
2008.626828	42.145455
2010.334379	43.094406
2012.041581	42.944755
2013.746718	40.139161
2015.451509	41.944056
2017.157671	38.690909
2018.860051	35.366434
2020.563802	34.344056
2022.265491	34.764336
2023.966835	37.459441
2025.667833	37.648951
2027.366770	37.844755
2029.067079	40.928671
2030.763613	42.281818
2032.461518	42.831469
2034.157364	41.504895
2035.856296	41.150350
2037.549742	40.571329
2039.244559	41.196503
2040.939034	43.233566
2042.629740	41.209790
2044.323530	40.865035
2046.013553	41.810490
2047.704947	40.346154
2049.394288	43.391608
2051.084999	45.072028
2052.771947	41.283217
2054.458556	37.886014
2056.146534	39.175524
2057.830753	35.240559
2059.516343	38.848252
2061.201593	42.705594
2062.884794	44.215385
2064.569366	45.371329
2066.248475	45.925175
2067.932369	50.196503
2069.610802	56.153147
2071.292313	51.724476
2072.970072	40.267133
2074.647495	33.855944
2076.326287	31.799301
2078.003037	28.979720
2079.677745	30.645455
2081.353822	32.962238
2083.027859	26.265035
2084.701560	22.014685
2086.374926	22.743357
2088.046253	25.591608
2089.717246	30.560839
2091.387905	30.809091
2093.058230	28.716084
2094.728221	30.946154
2096.396176	39.937063
2098.063798	47.521678
2099.729385	46.232168
2101.396341	47.072727
2103.061264	39.267133
2104.725855	35.774126
2106.388414	29.297902
2108.052341	27.111189
2109.714237	29.434266
2111.375803	30.346154
2113.037037	27.472028
2114.696243	26.516783
2116.355118	30.262238
2118.013664	34.017483
2119.671880	34.303497
2121.326372	45.671329
2122.983929	48.547552
2124.641157	51.176923
2126.294663	51.638462
2127.949537	54.818182
2129.600692	51.970629
2131.254910	55.224476
2132.905411	54.653846
2134.557278	47.292308
2136.203737	46.109790
2137.854951	48.661538
2139.502451	50.472727
2141.151318	56.311189
2142.798166	53.074126
2144.444689	55.725175
2146.090886	52.998601
2147.733375	48.644056
2149.378922	46.125874
2151.020762	42.511888
2152.665659	35.032168
2154.306850	28.893706
2155.947719	27.923776
2157.588263	28.021678
2159.226795	33.377622
2160.866693	36.266434
2162.502891	41.695804
2164.140455	49.867832
2165.777697	47.887413
2167.412929	47.923077
2169.047840	47.473427
2170.682428	38.686713
2172.316696	32.639161
2173.947270	33.333566
2175.580896	31.493706
2177.210830	33.878322
2178.842129	37.970629
2180.471423	40.413287
2182.100398	43.769930
2183.729053	41.146154
2185.357389	35.704196
2186.983723	31.232168
2188.609738	29.547552
2190.233751	28.019580
2191.859130	27.995105
2193.482508	34.333566
2195.107251	39.283916
2196.728313	41.283916
2198.349058	44.302098
2199.971168	52.842657
2201.591280	49.471329
2203.209395	46.926573
2204.827195	43.299301
2206.444680	42.350350
2208.061849	40.958042
2209.678703	41.027972
2211.295241	36.036364
2212.909787	40.344056
2214.522340	37.551748
2216.136257	35.378322
2217.748183	34.670629
2219.361472	40.385315
2220.972771	30.160839
2222.582080	24.905594
2224.192753	25.727273
2225.801437	26.557343
2227.409808	22.339161
2229.016193	25.174825
2230.623941	23.910490
2232.229702	28.425874
2233.835152	31.311189
2235.438617	33.505594
2237.043445	38.130070
2238.646289	45.066434
2240.247150	43.862238
2241.849374	44.701399
2243.449616	49.869231
2245.051220	40.765035
2246.649171	33.955944
2248.248485	37.081119
2249.845819	33.055245
2251.442845	33.109790
2253.041233	30.122378
2254.635972	27.938462
2256.228734	28.519580
2257.822859	30.587413
2259.418345	33.123776
2261.010186	36.308392
2262.601721	40.545455
2264.194618	36.314685
2265.782205	36.512587
2267.374488	39.187413
2268.961465	38.541958
2270.551469	36.003497
2272.136169	35.894406
2273.725563	36.374825
2275.309655	28.882517
2276.895107	35.835664
2278.478591	39.951049
2280.065100	43.023077
2281.647976	53.316084
2283.230549	53.698951
2284.812818	48.862238
2286.391457	43.691259
2287.973121	37.981119
2289.551156	35.136713
2291.132214	34.893706
2292.709645	26.332517
2294.285113	23.557343
2295.863603	22.819930
2297.438469	31.225175
2299.013034	35.984266
2300.587299	45.972028
2302.161263	44.702448
2303.734926	45.859441
2305.308290	46.619580
2306.878035	47.448252
2308.447481	61.151748
2310.019945	59.077622
2311.587135	58.960839
2313.157343	59.618182
2314.723936	51.603497
2316.291889	55.713986
2317.857886	48.060839
2319.423586	40.278322
2320.988988	35.218182
2322.552437	31.748252
2324.117245	28.285315
2325.678445	34.232168
2327.242659	46.348252
2328.801611	38.349650
2330.363578	39.683916
2331.923593	40.200699
2333.483314	39.311888
2335.041085	34.676923
2336.598561	34.000000
2338.155743	36.910490
2339.710977	36.658741
2341.265918	34.929371
2342.820564	33.569231
2344.374917	39.434266
2345.928977	40.941958
2347.482742	36.855245
2349.034564	43.925874
2350.584442	42.083217
2352.137328	40.129371
2353.684972	31.320979
2355.235623	25.444056
2356.782683	17.421678
2358.331101	15.260140
2359.879228	13.584615
2361.423766	18.976224
2362.969662	19.916084
2364.513620	24.156643
2366.058935	26.512587
2367.600665	38.822378
2369.143752	38.917483
2370.684903	43.983916
2372.225765	42.976224
2373.766338	40.288112
2375.306622	37.576923
2376.846617	44.153846
2378.383034	37.686014
2379.922452	39.260140
2381.458293	30.761538
2382.995490	27.760140
2384.529112	28.359441
2386.065734	32.290909
2387.600426	33.625874
2389.133188	39.868531
2390.665663	44.023776
2392.196210	48.706993
2393.729755	50.101399
2395.258089	46.976923
2396.787780	42.602797
2398.317184	44.627972
2399.846304	37.435664
2401.375139	31.476923
2402.898768	27.678322
2404.427033	11.531469
2405.950096	6.083916
2407.477792	5.079720
2408.998649	4.081119
2410.524139	7.931469
2412.046068	8.688811
2413.569353	10.852448
2415.090716	32.711189
2416.610160	46.725874
2418.130959	51.236364
2419.649840	52.884615
2421.168438	58.590210
2422.685119	47.513287
2424.203154	44.179021
2425.720908	38.725874
2427.235111	32.297203
2428.749033	32.032867
2430.262675	28.435664
2431.777672	36.021678
2433.289120	50.351049
2434.801923	55.718881
2436.312812	57.507692
2437.823423	51.248252
2439.332122	58.351049
2440.843807	54.632168
2442.351949	54.774825
2443.859813	43.703497
2445.367399	42.504196
2446.871444	47.413287
2448.378474	49.333566
2449.883597	54.174126
2451.388441	50.859441
2452.891379	58.636364
2454.394041	54.725874
2455.896426	49.352448
2457.396906	47.846853
2458.898739	43.496503
2460.398667	37.427273
2461.898320	25.245455
2463.397698	27.655245
2464.895173	25.660140
2466.390746	25.378322
2467.889299	26.811888
2469.384324	23.223077
2470.880701	26.076224
2472.373552	20.384615
2473.867756	21.637762
2475.361686	28.418881
2476.852092	28.050350
2478.345476	35.428671
2479.836962	43.898601
2481.326551	48.997902
2482.815868	47.365035
2484.303289	54.551049
2485.793686	53.265035
2487.280565	44.530769
2488.768795	38.635664
2490.253508	47.137762
2491.737952	45.742657
2493.223746	47.230070
2494.707649	38.903497
2496.192902	37.908392
2497.673022	46.842657
2499.156115	41.293706
2500.637317	43.513287
2502.118250	45.425874
2503.597294	33.731469
2505.076069	26.953147
2506.554576	23.055245
2508.032815	28.552448
2509.510785	18.061538
2510.985250	20.286014
2512.462685	22.025175
2513.936616	19.000699
2515.411897	28.983916
2516.886911	37.383916
2518.358425	49.765035
2519.831288	50.358741
2521.302269	45.606294
2522.774600	47.328671
2524.241817	54.323776
2525.712001	56.507692
2527.180304	53.101399
2528.648342	62.175524
2530.116115	64.797203
2531.583623	59.685315
2533.050866	58.842657
2534.514617	66.220979
2535.979718	68.173427
2537.442942	60.676224
2538.907516	56.970629
2540.368600	61.186014
2541.831034	56.093007
2543.293205	49.454545
2544.751890	41.022378
2546.215147	40.319580
2547.673307	39.295105
2549.132816	24.918182
2550.587231	21.891608
2552.046217	31.855944
2553.503331	34.867133
2554.958574	31.278322
2556.413555	27.983217
2557.866668	32.297203
2559.321129	30.139161
2560.773720	31.942657
2562.226052	37.620979
2563.676517	37.185315
2565.129937	43.432168
2566.578275	33.770629
2568.029569	39.006993
2569.478996	42.809790
2570.924951	34.651748
2572.373861	29.704895
2573.819301	18.710490
2575.266088	21.671329
2576.711013	20.215385
2578.155679	21.600000
2579.601693	39.169231
2581.044241	43.890210
2582.488136	50.942657
2583.928566	50.942657
2585.370343	55.953147
2586.810261	55.732168
2588.251526	48.951049
2589.689329	45.676224
2591.130082	38.374126
2592.565773	40.313287
2594.004413	40.624476
2595.441195	45.027972
2596.876122	45.086713
2598.313996	49.427972
2599.746813	51.909790
2601.180977	48.556643
2602.613287	45.348252
2604.046943	40.282517
2605.478746	32.597203
2606.910295	31.886713
2608.341592	36.212587
2609.771036	43.862937
2611.200228	47.230769
2612.627570	52.543357
2614.056257	53.672727
2615.484693	60.142657
2616.909681	58.546853
2618.336016	48.686014
2619.760502	48.597203
2621.186334	42.890909
2622.608722	42.037762
2624.032456	47.348252
2625.454343	51.328671
2626.875981	53.339161
2628.295773	48.981818
2629.716911	53.979720
2631.137799	54.562937
2632.555249	54.593007
2633.975638	51.109091
2635.392590	53.093007
2636.809293	55.110490
2638.225748	46.469930
2639.641955	43.697902
2641.057914	41.587413
2642.472032	37.752448
2643.885902	33.740559
2645.297934	27.911888
2646.711309	35.088112
2648.121255	40.445455
2649.534137	47.265035
2650.943590	53.537063
2652.352797	71.029371
2653.760168	75.031469
2655.170473	68.351049
2656.578943	65.302098
2657.985577	66.056643
2659.391966	72.226573
2660.796521	73.758741
2662.202420	76.082517
2663.606486	79.330070
2665.010307	81.575524
2666.413884	80.426573
2667.815630	85.648951
2669.218719	90.380420
2670.618390	83.500000
2672.019405	72.121678
2673.417004	66.493706
2674.817533	64.821678
2676.214646	70.394406
2677.613103	65.990210
2679.009733	67.952448
2680.406120	62.906993
2681.802265	66.454545
2683.196585	65.631469
2684.592246	75.489510
2685.984499	85.492308
2687.378094	91.356643
2688.769865	93.544056
2690.162979	93.819580
2691.554269	95.028671
2692.943736	90.553147
2694.332963	88.662937
2695.721951	90.960839
2697.112280	84.374825
2698.497626	86.394406
2699.885895	86.873427
2701.272344	94.413287
2702.658554	106.142657
2704.044525	111.516084
2705.427098	113.093706
2706.811013	120.535664
2708.194690	129.993007
2709.578128	128.912587
2710.958172	135.512587
2712.339556	137.944056
2713.719126	133.230070
2715.100036	130.747552
2716.479132	128.095105
2717.856414	128.074825
2719.235037	133.874126
2720.611847	132.243357
2721.988420	124.448252
2723.364758	128.407692
2724.739285	129.172028
2726.115152	126.776923
2727.487632	120.516783
2728.863028	113.047552
2730.233464	98.153147
2731.605241	89.274825
2732.976783	84.356643
2734.346517	84.603497
2735.717592	84.230070
2737.086858	69.323077
2738.455891	55.889510
2739.823118	53.969930
2741.190112	55.369930
2742.556872	62.675524
2743.923401	58.952448
2745.288124	55.560839
2746.652615	53.811189
2748.016875	53.787413
2749.380902	52.185315
2750.744698	56.318881
2752.105120	48.054545
2753.468452	40.866434
2754.826842	40.216783
2756.188142	38.925874
2757.546072	42.781818
2758.906910	49.222378
2760.265949	44.587413
2761.621619	46.622378
2762.980197	47.439161
2764.335408	44.917483
2765.690390	39.875524
2767.043576	35.724476
2768.399668	26.058042
2769.752395	25.027972
2771.104895	23.874825
2772.457166	22.041958
2773.810776	23.376923
2775.161024	26.748951
2776.509478	24.910490
2777.860838	30.524476
2779.208838	26.617483
2780.558176	38.865734
2781.905722	41.281119
2783.253042	39.065734
2784.600135	47.342657
2785.945437	51.290909
2787.290512	51.035664
2788.635362	51.634965
2789.979986	47.958042
2791.321258	45.373427
2792.663868	31.082517
2794.006252	23.811189
2795.348411	16.967832
2796.687221	30.692308
2798.028931	26.672028
2799.367293	28.647552
2800.706991	36.330769
2802.044905	33.775524
2803.381034	28.926573
2804.716939	34.027972
2806.054182	33.099301
2807.389641	28.895804
2808.724877	22.763636
2810.058330	25.790210
2811.393120	27.061538
2812.724570	32.395105
2814.058915	31.076923
2815.388362	30.341259
2816.719146	31.762937
2818.049708	26.507692
2819.378491	26.423776
2820.708610	38.646853
2822.036951	38.172028
2823.365071	40.762238
2824.691413	43.198601
2826.019092	45.918881
2827.343437	49.547552
2828.669119	45.770629
2829.993025	45.111189
2831.316712	35.395804
2832.641734	29.712587
2833.963426	18.663636
2835.284900	15.039860
2836.606155	20.467133
2837.927191	19.359441
2839.246454	21.236364
2840.567053	19.255245
2841.885881	29.916783
2843.204490	33.770629
2844.521328	36.362238
2845.837949	37.647552
2847.154353	30.281119
2848.468987	20.766434
2849.784957	10.044755
2851.097606	3.779021
2852.411590	6.362238
2853.725358	9.350350
2855.038909	9.065734
2856.350694	14.865035
2857.660712	31.569231
2858.972065	46.790909
2860.280103	59.392308
2861.589475	60.084615
2862.898633	61.546853
2864.207575	56.353147
2865.514753	49.119580
2866.820169	44.249650
2868.126919	39.912587
2869.431906	40.176923
2870.736680	28.041259
2872.039692	34.745455
2873.345585	39.702797
2874.646624	40.818881
2875.948997	40.595804
2877.249610	39.503497
2878.551557	42.102098
2879.853290	39.211189
2881.151720	34.165035
2882.451483	30.361538
2883.749489	30.050350
2885.047283	27.418881
2886.343321	24.965734
2887.640692	34.974126
2888.936307	27.054545
2890.231711	25.259441
2891.526904	32.881818
2892.818800	29.311888
2894.113572	25.914685
2895.405047	25.522378
2896.697855	24.739860
2897.990453	23.099301
2899.279757	21.454545
2900.570393	21.512587
2901.859278	31.970629
2903.149495	35.963636
2904.436421	36.864336
2905.724679	34.621678
2907.011188	32.044056
2908.297489	22.990210
2909.583581	13.527273
2910.867925	14.803497
2912.155140	13.636364
2913.437529	13.375524
2914.721250	4.342657
2916.003225	7.139161
2917.284992	15.820280
2918.565015	20.678322
2919.847907	28.184615
2921.129054	24.788811
2922.406919	24.900000
2923.687653	24.387413
2924.965106	20.379021
2926.242353	21.646154
2927.517858	25.407692
2928.796231	20.418881
2930.069790	11.170629
2931.346216	13.299301
2932.620901	10.541958
2933.893845	9.537762
2935.168121	20.365734
2936.440657	22.941259
2937.712988	28.705594
2938.982047	37.128671
2940.253971	41.415385
2941.524157	39.995105
2942.794139	45.014685
2944.063918	43.862238
2945.331961	36.941259
2946.598267	26.728671
2947.864372	11.472028
2949.131806	14.543357
2950.397506	16.175524
2951.663003	14.002797
2952.928298	20.250350
2954.190328	29.421678
2955.453688	34.032867
2956.716847	37.890210
2957.978274	40.323077
2959.241030	45.204895
2960.502054	43.942657
2961.761348	39.416084
2963.020442	32.639860
2964.279335	36.122378
2965.538028	35.422378
2966.796521	29.951748
2968.053285	27.531469
2969.309849	31.334266
2970.564686	29.922378
2971.820851	31.446853
2973.073762	20.769930
2974.328002	22.548951
2975.582043	20.907692
2976.834358	11.367133
2978.086474	8.133566
2979.336866	10.796503
2980.590113	21.256643
2981.838583	19.223776
2983.089908	16.469231
2984.337983	28.245455
2985.585862	25.537762
2986.833543	29.276923
2988.081027	27.700000
2989.326790	23.164336
2990.572357	17.198601
2991.819251	16.239860
2993.062901	23.585315
2994.307879	27.474126
2995.549613	35.540559
2996.794199	33.309091
2998.037066	27.033566
2999.276692	28.258042
3000.519168	19.932168
3001.758404	25.198601
3002.998968	31.486014
3004.237816	29.745455
3005.476468	30.355245
3006.713406	34.774126
3007.951670	41.251748
3009.188219	47.818881
3010.424575	47.053147
3011.660737	44.293706
3012.895185	40.799301
3014.129441	35.680420
3015.363503	31.777622
3016.595853	33.433566
3017.826491	39.444755
3019.059975	45.429371
3020.291747	45.237762
3021.521809	48.685315
3022.751679	57.090909
3023.979839	59.351748
3025.209325	56.204196
3026.437102	53.156643
3027.664688	48.565734
3028.893601	37.931469
3030.117771	27.509091
3031.344784	25.063636
3032.568573	22.103497
3033.793689	23.453147
3035.017098	19.721678
3036.240317	26.364336
3037.461831	33.532168
3038.686186	35.274126
3039.905806	40.802797
3041.126752	36.330769
3042.347509	31.786014
3043.566562	27.821678
3044.786940	23.147552
3046.004102	27.825175
3047.222590	27.075524
3048.439375	26.854545
3049.655973	28.674126
3050.872382	34.975524
3052.085579	35.935664
3053.301613	37.016783
3054.514435	34.223776
3055.730094	30.446154
3056.941030	18.141259
3058.153291	15.577622
3059.365366	11.390210
3060.577253	10.834965
3061.787444	12.076224
3062.997448	10.811189
3064.207266	13.602098
3065.415388	18.463636
3066.623325	16.888811
3067.829566	18.437063
3069.037132	17.893706
3070.243003	24.507692
3071.448690	18.325874
3072.654191	23.362937
3073.857999	30.165734
3075.063131	30.362238
3076.266570	33.114685
3077.468318	31.510490
3078.669881	31.860140
3079.871261	35.251748
3081.072457	25.348951
3082.271963	24.738462
3083.471286	16.341259
3084.671932	17.676923
3085.870888	13.980420
3087.066650	11.587413
3088.265241	9.983916
3089.460638	12.996503
3090.657358	13.614685
3091.850886	8.129371
3093.047242	8.855944
3094.241912	11.143357
3095.433391	1.641958
3096.629201	5.097902
3097.820318	0.608392
3099.012757	9.274126
3100.202009	11.163636
3101.394086	6.672028
3102.584480	9.699301
3103.771688	21.674126
3104.960219	20.901399
3106.150071	17.979021
3107.336740	22.110490
3108.523228	26.117483
3109.709538	26.923077
3110.897169	29.834266
3112.081618	26.338462
3113.264388	29.269930
3114.449980	21.937762
3115.633893	15.148951
3116.816127	14.976923
3117.998182	13.565035
3119.180059	10.680420
3120.361758	8.356643
3121.541780	10.809091
3122.720125	17.854545
3123.901290	27.441259
3125.079280	30.969231
3126.257094	33.523077
3127.434730	30.437063
3128.610691	29.163636
3129.786475	27.920280
3130.963581	26.511888
3132.139012	26.524476
3133.312770	29.248951
3134.484855	24.113986
3135.658262	22.328671
3136.831492	28.175524
3138.003051	38.131469
3139.175930	41.977622
3140.345642	40.440559
3141.516675	32.301399
3142.686038	32.729371
3143.853730	23.513986
3145.024238	18.230769
3146.190088	21.902797
3147.360246	23.979720
3148.525748	22.016084
3149.691075	22.597902
3150.856229	28.027273
3152.021210	32.193007
3153.187510	32.820979
3154.349158	33.278322
3155.512125	29.809790
3156.674920	24.516783
3157.837542	21.206993
3158.998499	21.436364
3160.159283	23.102797
3161.319895	21.020979
3162.478843	19.425874
3163.637620	18.362937
3164.796225	17.939860
3165.954657	15.730769
3167.112919	12.571329
3168.269518	13.141958
3169.424456	10.462238
3170.580713	16.673427
3171.735309	23.837762
3172.889735	22.850350
3174.042501	21.525175
3175.195096	23.401399
3176.347522	23.958042
3177.499778	27.129371
3178.651863	27.589510
3179.800803	22.610490
3180.952549	22.124476
3182.102637	27.853846
3183.251069	35.118881
3184.399331	42.962238
3185.547425	41.942657
3186.695350	38.660140
3187.841619	31.353147
3188.987720	26.794406
3190.132167	19.036364
3191.276446	15.690909
3192.420557	9.598601
3193.565985	5.936364
3194.708275	4.111888
3195.850398	8.132867
3196.992353	18.653846
3198.134141	23.023077
3199.275762	29.019580
3200.414248	27.751049
3201.554051	18.914685
3202.695172	16.383217
3203.833158	15.235664
3204.969495	11.722378
3206.105666	5.157343
3207.243154	4.472727
3208.378994	2.333566
3209.516151	4.391608
3210.648695	7.511189
3211.785521	8.276923
3212.917735	13.006294
3214.051266	11.595804
3215.184633	13.941259
3216.314872	25.165734
3217.447909	30.731469
3218.577820	29.199301
3219.709047	24.826573
3220.837150	27.107692
3221.968049	23.358042
3223.097304	16.423077
3224.224916	11.367832
3225.349405	11.045455
3226.478170	12.372727
3227.603813	15.201399
3228.729294	24.704196
3229.853133	28.817483
3230.979766	28.003497
3232.101802	24.989510
3233.225154	25.352448
3234.348344	27.520979
3235.471372	24.525175
3236.592760	24.368531
3237.713986	25.439860
3238.833575	30.350350
3239.953002	30.202797
3241.070791	32.292308
3242.191372	29.714685
3243.308840	26.473427
3244.426147	30.494406
3245.543294	31.412587
3246.658805	32.939161
3247.775630	27.537762
3248.889346	29.640559
3250.005851	28.744755
3251.120722	30.907692
3252.232484	30.082517
3253.344086	27.474126
3254.457004	30.748252
3255.569762	34.032867
3256.679414	40.153846
3257.790381	42.220280
3258.901189	39.127273
3260.010365	34.555245
3261.117911	27.891608
3262.226770	29.704895
3263.335472	24.351049
3264.441071	25.010490
3265.547984	19.217483
3266.653268	22.879021
3267.759866	22.058042
3268.863364	22.021678
3269.968177	20.225175
3271.072832	22.026573
3272.174388	23.511888
3273.275788	21.408392
3274.378502	19.531469
3275.481060	22.344755
3276.580521	23.058741
3277.682766	28.897203
3278.781915	23.871329
3279.879440	25.269231
3280.976809	22.111888
3282.076960	20.565734
3283.174019	26.053846
3284.270922	33.404196
3285.367670	27.144056
3286.459860	21.707692
3287.556298	14.309091
3288.651114	9.916084
3289.745776	11.179720
3290.838816	12.225874
3291.931701	7.583217
3293.022967	7.366434
3294.115544	11.975524
3295.206502	5.768531
3296.295840	15.753147
3297.385025	13.205594
3298.475523	5.193007
3299.562936	5.832867
3300.650196	-0.753846
3301.738769	-0.922378
3302.827190	3.154545
3303.911063	4.744755
3304.999178	6.799301
3306.084211	6.056643
3307.167629	18.910490
3308.252359	19.471329
3309.335473	28.522378
3310.419900	25.844056
3311.501248	22.327273
3312.583908	22.735664
3313.664954	18.760140
3314.745849	18.346154
3315.825130	21.938462
3316.904261	22.286014
3317.984704	24.532867
3319.062072	24.867832
3320.140752	29.972727
3321.217820	26.051049
3322.294739	22.862238
3323.370046	19.374825
3324.445204	12.104895
3325.521673	10.747552
3326.595072	8.730070
3327.668322	10.021678
3328.742882	12.193007
3329.815834	14.696503
3330.887177	16.369930
3331.959831	9.448252
3333.029419	11.415385
3334.100317	11.561538
3335.169608	15.086713
3336.240210	19.416084
3337.309205	26.074126
3338.376594	34.032867
3339.442378	39.423776
3340.512388	36.927273
3341.579335	34.027273
3342.643220	25.782517
3343.709873	16.683916
3344.774921	15.002098
3345.838366	19.327273
3346.901665	13.336364
3347.964817	7.941958
3349.027823	6.212587
3350.090683	8.079720
3351.151941	13.734965
3352.210142	10.859441
3353.272563	2.152448
3354.331929	-1.342657
3355.391149	-5.417483
3356.451679	4.671329
3357.507699	14.913287
3358.566483	18.120979
3359.620760	15.396503
3360.677801	11.713986
3361.733243	14.487413
3362.789995	9.736364
3363.845148	9.060140
3364.898704	5.197203
3365.950664	4.197902
3367.005385	2.346853
3368.057057	5.784615
3369.108586	11.386713
3370.161423	11.474825
3371.211213	11.037762
3372.262312	10.709091
3373.310365	12.439860
3374.361177	9.025175
3375.408945	4.948951
3376.456570	3.092308
3377.504052	-0.266434
3378.549942	-7.074126
3379.597140	-9.634965
3380.641296	-6.416783
3381.688210	-3.366434
3382.733532	5.063636
3383.775813	15.308392
3384.817954	21.064336
3385.861402	26.253147
3386.904709	21.908392
3387.946427	21.583916
3388.988003	16.907692
3390.029438	10.388811
3391.069285	5.725874
3392.107543	9.734266
3393.147109	13.160140
3394.186535	16.027972
3395.224373	18.876224
3396.260624	18.737063
3397.296736	13.420979
3398.334155	13.697203
3399.368541	10.674825
3400.404234	14.757343
3401.439788	13.644056
3402.472311	12.700699
3403.507587	12.560140
3404.539832	15.109091
3405.571939	20.537762
3406.602462	18.409091
3407.634292	17.734266
3408.665984	14.376923
3409.694648	11.349650
3410.723175	15.832867
3411.753008	18.332867
3412.782704	25.923776
3413.809374	22.751748
3414.837351	18.567832
3415.862303	19.667832
3416.890005	17.358042
3417.914684	18.635664
3418.940669	13.530769
3419.965074	15.910490
3420.989343	10.030769
3422.012033	5.927972
3423.034587	16.512587
3424.058447	16.230769
3425.079287	22.259441
3426.099991	25.199500
3427.122002	27.338262
3428.140994	28.440060
3429.159850	28.269231
3430.180013	26.590110
3431.197159	23.167033
