-118.059454	9.936813
-115.389854	4.201099
-112.723189	0.282717
-110.057276	-2.098402
-107.394295	-3.222328
-104.729885	-3.369131
-102.068405	-2.818881
-99.405496	-1.694406
-96.747693	-2.434965
-94.088461	-1.346853
-91.429977	-1.274825
-88.774417	-1.511189
-86.117429	0.030070
-83.465539	1.495804
-80.812218	2.997902
-78.161818	4.361538
-75.509988	6.042657
-72.863249	6.760839
-70.215081	6.991608
-67.567655	8.053846
-64.923143	4.813986
-62.277203	6.692308
-59.636344	4.774126
-56.994056	4.975524
-54.354677	7.504895
-51.713868	8.111189
-49.073800	12.529371
-46.438804	14.941958
-43.802380	15.862238
-41.168858	16.820979
-38.533908	20.542657
-35.904023	24.958741
-33.270546	27.877622
-30.642131	33.761538
-28.014450	32.655944
-25.385340	20.646154
-22.761287	-48.463636
-20.133645	-311.627972
-17.511056	-899.411888
-14.889199	-1423.781119
-12.268072	602.033566
-9.647675	4580.090909
-7.030167	7911.673427
-4.411230	10264.121678
-1.795178	11617.950350
0.820145	11973.701399
3.434741	11330.009091
6.046454	9707.913287
8.659596	7145.304196
11.267704	3826.389510
13.879394	356.632867
16.486053	-1907.523776
19.094140	-1335.142657
21.701503	-109.685315
24.303841	34.461538
26.909757	37.932168
29.510651	30.544056
32.112973	27.610490
34.710278	24.104196
37.311158	24.311888
39.907023	21.195804
42.504317	20.998601
45.100891	19.100000
47.692456	15.811888
50.285449	15.280420
52.875581	10.721678
55.467141	10.990210
58.055841	7.479720
60.645968	3.613986
63.231096	3.504196
65.817652	2.449650
68.403494	4.137063
70.986482	5.158042
73.570896	7.290909
76.148182	9.746853
78.729034	8.332168
81.307037	12.124476
83.884330	10.281818
86.463049	11.814685
89.036786	6.259441
91.611951	6.453846
94.184272	6.753846
96.755885	4.441958
99.324658	5.669231
101.894858	4.895105
104.462220	5.648252
107.031007	5.083916
109.596958	5.164336
112.160074	8.027972
114.726746	8.981119
117.284197	11.827273
119.847333	13.281818
122.405509	20.155245
124.967240	29.590210
127.524014	43.781818
130.082215	67.435664
132.635462	95.660839
135.188012	128.764336
137.744112	164.578322
140.295264	201.216084
142.845719	234.465035
145.395476	266.698601
147.942414	291.381119
150.488657	308.069231
153.036325	316.366434
155.583297	314.700699
158.125334	312.185315
160.666677	308.209091
163.207327	302.290909
165.749403	298.037063
168.288667	296.586014
170.825123	293.174126
173.360887	294.334965
175.898077	298.887413
178.434576	302.563636
180.968269	303.796503
183.499158	304.605594
186.029360	299.176923
188.560986	296.935664
191.089811	297.381119
193.615837	296.224476
196.141177	300.995804
198.667942	301.518182
201.191911	300.952448
203.715195	301.279021
206.237794	301.493706
208.757600	300.504895
211.276723	300.227273
213.795163	299.055245
216.315027	295.493007
218.827890	296.691608
221.344284	299.823776
223.859996	299.763636
226.370818	303.018881
228.883065	303.165734
231.392530	305.196503
233.901316	307.430769
236.409423	309.397203
238.918955	312.653147
241.423606	320.649650
243.927581	318.572028
246.432980	317.708392
248.933504	318.646853
251.437552	317.969231
253.934628	317.993706
256.435228	317.811888
258.933056	319.895105
261.430211	322.458042
263.926693	327.210490
266.418312	330.813986
268.913451	335.583217
271.405823	344.095804
273.897525	342.799301
276.386464	345.979720
278.876827	351.937063
281.364427	354.523077
283.849268	356.050350
286.337624	354.167133
288.819040	352.777622
291.303970	353.399301
293.784055	354.265734
296.267652	353.018881
298.746406	351.817483
301.226584	354.196503
303.704009	354.016084
306.180771	361.553846
308.656870	375.313986
311.130220	396.169231
313.602908	417.853846
316.074935	439.353846
318.546301	449.919580
321.014922	459.071329
323.482885	461.671329
325.952269	454.542657
328.416831	441.809790
330.884897	424.458042
333.348143	406.558042
335.810731	395.361538
338.272663	387.198601
340.733938	390.592308
343.192479	390.694406
345.652442	392.879021
348.109672	392.286713
350.566248	392.884615
353.022170	391.669231
355.475362	388.911189
357.929977	387.737762
360.379790	386.908392
362.833099	387.550350
365.281610	386.199301
367.729469	383.791608
370.178751	383.318182
372.623239	381.181818
375.069149	380.255245
377.514409	382.669231
379.956951	380.520979
382.398845	377.831469
384.840092	377.856643
387.278623	381.171329
389.718576	381.309790
392.155815	383.955245
394.590342	384.199301
397.028357	384.230070
399.461595	383.106993
401.896254	383.953846
404.326141	384.086713
406.759513	385.873427
409.188115	387.413287
411.616075	387.087413
414.045457	389.822378
416.470073	393.362937
418.896111	394.253147
421.321508	398.404196
423.746265	398.444755
426.166264	398.356643
428.587684	398.204895
431.006407	398.618881
433.426551	396.925175
435.844000	393.164336
438.262869	389.388811
440.679045	388.237063
443.090473	389.441958
445.505379	388.654545
447.917594	388.976224
450.329175	391.080420
452.740122	391.508392
455.148383	388.184615
457.556011	382.688811
459.963007	380.126573
462.369372	375.362937
464.773054	367.676923
467.176106	363.151748
469.578528	365.432867
471.980320	365.167133
474.379435	362.041259
476.779969	365.618881
479.179874	370.291608
481.575056	371.915385
483.973705	370.759441
486.367634	368.216084
488.760937	368.291608
491.153614	361.448252
493.545666	350.625874
495.939136	342.588112
498.327894	332.424476
500.713986	317.858042
503.101498	302.634965
505.488387	294.834266
507.872612	282.183916
510.258255	273.370629
512.641237	264.634266
515.021558	256.617483
517.403298	248.960839
519.782379	239.766434
522.162879	230.644056
524.540721	228.972727
526.915908	225.190909
529.290477	221.809790
531.666464	219.501399
534.039799	219.264336
536.414551	215.555245
538.784618	217.167832
541.154069	212.446853
543.524938	213.220280
545.891127	210.823077
548.258734	208.893706
550.623695	204.409091
552.988043	203.206993
555.351778	200.660140
557.716931	198.441958
560.077412	195.511189
562.439311	194.426573
564.798569	194.762937
567.155190	194.711888
569.515255	191.322378
571.868629	193.509790
574.225448	195.095804
576.579632	194.820280
578.933208	192.209790
581.286175	191.362937
583.636510	193.051049
585.988263	192.740559
588.333339	191.127972
590.683879	191.923776
593.027745	192.786014
595.377073	191.225874
597.721752	187.895105
600.063807	184.238462
602.407279	184.189510
604.748128	181.144755
607.088375	176.716783
609.426001	176.294406
611.767062	176.398601
614.103485	174.655944
616.441325	173.030769
618.776548	174.414685
621.109155	173.939860
623.443178	173.181818
625.774587	172.302098
628.105398	169.467133
630.435612	167.690909
632.765227	165.208392
635.090220	166.740559
637.420653	166.541958
639.746466	166.003497
642.069671	166.966434
644.394293	166.874126
646.716309	169.075524
649.037731	165.965035
651.356551	163.472028
653.676786	159.458042
655.996428	154.442657
658.313469	150.901399
660.629918	148.493706
662.943769	149.172028
665.259036	148.430070
667.571706	149.748252
669.885791	151.183916
672.195276	150.178322
674.506177	153.086713
676.814485	150.497902
679.122205	149.769231
681.431339	148.610490
683.735881	148.012587
686.039837	148.278322
688.343207	145.146154
690.647991	144.696503
692.948189	145.873427
695.249801	147.994406
697.550829	147.251049
699.847274	145.214685
702.145135	146.483217
704.442412	143.096503
706.739106	144.235664
709.031224	142.727972
711.326753	142.848252
713.617708	142.138462
715.910078	140.202797
718.199873	140.581119
720.489087	143.410490
722.777722	145.199301
725.063784	145.896503
727.351261	147.567832
729.636166	147.701399
731.920494	146.681119
734.202253	146.145455
736.485426	143.554545
738.768022	143.008392
741.046062	138.630070
743.325517	138.074825
745.604395	140.141259
747.882699	140.974126
750.156453	142.474825
752.431620	146.122378
754.706214	148.931469
756.978249	151.013986
759.251697	154.031469
761.522587	153.809091
763.790921	155.104895
766.060668	152.782517
768.327861	150.543357
770.594483	156.432867
772.860535	159.307692
775.124036	163.502797
777.388950	166.188811
779.653294	169.296503
781.913109	171.102797
784.174336	174.212587
786.434996	172.355944
788.693110	171.264336
790.948679	171.184615
793.207639	166.839161
795.460100	162.193706
797.717927	159.397203
799.971236	158.024476
802.222005	159.258042
804.474186	157.325874
806.723828	158.865035
808.974883	153.368531
811.221426	159.646853
813.469381	159.993706
815.714802	165.749650
817.961634	165.635664
820.207905	161.134965
822.449671	149.791608
824.694821	146.233566
826.933498	146.657343
829.175557	144.748252
831.413118	145.164336
833.652091	147.791608
835.888537	144.881119
838.126394	149.235664
840.361726	150.823077
842.594535	154.216084
844.828755	150.362238
847.060452	144.288112
849.291595	141.005594
851.522183	140.509091
853.752217	137.472028
855.981697	138.218182
858.206695	140.171329
860.435068	142.204895
862.658961	139.446853
864.884266	144.490210
867.105095	150.192308
869.329296	158.411189
871.549024	160.032867
873.770162	158.059441
875.990750	156.951049
878.208829	152.630769
880.428317	146.805594
882.643339	143.632168
884.857814	141.126573
887.071740	138.651748
889.285120	134.267133
891.497952	132.213287
893.710238	135.492308
895.920021	141.091608
898.129259	141.451748
900.337952	140.896503
902.544146	137.184615
904.751749	134.187413
906.956854	129.988811
909.161416	125.620979
911.363483	131.240559
913.566959	137.520280
915.767941	136.416084
917.968381	142.228671
920.170230	149.818881
922.365688	154.226573
924.564505	158.202098
926.758883	151.988112
928.956619	150.569231
931.149919	145.158042
933.344628	141.344056
935.536851	135.320280
937.728535	144.083217
939.919682	148.040559
942.108346	148.336364
944.296474	153.881818
946.482121	152.472727
948.671120	155.204196
950.855696	158.591608
953.039737	149.548252
955.227128	152.513986
957.406215	154.655944
959.588653	158.776923
961.770557	160.012587
963.949986	163.237762
966.126943	168.207692
968.305308	170.517483
970.485080	176.034266
972.658503	177.160140
974.835272	182.212587
977.007634	194.726573
979.181404	197.846853
981.350770	204.275524
983.523480	210.890909
985.693725	217.142657
987.863441	207.534266
990.032628	213.907692
992.197418	220.155245
994.365549	224.993706
996.529286	218.095804
998.694429	211.981818
1000.857113	215.415385
1003.019272	225.672727
1005.178974	218.265734
1007.338151	212.008392
1009.498735	222.923776
1011.656865	231.916783
1013.814470	222.437762
1015.971552	236.589510
1018.128110	247.252448
1020.280289	244.901399
1022.433875	244.211189
1024.586939	235.669231
1026.737554	225.257343
1028.889576	219.487413
1031.037224	217.832867
1033.188204	228.503497
1035.334813	241.135664
1037.480903	244.634266
1039.626475	240.565035
1041.773452	254.669930
1043.914140	270.739161
1046.058158	272.448252
1048.199735	268.541958
1050.340796	253.876923
1052.483261	253.464336
1054.619447	251.341958
1056.758958	278.732168
1058.894115	283.688112
1061.032596	267.963636
1063.166723	265.417483
1065.300337	265.338462
1067.435356	256.916084
1069.566025	243.893007
1071.698099	225.237063
1073.827744	201.968531
1075.956877	200.151049
1078.085498	200.047552
1080.213608	196.474825
1082.339292	217.139161
1084.464466	222.698601
1086.591044	213.281119
1088.713284	220.102797
1090.836929	208.538462
1092.956239	184.366434
1095.080779	166.625874
1097.199073	140.600000
1099.318772	130.348951
1101.436052	135.430070
1103.552826	147.455245
1105.669093	158.596503
1107.782944	165.855245
1109.898200	174.232867
1112.009132	167.665734
1114.123377	162.537762
1116.233301	157.190210
1118.344629	168.562238
1120.455452	171.816084
1122.561959	171.324476
1124.671776	179.327972
1126.777278	194.630070
1128.884183	207.641259
1130.984873	205.451748
1133.090775	183.712587
1135.192368	169.102797
1137.295364	155.511189
1139.397859	139.937762
1141.494147	134.076923
1143.595643	153.555944
1145.692835	147.477622
1147.789530	147.900000
1149.885726	143.231469
1151.981425	150.014685
1154.076625	154.903497
1156.169429	152.588112
1158.263636	147.879021
1160.351651	152.076224
1162.444864	150.319580
1164.531889	134.174126
1166.622213	126.005594
1168.708250	130.188112
1170.797584	111.691608
1172.880737	103.828671
1174.965292	103.908392
1177.051249	115.892308
1179.132924	118.562238
1181.216001	125.501399
1183.296692	137.997902
1185.376891	145.565734
1187.456599	153.680420
1189.535816	158.220280
1191.612651	158.846154
1193.687105	158.935664
1195.764850	155.665734
1197.838326	150.930769
1199.913202	147.438462
1201.983811	145.641259
1204.055821	134.181818
1206.125456	130.892308
1208.196491	134.681119
1210.267038	144.297203
1212.333324	155.761538
1214.401011	158.779720
1216.466326	156.318881
1218.533041	162.909091
1220.595500	163.137063
1222.661244	165.331469
1224.722734	153.744755
1226.785625	145.016084
1228.846148	143.095804
1230.906187	141.342657
1232.965744	142.717483
1235.022935	147.122378
1237.079645	142.551748
1239.133991	133.011189
1241.191619	133.150350
1243.246884	127.840559
1245.297908	128.852448
1247.350332	132.244755
1249.402276	131.677622
1251.451862	131.499301
1253.500969	136.039860
1255.549598	136.709091
1257.597748	139.750350
1259.645419	140.521678
1261.688860	134.063636
1263.735577	130.309091
1265.779940	131.079021
1267.823827	123.084615
1269.865362	134.249650
1271.904548	131.338462
1273.947007	135.992308
1275.985243	137.233566
1278.024878	137.365734
1280.064038	134.778322
1282.098979	138.470629
1284.135319	135.105594
1286.169315	130.206993
1288.204708	139.089510
1290.235889	140.210490
1292.268467	142.857343
1294.300574	143.160140
1296.330340	142.683916
1298.361504	152.825874
1300.388460	151.562238
1302.416814	152.051049
1304.440963	141.584615
1306.468378	136.361538
1308.491590	135.047552
1310.516200	133.181119
1312.538476	134.016084
1314.562149	125.816084
1316.583489	123.468531
1318.604361	117.739860
1320.624766	122.429371
1322.640978	118.081818
1324.658587	109.540559
1326.673868	110.803497
1328.692408	105.355944
1330.706759	101.332168
1332.718784	109.988811
1334.734066	106.069930
1336.745163	107.509790
1338.757657	119.343357
1340.765968	126.895105
1342.777534	131.041259
1344.783062	126.620979
1346.791845	125.982517
1348.796450	123.067133
1350.804309	127.032867
1352.811706	130.590210
1354.813072	123.245455
1356.815834	125.308392
1358.818137	124.718182
1360.819980	134.721678
1362.821363	139.972727
1364.820433	133.737063
1366.819044	131.227273
1368.817197	127.937063
1370.814891	130.402098
1372.808423	129.081818
1374.803351	132.103497
1376.797821	134.728671
1378.791835	133.683217
1380.783542	141.041259
1382.774794	148.444056
1384.763740	150.480420
1386.754081	140.513287
1388.743967	134.643357
1390.731549	125.860839
1392.718678	116.001399
1394.703505	113.030070
1396.689727	107.721678
1398.673649	107.602098
1400.657118	110.874825
1402.640134	116.681818
1404.620853	123.766434
1406.602966	133.934266
1408.582783	139.753846
1410.562148	144.320979
1412.537375	141.544056
1414.515840	138.021678
1416.492012	138.375524
1418.467735	141.306294
1420.443008	139.474126
1422.415990	137.858741
1424.388524	135.095105
1426.360610	136.982517
1428.332249	127.136364
1430.299759	130.904196
1432.272343	128.555245
1434.237122	131.679720
1436.206972	130.574126
1438.172699	131.923776
1440.139818	132.629371
1442.104654	132.644056
1444.065370	136.258042
1446.031154	132.937762
1447.990983	135.104895
1449.952206	137.098601
1451.914821	134.897902
1453.873321	136.258042
1455.831378	137.306993
1457.788994	149.293007
1459.746167	148.502797
1461.701065	144.637762
1463.657356	146.127273
1465.611372	142.858042
1467.564947	142.816084
1469.516250	142.516783
1471.468946	146.790210
1473.419369	150.744755
1475.369354	156.489510
1477.318900	149.765734
1479.266177	153.182517
1481.211186	155.564336
1483.157588	141.722378
1485.103552	137.145455
1487.049079	129.589510
1488.992340	123.774126
1490.935166	133.345455
1492.875728	147.876923
1494.817681	150.254545
1496.757372	147.655245
1498.696629	153.351748
1500.635450	152.845455
1502.572012	156.108392
1504.509965	153.161538
1506.445659	149.613986
1508.380920	146.626573
1510.313925	145.408392
1512.246497	153.362937
1514.178637	157.935664
1516.110345	162.081119
1518.039799	155.353846
1519.970644	142.919580
1521.901057	149.597902
1523.827398	149.004895
1525.755130	157.024476
1527.680611	157.027273
1529.605663	157.534965
1531.530286	165.990210
1533.454480	167.585315
1535.376426	168.341958
1537.299763	158.002797
1539.220853	158.823077
1541.139700	158.072727
1543.059935	153.270629
1544.977928	163.242657
1546.895494	169.163636
1548.810818	183.914685
1550.727532	196.823077
1552.640191	206.222378
1554.556054	229.120979
1556.469677	236.867832
1558.381062	258.959441
1560.293837	275.057343
1562.202562	301.399301
1564.112676	337.532867
1566.022367	391.590909
1567.931635	471.642657
1569.838669	591.562238
1571.743470	738.413287
1573.649660	899.126573
1575.553618	1041.486014
1577.457155	1156.869930
1579.360272	1215.941958
1581.261159	1224.903497
1583.163435	1157.728671
1585.063483	1041.830070
1586.964918	889.123776
1588.862320	725.269930
1590.759303	574.506294
1592.655868	457.208392
1594.553821	378.315385
1596.445939	316.547552
1598.341250	280.558741
1600.236144	263.380420
1602.128816	242.881119
1604.021071	234.265734
1605.911107	216.189510
1607.800727	214.879021
1609.689932	212.790909
1611.578722	217.994406
1613.465294	219.616084
1615.353254	211.917483
1617.237197	217.523077
1619.122527	190.925175
1621.007444	186.009091
1622.890147	178.350350
1624.774237	154.667832
1626.654315	143.685315
1628.535781	141.458741
1630.415036	136.909091
1632.295677	150.458741
1634.170514	155.737762
1636.050332	156.503497
1637.926146	151.711189
1639.801549	159.820979
1641.678338	151.157343
1643.549331	163.780420
1645.423505	167.694406
1647.293680	154.507692
1649.167037	147.220280
1651.038190	141.745455
1652.907141	135.971329
1654.777477	145.793706
1656.643821	142.388112
1658.511550	136.021678
1660.377080	136.686713
1662.243996	131.123077
1664.106923	137.578322
1665.971235	137.627273
1667.833351	133.462238
1669.695062	121.148252
1671.558159	107.893007
1673.419060	111.181119
1675.277769	124.779720
1677.136074	123.583916
1678.995764	132.809091
1680.849686	125.827972
1682.706782	133.111189
1684.563475	123.160839
1686.416191	128.736364
1688.272079	114.285315
1690.123993	123.541958
1691.975506	111.289510
1693.826618	117.360140
1695.677330	147.181119
1697.527641	155.823077
1699.375767	156.739161
1701.225278	167.855245
1703.069040	157.481119
1704.917751	163.441958
1706.760716	160.716084
1708.606848	153.743357
1710.449017	145.802797
1712.294352	139.815385
1714.133946	120.611888
1715.974924	151.872028
1717.817285	165.628671
1719.655690	153.367832
1721.495478	151.267133
1723.333091	156.640559
1725.170308	157.864336
1727.005352	176.937762
1728.841779	169.605594
1730.676034	175.214685
1732.509894	158.400000
1734.343360	148.218881
1736.172881	152.076224
1738.005560	170.634266
1739.834295	168.525175
1741.666187	151.611189
1743.494137	156.006993
1745.321696	168.872028
1747.148862	183.834965
1748.975637	189.209091
1750.802020	163.583916
1752.624467	158.120280
1754.450069	146.087413
1756.271736	139.511189
1758.094785	132.213986
1759.915672	127.074825
1761.736171	129.296503
1763.558051	126.315385
1765.374231	141.414685
1767.193563	151.474825
1769.008968	150.010490
1770.827523	153.086014
1772.642153	151.183217
1774.456396	154.209091
1776.270253	152.898601
1778.083723	132.576923
1779.895040	124.010490
1781.707737	122.627273
1783.520049	126.184615
1785.328443	120.872727
1787.138217	138.161538
1788.944077	130.470629
1790.753082	132.511189
1792.558174	146.001399
1794.364647	156.536364
1796.170736	148.723077
1797.972914	134.638462
1799.778237	136.464336
1801.579651	139.811189
1803.382445	140.634266
1805.181333	131.862238
1806.981602	123.772727
1808.781489	135.427273
1810.579234	128.137063
1812.376599	120.268531
1814.173584	113.260140
1815.970188	128.006294
1817.764653	134.550350
1819.560497	148.851049
1821.350686	167.254545
1823.145772	155.293706
1824.935206	152.611888
1826.727776	144.400699
1828.518211	130.792308
1830.306512	119.237762
1832.097948	113.267832
1833.883738	108.361538
1835.670908	113.397902
1837.455946	133.037762
1839.244118	143.476224
1841.028404	159.518182
1842.810560	156.441958
1844.594096	143.271329
1846.375503	151.901399
1848.158289	141.705594
1849.937194	126.807692
1851.717479	119.941259
1853.495637	124.632867
1855.275174	135.734266
1857.052586	125.659441
1858.827874	126.977622
1860.604540	133.536364
1862.379084	145.737063
1864.155006	134.069930
1865.925307	137.205594
1867.698736	140.803497
1869.470045	136.448951
1871.240983	144.335664
1873.013299	147.245455
1874.780001	144.196503
1876.549829	143.903497
1878.315793	135.623776
1880.084880	127.639860
1881.850106	139.986014
1883.614964	141.433566
1885.381199	120.274126
1887.143575	118.493706
1888.905584	119.284615
1890.667225	132.302098
1892.428500	142.646154
1894.189407	139.760839
1895.949948	134.537762
1897.708379	136.019580
1899.466444	129.311189
1901.222402	122.362238
1902.979736	140.527273
1904.736705	141.790210
1906.491567	131.753147
1908.244325	133.347552
1909.996718	137.493706
1911.750488	148.968531
1913.502154	143.621678
1915.251718	141.016084
1917.002657	132.968531
1918.753234	136.350350
1920.499971	135.395804
1922.248085	142.876224
1923.994099	149.606294
1925.741488	153.967133
1927.486780	157.031469
1929.229974	152.369930
1930.974543	139.834965
1932.717017	134.346853
1934.459130	127.309790
1936.200883	120.826573
1937.942276	112.284615
1939.681576	118.056643
1941.420517	125.162238
1943.159099	125.659441
1944.895590	120.936364
1946.631723	128.086014
1948.369230	129.661538
1950.102915	116.079720
1951.837975	107.832168
1953.570946	112.003497
1955.303561	117.741259
1957.035820	107.886713
1958.767722	107.465035
1960.497538	113.522378
1962.225269	120.444755
1963.954375	121.874126
1965.683126	129.990210
1967.409793	141.249650
1969.136106	146.705594
1970.863792	141.910490
1972.585942	147.254545
1974.311193	146.732867
1976.032637	149.968531
1977.757182	136.695105
1979.479646	136.769930
1981.198308	133.918881
1982.920068	134.171329
1984.638026	138.414685
1986.357357	143.683916
1988.072889	145.886014
1989.793241	152.090909
1991.509795	158.000699
1993.222552	167.818881
1994.938405	163.158042
1996.652186	171.715385
1998.365617	171.864336
2000.076977	175.347552
2001.789709	166.088112
2003.498651	154.049650
2005.210685	145.713287
2006.917211	137.192308
2008.626828	131.680420
2010.334379	128.557343
2012.041581	126.406993
2013.746718	121.700000
2015.451509	112.174126
2017.157671	120.562937
2018.860051	122.988811
2020.563802	130.235664
2022.265491	122.811888
2023.966835	130.455944
2025.667833	139.196503
2027.366770	142.743357
2029.067079	153.155245
2030.763613	146.998601
2032.461518	154.351748
2034.157364	156.697902
2035.856296	155.020979
2037.549742	162.304196
2039.244559	157.089510
2040.939034	158.962937
2042.629740	147.848951
2044.323530	143.551748
2046.013553	136.246853
2047.704947	128.309790
2049.394288	126.023776
2051.084999	113.184615
2052.771947	113.658042
2054.458556	111.269231
2056.146534	121.917483
2057.830753	126.651748
2059.516343	123.995105
2061.201593	125.977622
2062.884794	122.217483
2064.569366	122.559441
2066.248475	126.866434
2067.932369	127.190909
2069.610802	126.576923
2071.292313	127.504895
2072.970072	128.186713
2074.647495	127.195804
2076.326287	132.438462
2078.003037	128.852448
2079.677745	131.987413
2081.353822	132.900000
2083.027859	134.786713
2084.701560	135.733566
2086.374926	139.707692
2088.046253	129.263636
2089.717246	132.070629
2091.387905	135.814685
2093.058230	121.197902
2094.728221	116.041259
2096.396176	112.308392
2098.063798	114.166434
2099.729385	117.525874
2101.396341	116.395105
2103.061264	112.039161
2104.725855	109.636364
2106.388414	117.040559
2108.052341	113.610490
2109.714237	126.200699
2111.375803	122.561538
2113.037037	124.074126
2114.696243	126.037762
2116.355118	127.037063
2118.013664	135.530070
2119.671880	135.452448
2121.326372	143.248252
2122.983929	144.100699
2124.641157	145.504895
2126.294663	148.360140
2127.949537	146.230070
2129.600692	147.153147
2131.254910	145.420979
2132.905411	154.452448
2134.557278	144.213287
2136.203737	139.485315
2137.854951	134.720280
2139.502451	134.644056
2141.151318	136.843357
2142.798166	134.441958
2144.444689	122.551748
2146.090886	113.637762
2147.733375	109.174126
2149.378922	111.229371
2151.020762	114.672028
2152.665659	119.279021
2154.306850	119.387413
2155.947719	111.875524
2157.588263	113.914685
2159.226795	123.441259
2160.866693	127.508392
2162.502891	128.230070
2164.140455	127.572727
2165.777697	125.944056
2167.412929	121.300000
2169.047840	117.611888
2170.682428	116.731469
2172.316696	120.084615
2173.947270	116.344755
2175.580896	110.157343
2177.210830	109.158042
2178.842129	115.933566
2180.471423	117.191608
2182.100398	111.416084
2183.729053	126.744755
2185.357389	119.967832
2186.983723	111.155944
2188.609738	111.653846
2190.233751	113.818182
2191.859130	123.692308
2193.482508	123.132168
2195.107251	124.948252
2196.728313	121.511189
2198.349058	123.841958
2199.971168	120.546853
2201.591280	128.156643
2203.209395	140.909091
2204.827195	132.171329
2206.444680	120.404196
2208.061849	120.744755
2209.678703	118.520280
2211.295241	118.735664
2212.909787	121.729371
2214.522340	108.540559
2216.136257	109.842657
2217.748183	103.925874
2219.361472	100.372028
2220.972771	115.038462
2222.582080	132.496503
2224.192753	139.252448
2225.801437	142.379021
2227.409808	148.415385
2229.016193	151.798601
2230.623941	139.252448
2232.229702	138.997902
2233.835152	130.626573
2235.438617	135.043357
2237.043445	131.299301
2238.646289	124.586014
2240.247150	129.753846
2241.849374	135.995804
2243.449616	136.763636
2245.051220	124.067832
2246.649171	124.765734
2248.248485	127.441958
2249.845819	113.344056
2251.442845	125.129371
2253.041233	126.907692
2254.635972	118.186713
2256.228734	127.042657
2257.822859	122.216783
2259.418345	122.373427
2261.010186	113.196503
2262.601721	107.737762
2264.194618	93.032867
2265.782205	99.558042
2267.374488	99.487413
2268.961465	108.550350
2270.551469	117.016084
2272.136169	104.099301
2273.725563	106.488112
2275.309655	119.305594
2276.895107	134.889510
2278.478591	144.203497
2280.065100	138.207692
2281.647976	142.162238
2283.230549	141.729021
2284.812818	140.043357
2286.391457	133.673077
2287.973121	140.449650
2289.551156	137.588462
2291.132214	130.288811
2292.709645	135.776573
2294.285113	125.767832
2295.863603	143.589161
2297.438469	141.574825
2299.013034	145.794056
2300.587299	157.025175
2302.161263	159.856294
2303.734926	158.574126
2305.308290	144.806294
2306.878035	144.380420
2308.447481	135.574126
2310.019945	129.509790
2311.587135	117.395804
2313.157343	109.103497
2314.723936	128.460140
2316.291889	121.472028
2317.857886	141.293007
2319.423586	152.671329
2320.988988	164.008392
2322.552437	171.822378
2324.117245	178.832867
2325.678445	179.788811
2327.242659	182.192308
2328.801611	185.641958
2330.363578	173.976923
2331.923593	165.218881
2333.483314	163.129371
2335.041085	140.842657
2336.598561	133.753846
2338.155743	132.845455
2339.710977	139.582517
2341.265918	139.790909
2342.820564	150.549650
2344.374917	167.825874
2345.928977	181.309091
2347.482742	174.695105
2349.034564	158.308392
2350.584442	151.065734
2352.137328	116.860839
2353.684972	98.660839
2355.235623	85.080420
2356.782683	84.365035
2358.331101	93.301399
2359.879228	104.273427
2361.423766	133.111189
2362.969662	158.461538
2364.513620	154.863636
2366.058935	165.027273
2367.600665	157.479021
2369.143752	141.397902
2370.684903	112.044056
2372.225765	109.534965
2373.766338	92.075524
2375.306622	78.518881
2376.846617	85.027273
2378.383034	85.403497
2379.922452	97.230070
2381.458293	111.006294
2382.995490	115.615385
2384.529112	139.263636
2386.065734	121.065035
2387.600426	123.599301
2389.133188	133.568531
2390.665663	129.900699
2392.196210	129.744056
2393.729755	130.411888
2395.258089	139.856643
2396.787780	150.241958
2398.317184	168.004196
2399.846304	181.504196
2401.375139	173.983916
2402.898768	172.933566
2404.427033	166.920280
2405.950096	179.395105
2407.477792	167.946154
2408.998649	146.836364
2410.524139	144.330070
2412.046068	135.735664
2413.569353	126.169930
2415.090716	117.081818
2416.610160	102.175524
2418.130959	97.898601
2419.649840	82.853147
2421.168438	95.116084
2422.685119	103.355245
2424.203154	109.402797
2425.720908	116.789510
2427.235111	128.260839
2428.749033	126.625874
2430.262675	129.083217
2431.777672	130.567133
2433.289120	134.670629
2434.801923	142.365734
2436.312812	146.311888
2437.823423	138.392308
2439.332122	151.113986
2440.843807	151.784615
2442.351949	149.719580
2443.859813	169.445455
2445.367399	150.328671
2446.871444	123.625874
2448.378474	121.559441
2449.883597	117.527972
2451.388441	122.179720
2452.891379	123.789510
2454.394041	132.851748
2455.896426	139.241259
2457.396906	148.625874
2458.898739	145.831469
2460.398667	124.206993
2461.898320	128.621678
2463.397698	115.571329
2464.895173	112.033566
2466.390746	107.825874
2467.889299	99.979021
2469.384324	109.490909
2470.880701	107.608392
2472.373552	129.764336
2473.867756	138.861538
2475.361686	142.817483
2476.852092	137.341259
2478.345476	129.038462
2479.836962	150.166434
2481.326551	159.337063
2482.815868	155.146154
2484.303289	132.788112
2485.793686	118.044056
2487.280565	109.548252
2488.768795	86.930070
2490.253508	105.439860
2491.737952	106.723776
2493.223746	114.302098
2494.707649	118.602797
2496.192902	129.000699
2497.673022	141.040559
2499.156115	137.094406
2500.637317	124.536364
2502.118250	95.744755
2503.597294	115.925175
2505.076069	108.707692
2506.554576	104.055944
2508.032815	119.019580
2509.510785	121.098601
2510.985250	127.941259
2512.462685	123.157343
2513.936616	121.313986
2515.411897	125.430769
2516.886911	129.521678
2518.358425	123.182517
2519.831288	118.047552
2521.302269	130.744755
2522.774600	129.223077
2524.241817	139.711189
2525.712001	141.030070
2527.180304	155.287413
2528.648342	146.466434
2530.116115	138.239161
2531.583623	143.664336
2533.050866	149.051748
2534.514617	162.850350
2535.979718	150.934266
2537.442942	138.409790
2538.907516	140.378322
2540.368600	143.671329
2541.831034	137.744755
2543.293205	124.263636
2544.751890	121.999301
2546.215147	111.403497
2547.673307	99.118881
2549.132816	101.639161
2550.587231	102.903497
2552.046217	117.781119
2553.503331	116.279021
2554.958574	131.231469
2556.413555	133.169930
2557.866668	131.101399
2559.321129	125.441958
2560.773720	123.263636
2562.226052	120.276224
2563.676517	119.053147
2565.129937	119.101399
2566.578275	142.111189
2568.029569	155.089510
2569.478996	166.863636
2570.924951	181.295804
2572.373861	182.588112
2573.819301	159.491608
2575.266088	142.444056
2576.711013	113.803497
2578.155679	93.655245
2579.601693	73.417483
2581.044241	61.830769
2582.488136	63.862238
2583.928566	70.509091
2585.370343	77.999301
2586.810261	88.664336
2588.251526	109.181818
2589.689329	113.448252
2591.130082	114.402098
2592.565773	116.168531
2594.004413	117.254545
2595.441195	129.077622
2596.876122	139.608392
2598.313996	147.520979
2599.746813	152.241958
2601.180977	150.859441
2602.613287	148.590210
2604.046943	130.819580
2605.478746	134.146853
2606.910295	121.765734
2608.341592	115.668531
2609.771036	121.906993
2611.200228	120.648951
2612.627570	128.118881
2614.056257	131.408392
2615.484693	132.072727
2616.909681	134.031469
2618.336016	133.535664
2619.760502	138.485315
2621.186334	136.383916
2622.608722	137.865035
2624.032456	126.781818
2625.454343	127.614685
2626.875981	153.372727
2628.295773	155.575524
2629.716911	160.825175
2631.137799	152.055245
2632.555249	153.433566
2633.975638	148.154545
2635.392590	152.532168
2636.809293	166.760140
2638.225748	154.981818
2639.641955	150.127273
2641.057914	158.490909
2642.472032	181.548951
2643.885902	201.789510
2645.297934	201.863636
2646.711309	207.837063
2648.121255	202.694406
2649.534137	214.806294
2650.943590	203.267133
2652.352797	186.968531
2653.760168	188.094406
2655.170473	180.627273
2656.578943	187.598601
2657.985577	211.221678
2659.391966	215.337762
2660.796521	222.082517
2662.202420	224.046154
2663.606486	227.125874
2665.010307	228.554545
2666.413884	236.323776
2667.815630	240.873427
2669.218719	240.369231
2670.618390	257.933566
2672.019405	266.581818
2673.417004	273.369930
2674.817533	294.483916
2676.214646	294.409091
2677.613103	299.806294
2679.009733	292.509091
2680.406120	279.551748
2681.802265	267.023077
2683.196585	258.441259
2684.592246	268.117483
2685.984499	271.362238
2687.378094	274.582517
2688.769865	280.098601
2690.162979	284.902098
2691.554269	293.691608
2692.943736	295.844056
2694.332963	301.883916
2695.721951	315.865035
2697.112280	315.373427
2698.497626	327.634266
2699.885895	339.615385
2701.272344	356.819580
2702.658554	369.606993
2704.044525	385.512587
2705.427098	394.278322
2706.811013	388.052448
2708.194690	399.687413
2709.578128	409.967832
2710.958172	415.397902
2712.339556	423.026573
2713.719126	432.886713
2715.100036	439.350350
2716.479132	429.706294
2717.856414	420.765035
2719.235037	417.493706
2720.611847	408.398601
2721.988420	390.722378
2723.364758	379.376224
2724.739285	379.927972
2726.115152	364.535664
2727.487632	357.006993
2728.863028	343.386713
2730.233464	333.965035
2731.605241	313.923077
2732.976783	297.946853
2734.346517	287.383916
2735.717592	281.498601
2737.086858	258.669231
2738.455891	251.284615
2739.823118	241.637762
2741.190112	234.000699
2742.556872	223.095804
2743.923401	222.256643
2745.288124	202.871329
2746.652615	207.209091
2748.016875	200.735664
2749.380902	202.395804
2750.744698	208.753846
2752.105120	203.416783
2753.468452	182.281119
2754.826842	183.467133
2756.188142	172.151748
2757.546072	163.534965
2758.906910	143.000000
2760.265949	127.100000
2761.621619	116.553846
2762.980197	114.965035
2764.335408	104.431469
2765.690390	102.377622
2767.043576	107.388112
2768.399668	102.409091
2769.752395	101.746154
2771.104895	122.832867
2772.457166	133.689510
2773.810776	131.434965
2775.161024	143.625874
2776.509478	144.617483
2777.860838	145.279021
2779.208838	147.515385
2780.558176	138.281818
2781.905722	128.925175
2783.253042	128.186014
2784.600135	119.354545
2785.945437	125.839860
2787.290512	144.451748
2788.635362	153.786014
2789.979986	146.416084
2791.321258	154.865035
2792.663868	147.992308
2794.006252	142.885315
2795.348411	150.797902
2796.687221	134.227273
2798.028931	124.213287
2799.367293	112.294406
2800.706991	101.934965
2802.044905	104.302797
2803.381034	111.924476
2804.716939	108.163636
2806.054182	96.012587
2807.389641	98.451049
2808.724877	99.081818
2810.058330	99.791608
2811.393120	96.691608
2812.724570	89.701399
2814.058915	82.663636
2815.388362	83.132867
2816.719146	74.097203
2818.049708	72.957343
2819.378491	90.929371
2820.708610	95.870629
2822.036951	104.714685
2823.365071	123.316783
2824.691413	134.884615
2826.019092	140.173427
2827.343437	127.532867
2828.669119	135.721678
2829.993025	138.167133
2831.316712	136.200000
2832.641734	120.613986
2833.963426	115.574126
2835.284900	117.089510
2836.606155	103.930769
2837.927191	107.549650
2839.246454	114.795804
2840.567053	116.816084
2841.885881	111.969231
2843.204490	110.875524
2844.521328	122.796503
2845.837949	141.600699
2847.154353	139.844755
2848.468987	135.944056
2849.784957	124.510490
2851.097606	101.699301
2852.411590	90.633566
2853.725358	78.151748
2855.038909	78.580420
2856.350694	78.492308
2857.660712	65.750350
2858.972065	72.246154
2860.280103	77.020979
2861.589475	111.725175
2862.898633	111.422378
2864.207575	116.277622
2865.514753	98.611888
2866.820169	95.907692
2868.126919	99.812587
2869.431906	88.771329
2870.736680	103.752448
2872.039692	98.269231
2873.345585	87.127273
2874.646624	86.314685
2875.948997	93.872727
2877.249610	115.995804
2878.551557	108.711189
2879.853290	112.795105
2881.151720	92.953846
2882.451483	101.830769
2883.749489	99.962238
2885.047283	98.999301
2886.343321	104.851748
2887.640692	98.432867
2888.936307	99.022378
2890.231711	90.971329
2891.526904	95.660140
2892.818800	100.455944
2894.113572	101.507692
2895.405047	87.369930
2896.697855	84.940559
2897.990453	99.298601
2899.279757	108.788811
2900.570393	104.159441
2901.859278	111.513986
2903.149495	121.048252
2904.436421	124.701399
2905.724679	112.750350
2907.011188	105.888811
2908.297489	99.998601
2909.583581	92.360839
2910.867925	79.276923
2912.155140	80.886014
2913.437529	94.562238
2914.721250	110.187413
2916.003225	114.458741
2917.284992	127.336364
2918.565015	137.072727
2919.847907	128.852448
2921.129054	120.181119
2922.406919	121.550350
2923.687653	115.921678
2924.965106	103.887413
2926.242353	92.569231
2927.517858	98.873427
2928.796231	118.953846
2930.069790	120.762238
2931.346216	116.516084
2932.620901	105.786713
2933.893845	109.091608
2935.168121	102.855944
2936.440657	108.672727
2937.712988	111.583916
2938.982047	113.348252
2940.253971	104.227273
2941.524157	99.804895
2942.794139	110.254545
2944.063918	103.727273
2945.331961	95.472028
2946.598267	101.133566
2947.864372	97.579720
2949.131806	100.044056
2950.397506	94.396503
2951.663003	99.180420
2952.928298	93.587413
2954.190328	93.874126
2955.453688	83.530769
2956.716847	71.446154
2957.978274	72.854545
2959.241030	86.162238
2960.502054	87.337762
2961.761348	92.355245
2963.020442	93.987413
2964.279335	90.346853
2965.538028	94.627972
2966.796521	109.867832
2968.053285	110.157343
2969.309849	108.375524
2970.564686	96.867133
2971.820851	102.953846
2973.073762	106.774825
2974.328002	109.069930
2975.582043	96.193706
2976.834358	100.239860
2978.086474	91.808392
2979.336866	91.527273
2980.590113	91.500000
2981.838583	96.692308
2983.089908	95.007692
2984.337983	89.734965
2985.585862	88.765035
2986.833543	99.913287
2988.081027	92.094406
2989.326790	89.425874
2990.572357	99.172028
2991.819251	107.194406
2993.062901	94.949650
2994.307879	103.130070
2995.549613	99.726573
2996.794199	95.752448
2998.037066	90.551748
2999.276692	87.616783
3000.519168	77.978322
3001.758404	60.965734
3002.998968	56.188112
3004.237816	60.730070
3005.476468	72.693706
3006.713406	81.741259
3007.951670	79.629371
3009.188219	98.286014
3010.424575	109.074825
3011.660737	114.277622
3012.895185	114.741259
3014.129441	112.240559
3015.363503	100.111888
3016.595853	89.041958
3017.826491	77.304895
3019.059975	72.965035
3020.291747	65.181119
3021.521809	67.509790
3022.751679	65.993706
3023.979839	90.133566
3025.209325	104.934965
3026.437102	121.293706
3027.664688	136.720979
3028.893601	130.904196
3030.117771	141.595105
3031.344784	136.800000
3032.568573	119.399301
3033.793689	114.832168
3035.017098	107.909091
3036.240317	104.795804
3037.461831	104.224476
3038.686186	114.744056
3039.905806	118.196503
3041.126752	117.911888
3042.347509	126.235664
3043.566562	119.115385
3044.786940	128.906294
3046.004102	116.410490
3047.222590	114.416084
3048.439375	103.521678
3049.655973	99.680420
3050.872382	82.017483
3052.085579	74.840559
3053.301613	76.556643
3054.514435	73.404196
3055.730094	70.378322
3056.941030	89.306993
3058.153291	96.268531
3059.365366	107.520280
3060.577253	116.257343
3061.787444	116.721678
3062.997448	104.696154
3064.207266	98.816084
3065.415388	66.908042
3066.623325	56.123776
3067.829566	52.192657
3069.037132	46.722378
3070.243003	57.440909
3071.448690	74.223776
3072.654191	91.365385
3073.857999	101.476923
3075.063131	109.158392
3076.266570	110.317483
3077.468318	115.145804
3078.669881	112.018182
3079.871261	102.125874
3081.072457	99.986713
3082.271963	96.874126
3083.471286	84.637063
3084.671932	81.561538
3085.870888	89.322378
3087.066650	90.537063
3088.265241	75.633566
3089.460638	85.493007
3090.657358	90.409091
3091.850886	100.941259
3093.047242	110.631469
3094.241912	120.360839
3095.433391	123.219580
3096.629201	121.913986
3097.820318	119.074126
3099.012757	115.441259
3100.202009	113.669231
3101.394086	96.475524
3102.584480	80.887413
3103.771688	81.195804
3104.960219	75.778322
3106.150071	80.095804
3107.336740	83.924476
3108.523228	95.911189
3109.709538	104.873427
3110.897169	100.929371
3112.081618	106.869231
3113.264388	99.433566
3114.449980	97.079021
3115.633893	83.789510
3116.816127	75.832867
3117.998182	68.218881
3119.180059	65.093706
3120.361758	54.662937
3121.541780	52.018182
3122.720125	57.700000
3123.901290	56.206993
3125.079280	55.286713
3126.257094	68.006993
3127.434730	79.277622
3128.610691	89.069930
3129.786475	96.723077
3130.963581	101.140559
3132.139012	97.813287
3133.312770	99.180420
3134.484855	93.532168
3135.658262	99.479720
3136.831492	93.572028
3138.003051	92.893706
3139.175930	86.341259
3140.345642	85.937063
3141.516675	75.088811
3142.686038	73.230070
3143.853730	72.470629
3145.024238	61.859441
3146.190088	55.595804
3147.360246	57.042657
3148.525748	66.956643
3149.691075	79.149650
3150.856229	76.070629
3152.021210	84.435664
3153.187510	87.753846
3154.349158	94.584615
3155.512125	92.845455
3156.674920	101.960839
3157.837542	96.636364
3158.998499	98.786014
3160.159283	99.079021
3161.319895	103.567133
3162.478843	105.743357
3163.637620	101.995105
3164.796225	93.725175
3165.954657	90.372028
3167.112919	91.812587
3168.269518	89.223077
3169.424456	85.227972
3170.580713	96.307692
3171.735309	89.627972
3172.889735	88.574825
3174.042501	83.921678
3175.195096	79.776224
3176.347522	65.748951
3177.499778	52.083217
3178.651863	49.463636
3179.800803	51.123776
3180.952549	51.872028
3182.102637	52.558042
3183.251069	58.743357
3184.399331	82.147552
3185.547425	82.848951
3186.695350	87.351748
3187.841619	95.406993
3188.987720	92.289510
3190.132167	81.575524
3191.276446	82.350350
3192.420557	84.790210
3193.565985	76.360839
3194.708275	68.049650
3195.850398	62.941259
3196.992353	58.071329
3198.134141	73.323077
3199.275762	78.550350
3200.414248	93.026573
3201.554051	102.022378
3202.695172	98.785315
3203.833158	98.597203
3204.969495	99.220979
3206.105666	91.716783
3207.243154	79.286014
3208.378994	74.438462
3209.516151	63.290909
3210.648695	62.004895
3211.785521	70.149650
3212.917735	72.587413
3214.051266	82.139860
3215.184633	78.918182
3216.314872	80.472028
3217.447909	77.560140
3218.577820	73.336364
3219.709047	67.293007
3220.837150	60.355245
3221.968049	60.399301
3223.097304	63.006294
3224.224916	74.836364
3225.349405	85.910490
3226.478170	87.402098
3227.603813	91.665734
3228.729294	101.624476
3229.853133	113.111888
3230.979766	112.783916
3232.101802	112.884615
3233.225154	103.229371
3234.348344	87.637063
3235.471372	94.793706
3236.592760	100.918182
3237.713986	95.413287
3238.833575	96.014685
3239.953002	92.804196
3241.070791	97.679021
3242.191372	108.346853
3243.308840	104.995804
3244.426147	105.185315
3245.543294	107.909790
3246.658805	105.813287
3247.775630	100.117483
3248.889346	112.575524
3250.005851	109.975524
3251.120722	101.677622
3252.232484	104.833566
3253.344086	108.170629
3254.457004	110.719580
3255.569762	107.127273
3256.679414	91.984615
3257.790381	94.154545
3258.901189	92.135664
3260.010365	85.653846
3261.117911	82.126573
3262.226770	87.379720
3263.335472	88.344056
3264.441071	88.931469
3265.547984	85.275524
3266.653268	78.758042
3267.759866	75.008392
3268.863364	62.600699
3269.968177	50.965734
3271.072832	54.678322
3272.174388	56.241259
3273.275788	51.628671
3274.378502	53.475524
3275.481060	66.013986
3276.580521	67.851049
3277.682766	74.549650
3278.781915	77.092308
3279.879440	79.755944
3280.976809	76.976224
3282.076960	73.592308
3283.174019	72.914685
3284.270922	79.019580
3285.367670	76.676923
3286.459860	76.938462
3287.556298	73.743357
3288.651114	80.243357
3289.745776	80.673427
3290.838816	94.382517
3291.931701	106.537063
3293.022967	116.379021
3294.115544	110.943357
3295.206502	103.989510
3296.295840	105.460140
3297.385025	100.982517
3298.475523	87.837762
3299.562936	86.802797
3300.650196	73.769231
3301.738769	62.376923
3302.827190	61.860140
3303.911063	66.031469
3304.999178	80.593007
3306.084211	87.594406
3307.167629	84.245455
3308.252359	87.600699
3309.335473	90.958741
3310.419900	84.004895
3311.501248	73.981119
3312.583908	73.035664
3313.664954	56.764336
3314.745849	54.168531
3315.825130	54.696503
3316.904261	60.394406
3317.984704	76.749650
3319.062072	79.637762
3320.140752	85.404196
3321.217820	89.920979
3322.294739	93.539161
3323.370046	91.877622
3324.445204	97.336364
3325.521673	97.085315
3326.595072	88.767832
3327.668322	86.758042
3328.742882	77.179720
3329.815834	67.844056
3330.887177	58.292308
3331.959831	53.117483
3333.029419	43.586713
3334.100317	44.472028
3335.169608	57.075524
3336.240210	64.646853
3337.309205	77.730070
3338.376594	74.344755
3339.442378	79.134965
3340.512388	81.586014
3341.579335	71.125175
3342.643220	67.508392
3343.709873	61.429371
3344.774921	59.401399
3345.838366	52.225874
3346.901665	63.738462
3347.964817	69.423776
3349.027823	80.009790
3350.090683	76.743357
3351.151941	79.148252
3352.210142	82.800699
3353.272563	76.648951
3354.331929	68.451748
3355.391149	79.899301
3356.451679	82.527273
3357.507699	79.223776
3358.566483	79.720280
3359.620760	79.125175
3360.677801	75.211888
3361.733243	71.916084
3362.789995	56.062937
3363.845148	54.108392
3364.898704	45.784615
3365.950664	37.223077
3367.005385	46.745455
3368.057057	57.930070
3369.108586	68.503497
3370.161423	69.558741
3371.211213	74.169231
3372.262312	69.594406
3373.310365	67.706993
3374.361177	56.444056
3375.408945	53.151748
3376.456570	62.801399
3377.504052	64.001399
3378.549942	63.302098
3379.597140	62.962238
3380.641296	71.437063
3381.688210	75.096503
3382.733532	82.433566
3383.775813	87.971329
3384.817954	88.540559
3385.861402	88.498601
3386.904709	84.897203
3387.946427	86.890909
3388.988003	88.195804
3390.029438	87.811888
3391.069285	70.842657
3392.107543	57.793706
3393.147109	55.545455
3394.186535	54.886713
3395.224373	63.712587
3396.260624	68.173427
3397.296736	74.664336
3398.334155	76.751748
3399.368541	78.648951
3400.404234	80.849650
3401.439788	90.661538
3402.472311	100.907692
3403.507587	87.496503
3404.539832	86.416783
3405.571939	88.204895
3406.602462	90.812587
3407.634292	87.623776
3408.665984	80.424476
3409.694648	71.041259
3410.723175	53.172727
3411.753008	42.748252
3412.782704	52.071329
3413.809374	59.387413
3414.837351	59.274825
3415.862303	62.896503
3416.890005	57.859441
3417.914684	60.726573
3418.940669	64.274126
3419.965074	76.500000
3420.989343	85.429371
3422.012033	78.926573
3423.034587	79.722378
3424.058447	82.130070
3425.079287	96.425175
3426.099991	92.051149
3427.122002	87.629221
3428.140994	85.320579
3429.159850	87.286414
3430.180013	95.687912
3431.197159	112.686264
