-118.059454	-0.182418
-115.389854	2.751648
-112.723189	4.513387
-110.057276	5.266434
-107.394295	5.174426
-104.729885	4.400999
-102.068405	3.109790
-99.405496	-0.390909
-96.747693	-1.550350
-94.088461	-2.570629
-91.429977	-0.541958
-88.774417	2.604895
-86.117429	5.073427
-83.465539	7.248951
-80.812218	10.871329
-78.161818	11.406993
-75.509988	10.648951
-72.863249	8.498601
-70.215081	5.169930
-67.567655	1.049650
-64.923143	0.975524
-62.277203	0.354545
-59.636344	4.353147
-56.994056	4.103497
-54.354677	7.770629
-51.713868	10.577622
-49.073800	15.855944
-46.438804	16.457343
-43.802380	16.690210
-41.168858	13.882517
-38.533908	11.919580
-35.904023	12.977622
-33.270546	13.181818
-30.642131	12.371329
-28.014450	13.803497
-25.385340	4.853147
-22.761287	-31.133566
-20.133645	-162.219580
-17.511056	-433.804196
-14.889199	-629.854545
-12.268072	467.821678
-9.647675	2304.791608
-7.030167	3820.556643
-4.411230	4878.887413
-1.795178	5469.960839
0.820145	5593.188811
3.434741	5252.536364
6.046454	4450.290909
8.659596	3217.264336
11.267704	1650.999301
13.879394	59.434266
16.486053	-909.754545
19.094140	-539.144755
21.701503	-40.889510
24.303841	15.335664
26.909757	13.053846
29.510651	13.414685
32.112973	12.249650
34.710278	10.911888
37.311158	10.177622
39.907023	12.841958
42.504317	13.370629
45.100891	16.831469
47.692456	15.733566
50.285449	15.384615
52.875581	14.090210
55.467141	14.248951
58.055841	11.361538
60.645968	11.166434
63.231096	7.666434
65.817652	7.558042
68.403494	4.571329
70.986482	4.255245
73.570896	2.532867
76.148182	3.117483
78.729034	2.700699
81.307037	3.427273
83.884330	5.451049
86.463049	10.842657
89.036786	9.145455
91.611951	8.046853
94.184272	10.088112
96.755885	12.253846
99.324658	7.986713
101.894858	8.480420
104.462220	9.330070
107.031007	9.159441
109.596958	11.765734
112.160074	13.523776
114.726746	17.937063
117.284197	20.091608
119.847333	18.223776
122.405509	20.465035
124.967240	26.527273
127.524014	33.111888
130.082215	41.683217
132.635462	58.350350
135.188012	72.088112
137.744112	87.181119
140.295264	103.773427
142.845719	119.567133
145.395476	134.006993
147.942414	144.246154
150.488657	150.219580
153.036325	153.238462
155.583297	154.127972
158.125334	155.418881
160.666677	156.862937
163.207327	155.858042
165.749403	151.764336
168.288667	151.126573
170.825123	149.488811
173.360887	151.453147
175.898077	151.928671
178.434576	151.755944
180.968269	148.844755
183.499158	144.811189
186.029360	142.330769
188.560986	141.575524
191.089811	140.536364
193.615837	139.960839
196.141177	138.032168
198.667942	138.190909
201.191911	139.292308
203.715195	143.351049
206.237794	146.674126
208.757600	148.311189
211.276723	148.109091
213.795163	148.753147
216.315027	149.060140
218.827890	149.116084
221.344284	149.311189
223.859996	148.463636
226.370818	144.866434
228.883065	147.853846
231.392530	148.682517
233.901316	151.177622
236.409423	153.151748
238.918955	152.806993
241.423606	150.133566
243.927581	149.141958
246.432980	146.387413
248.933504	145.646853
251.437552	145.062937
253.934628	143.667133
256.435228	143.143357
258.933056	144.829371
261.430211	145.153846
263.926693	149.480420
266.418312	154.101399
268.913451	158.213287
271.405823	161.225175
273.897525	164.279720
276.386464	165.316783
278.876827	166.981119
281.364427	169.334266
283.849268	169.303497
286.337624	167.254545
288.819040	165.967133
291.303970	166.340559
293.784055	168.420979
296.267652	169.951049
298.746406	171.225175
301.226584	170.997902
303.704009	170.292308
306.180771	172.222378
308.656870	178.829371
311.130220	190.855245
313.602908	199.777622
316.074935	207.358741
318.546301	215.671329
321.014922	220.549650
323.482885	220.490210
325.952269	215.186014
328.416831	209.266434
330.884897	198.504196
333.348143	193.020280
335.810731	186.578322
338.272663	184.610490
340.733938	184.974825
343.192479	183.386713
345.652442	181.648951
348.109672	184.897902
350.566248	185.390210
353.022170	183.775524
355.475362	183.767832
357.929977	185.313287
360.379790	186.976923
362.833099	188.781119
365.281610	187.116084
367.729469	188.569231
370.178751	187.120280
372.623239	186.427273
375.069149	186.297203
377.514409	186.980420
379.956951	183.806294
382.398845	183.382517
384.840092	184.562937
387.278623	183.255245
389.718576	183.902797
392.155815	181.444755
394.590342	181.033566
397.028357	181.293706
399.461595	182.102098
401.896254	182.995804
404.326141	181.286713
406.759513	178.595105
409.188115	178.795105
411.616075	177.314685
414.045457	177.818881
416.470073	177.665035
418.896111	177.872028
421.321508	178.481818
423.746265	179.640559
426.166264	178.651049
428.587684	179.997203
431.006407	180.572028
433.426551	183.493007
435.844000	187.401399
438.262869	190.569231
440.679045	190.345455
443.090473	193.803497
445.505379	196.614685
447.917594	195.048951
450.329175	192.526573
452.740122	187.411888
455.148383	180.813986
457.556011	179.705594
459.963007	177.981119
462.369372	178.600000
464.773054	179.011189
467.176106	178.168531
469.578528	180.186014
471.980320	181.179021
474.379435	182.243357
476.779969	181.895105
479.179874	182.970629
481.575056	181.179021
483.973705	179.106294
486.367634	177.070629
488.760937	172.815385
491.153614	169.486014
493.545666	168.235664
495.939136	161.076923
498.327894	156.617483
500.713986	149.958741
503.101498	142.132867
505.488387	139.423077
507.872612	137.461538
510.258255	133.300000
512.641237	127.581818
515.021558	123.021678
517.403298	122.028671
519.782379	119.430070
522.162879	122.545455
524.540721	117.470629
526.915908	116.386713
529.290477	113.230070
531.666464	107.387413
534.039799	106.918182
536.414551	104.818182
538.784618	102.009790
541.154069	97.791608
543.524938	95.579021
545.891127	95.804196
548.258734	95.241259
550.623695	100.211189
552.988043	101.108392
555.351778	102.783217
557.716931	101.713986
560.077412	99.719580
562.439311	99.436364
564.798569	97.350350
567.155190	95.690909
569.515255	92.672727
571.868629	91.563636
574.225448	90.188112
576.579632	90.600699
578.933208	94.366434
581.286175	97.675524
583.636510	99.659441
585.988263	98.390909
588.333339	97.754545
590.683879	97.876224
593.027745	98.974126
595.377073	99.614685
597.721752	97.542657
600.063807	95.304895
602.407279	91.888112
604.748128	91.472727
607.088375	92.196503
609.426001	92.085315
611.767062	92.099301
614.103485	88.214685
616.441325	88.769231
618.776548	89.250350
621.109155	89.853147
623.443178	90.057343
625.774587	89.371329
628.105398	89.834965
630.435612	91.208392
632.765227	90.688112
635.090220	92.380420
637.420653	91.823776
639.746466	90.027273
642.069671	87.183916
644.394293	86.083916
646.716309	82.961538
649.037731	80.764336
651.356551	77.804196
653.676786	75.376923
655.996428	74.202098
658.313469	72.361538
660.629918	69.672028
662.943769	71.791608
665.259036	70.725175
667.571706	72.409790
669.885791	72.555944
672.195276	75.027273
674.506177	76.083217
676.814485	77.712587
679.122205	76.961538
681.431339	77.300699
683.735881	75.948252
686.039837	75.497902
688.343207	73.902797
690.647991	74.347552
692.948189	74.931469
695.249801	74.636364
697.550829	71.951748
699.847274	70.111888
702.145135	68.884615
704.442412	70.323077
706.739106	71.979720
709.031224	72.775524
711.326753	71.325175
713.617708	73.097203
715.910078	73.613287
718.199873	74.294406
720.489087	75.170629
722.777722	75.667133
725.063784	75.723077
727.351261	73.460140
729.636166	75.112587
731.920494	76.665035
734.202253	75.478322
736.485426	73.894406
738.768022	76.300699
741.046062	78.175524
743.325517	76.297203
745.604395	78.136364
747.882699	77.109790
750.156453	78.752448
752.431620	79.387413
754.706214	79.396503
756.978249	79.741259
759.251697	81.162238
761.522587	80.934266
763.790921	82.882517
766.060668	82.416084
768.327861	81.465734
770.594483	78.942657
772.860535	81.869231
775.124036	79.271329
777.388950	80.325874
779.653294	79.188811
781.913109	78.045455
784.174336	74.771329
786.434996	77.419580
788.693110	78.036364
790.948679	78.909790
793.207639	76.118182
795.460100	80.569930
797.717927	82.232867
799.971236	87.358741
802.222005	88.261538
804.474186	86.945455
806.723828	82.235664
808.974883	77.239161
811.221426	75.019580
813.469381	76.876923
815.714802	77.000000
817.961634	73.447552
820.207905	72.751748
822.449671	72.051748
824.694821	71.028671
826.933498	73.704895
829.175557	72.344056
831.413118	68.709790
833.652091	65.879720
835.888537	65.604196
838.126394	68.198601
840.361726	69.248951
842.594535	70.983217
844.828755	71.362937
847.060452	76.516783
849.291595	74.910490
851.522183	77.587413
853.752217	80.011888
855.981697	79.873427
858.206695	80.255944
860.435068	81.160140
862.658961	76.941958
864.884266	71.893007
867.105095	68.944056
869.329296	69.337063
871.549024	70.921678
873.770162	71.317483
875.990750	72.872028
878.208829	75.456643
880.428317	77.184615
882.643339	75.969930
884.857814	83.598601
887.071740	79.051748
889.285120	73.328671
891.497952	68.890210
893.710238	65.589510
895.920021	61.278322
898.129259	58.131469
900.337952	58.944056
902.544146	59.496503
904.751749	61.478322
906.956854	65.503497
909.161416	65.154545
911.363483	73.606993
913.566959	68.560839
915.767941	69.423077
917.968381	66.304895
920.170230	61.992308
922.365688	57.813287
924.564505	58.947552
926.758883	63.353846
928.956619	63.479720
931.149919	63.939161
933.344628	61.396503
935.536851	65.540559
937.728535	71.981119
939.919682	74.461538
942.108346	78.424476
944.296474	81.768531
946.482121	88.193706
948.671120	95.198601
950.855696	99.806993
953.039737	104.030070
955.227128	101.268531
957.406215	95.774825
959.588653	93.181818
961.770557	96.562937
963.949986	86.981818
966.126943	85.228671
968.305308	82.730769
970.485080	87.330769
972.658503	87.382517
974.835272	83.281119
977.007634	92.631469
979.181404	95.111189
981.350770	95.046853
983.523480	96.025175
985.693725	98.212587
987.863441	96.387413
990.032628	85.499301
992.197418	92.042657
994.365549	89.523776
996.529286	96.892308
998.694429	91.472028
1000.857113	93.845455
1003.019272	95.292308
1005.178974	89.940559
1007.338151	99.399301
1009.498735	95.530070
1011.656865	95.109091
1013.814470	89.099301
1015.971552	103.537063
1018.128110	101.117483
1020.280289	101.187413
1022.433875	117.944056
1024.586939	121.043357
1026.737554	123.856643
1028.889576	120.305594
1031.037224	127.602797
1033.188204	138.141958
1035.334813	125.474126
1037.480903	133.247552
1039.626475	139.118881
1041.773452	141.332168
1043.914140	112.838462
1046.058158	115.717483
1048.199735	116.757343
1050.340796	114.507692
1052.483261	117.941958
1054.619447	125.134266
1056.758958	136.347552
1058.894115	159.260839
1061.032596	166.510490
1063.166723	187.742657
1065.300337	180.209091
1067.435356	161.579021
1069.566025	132.818881
1071.698099	112.158042
1073.827744	88.776224
1075.956877	85.312587
1078.085498	81.383916
1080.213608	82.341259
1082.339292	84.843357
1084.464466	102.109091
1086.591044	113.054545
1088.713284	127.322378
1090.836929	122.071329
1092.956239	121.386014
1095.080779	109.927972
1097.199073	101.541958
1099.318772	108.419580
1101.436052	106.834266
1103.552826	107.636364
1105.669093	108.760839
1107.782944	105.611888
1109.898200	114.463636
1112.009132	123.944755
1114.123377	123.416783
1116.233301	113.896503
1118.344629	104.339161
1120.455452	99.898601
1122.561959	89.349650
1124.671776	92.773427
1126.777278	83.616783
1128.884183	93.650350
1130.984873	89.160140
1133.090775	83.218881
1135.192368	86.621678
1137.295364	87.320979
1139.397859	82.504895
1141.494147	76.753147
1143.595643	71.449650
1145.692835	68.934965
1147.789530	72.116084
1149.885726	76.544056
1151.981425	74.956643
1154.076625	77.655245
1156.169429	70.337762
1158.263636	69.690909
1160.351651	75.768531
1162.444864	75.523077
1164.531889	74.911888
1166.622213	74.678322
1168.708250	76.524476
1170.797584	76.158042
1172.880737	84.095804
1174.965292	79.518182
1177.051249	77.625874
1179.132924	81.198601
1181.216001	81.451049
1183.296692	81.637063
1185.376891	80.723776
1187.456599	72.295804
1189.535816	67.496503
1191.612651	59.474126
1193.687105	59.302797
1195.764850	54.075524
1197.838326	59.083217
1199.913202	62.316084
1201.983811	72.213287
1204.055821	80.872028
1206.125456	88.931469
1208.196491	88.895105
1210.267038	91.127273
1212.333324	87.418182
1214.401011	83.549650
1216.466326	79.088811
1218.533041	81.700000
1220.595500	81.562238
1222.661244	90.459441
1224.722734	91.967832
1226.785625	90.718881
1228.846148	88.378322
1230.906187	85.817483
1232.965744	76.217483
1235.022935	77.978322
1237.079645	68.177622
1239.133991	60.425175
1241.191619	62.951748
1243.246884	62.623077
1245.297908	60.037762
1247.350332	62.164336
1249.402276	62.449650
1251.451862	58.632168
1253.500969	63.257343
1255.549598	63.465035
1257.597748	65.397902
1259.645419	71.742657
1261.688860	67.246154
1263.735577	66.884615
1265.779940	70.399301
1267.823827	65.268531
1269.865362	63.802797
1271.904548	66.826573
1273.947007	67.909790
1275.985243	67.697203
1278.024878	71.365035
1280.064038	70.608392
1282.098979	71.637762
1284.135319	71.063636
1286.169315	65.726573
1288.204708	61.841259
1290.235889	62.572727
1292.268467	58.026573
1294.300574	61.305594
1296.330340	63.970629
1298.361504	67.358042
1300.388460	69.507692
1302.416814	70.402797
1304.440963	75.331469
1306.468378	81.054545
1308.491590	82.962238
1310.516200	84.142657
1312.538476	86.517483
1314.562149	84.615385
1316.583489	80.093007
1318.604361	76.718881
1320.624766	71.060839
1322.640978	66.129371
1324.658587	57.116783
1326.673868	46.725874
1328.692408	49.779720
1330.706759	53.622378
1332.718784	57.388112
1334.734066	59.816084
1336.745163	67.210490
1338.757657	72.578322
1340.765968	77.624476
1342.777534	80.386713
1344.783062	80.392308
1346.791845	79.681818
1348.796450	72.050350
1350.804309	61.041259
1352.811706	60.419580
1354.813072	54.214685
1356.815834	53.215385
1358.818137	50.171329
1360.819980	56.369930
1362.821363	58.881818
1364.820433	65.637063
1366.819044	73.371329
1368.817197	73.971329
1370.814891	75.693706
1372.808423	75.393007
1374.803351	74.011189
1376.797821	73.347552
1378.791835	67.477622
1380.783542	66.687413
1382.774794	65.266434
1384.763740	67.616783
1386.754081	69.311189
1388.743967	75.822378
1390.731549	74.918182
1392.718678	73.574126
1394.703505	71.389510
1396.689727	68.768531
1398.673649	68.425175
1400.657118	64.267832
1402.640134	60.893706
1404.620853	63.184615
1406.602966	65.444755
1408.582783	69.247552
1410.562148	75.732168
1412.537375	77.279720
1414.515840	75.001399
1416.492012	74.364336
1418.467735	69.527273
1420.443008	68.645455
1422.415990	64.960839
1424.388524	64.421678
1426.360610	66.182517
1428.332249	68.610490
1430.299759	68.548951
1432.272343	67.456643
1434.237122	66.537063
1436.206972	64.872727
1438.172699	63.141259
1440.139818	66.574825
1442.104654	71.264336
1444.065370	74.612587
1446.031154	71.716084
1447.990983	74.876923
1449.952206	75.759441
1451.914821	79.097902
1453.873321	76.889510
1455.831378	72.734266
1457.788994	70.906993
1459.746167	74.752448
1461.701065	72.023077
1463.657356	74.207692
1465.611372	69.036364
1467.564947	64.658042
1469.516250	61.793706
1471.468946	60.465035
1473.419369	63.351748
1475.369354	62.450350
1477.318900	65.071329
1479.266177	67.480420
1481.211186	70.458741
1483.157588	77.881119
1485.103552	74.476224
1487.049079	74.220979
1488.992340	74.887413
1490.935166	71.916084
1492.875728	71.909790
1494.817681	71.746853
1496.757372	76.881818
1498.696629	75.276923
1500.635450	74.674126
1502.572012	72.902098
1504.509965	73.163636
1506.445659	72.611189
1508.380920	72.546154
1510.313925	76.384615
1512.246497	76.905594
1514.178637	74.224476
1516.110345	78.621678
1518.039799	81.523776
1519.970644	85.910490
1521.901057	77.001399
1523.827398	68.651049
1525.755130	68.662937
1527.680611	69.911189
1529.605663	72.013986
1531.530286	76.481119
1533.454480	80.607692
1535.376426	84.462937
1537.299763	95.725175
1539.220853	101.002797
1541.139700	103.530769
1543.059935	100.197902
1544.977928	95.897203
1546.895494	91.799301
1548.810818	90.724476
1550.727532	96.654545
1552.640191	105.167832
1554.556054	111.681119
1556.469677	122.966434
1558.381062	130.721678
1560.293837	139.255944
1562.202562	146.387413
1564.112676	157.839860
1566.022367	175.688811
1567.931635	208.471329
1569.838669	253.914685
1571.743470	315.267832
1573.649660	392.234266
1575.553618	467.163636
1577.457155	523.260839
1579.360272	551.165734
1581.261159	558.490909
1583.163435	540.179720
1585.063483	494.389510
1586.964918	427.223077
1588.862320	352.827273
1590.759303	282.232867
1592.655868	230.525874
1594.553821	194.027273
1596.445939	163.392308
1598.341250	140.430769
1600.236144	123.053846
1602.128816	101.605594
1604.021071	103.080420
1605.911107	98.901399
1607.800727	86.882517
1609.689932	77.019580
1611.578722	68.534266
1613.465294	72.776224
1615.353254	79.731469
1617.237197	86.068531
1619.122527	81.525175
1621.007444	82.860140
1622.890147	85.823077
1624.774237	84.510490
1626.654315	87.926573
1628.535781	89.067832
1630.415036	80.727972
1632.295677	80.974825
1634.170514	75.027972
1636.050332	74.497902
1637.926146	75.940559
1639.801549	75.170629
1641.678338	72.764336
1643.549331	71.941958
1645.423505	75.874126
1647.293680	75.264336
1649.167037	69.501399
1651.038190	75.986713
1652.907141	80.144056
1654.777477	77.777622
1656.643821	70.923776
1658.511550	81.229371
1660.377080	79.675524
1662.243996	76.065734
1664.106923	75.469930
1665.971235	77.365734
1667.833351	79.241958
1669.695062	72.886713
1671.558159	66.812587
1673.419060	70.435664
1675.277769	72.353846
1677.136074	62.582517
1678.995764	62.269930
1680.849686	73.109091
1682.706782	69.986014
1684.563475	56.738462
1686.416191	57.768531
1688.272079	46.906993
1690.123993	35.204895
1691.975506	30.459441
1693.826618	39.523776
1695.677330	54.624476
1697.527641	59.430070
1699.375767	70.386014
1701.225278	69.139161
1703.069040	87.213287
1704.917751	84.652448
1706.760716	73.207692
1708.606848	74.652448
1710.449017	57.067133
1712.294352	46.355245
1714.133946	40.143357
1715.974924	45.526573
1717.817285	46.999301
1719.655690	41.872727
1721.495478	41.829371
1723.333091	39.844755
1725.170308	39.577622
1727.005352	34.060140
1728.841779	38.894406
1730.676034	34.076923
1732.509894	39.016783
1734.343360	44.722378
1736.172881	43.200000
1738.005560	51.490210
1739.834295	63.455245
1741.666187	62.245455
1743.494137	58.125874
1745.321696	60.864336
1747.148862	53.518881
1748.975637	65.455245
1750.802020	61.589510
1752.624467	68.002797
1754.450069	80.816783
1756.271736	98.097902
1758.094785	93.202098
1759.915672	97.567832
1761.736171	99.010490
1763.558051	69.688112
1765.374231	58.355245
1767.193563	52.937762
1769.008968	52.786713
1770.827523	58.221678
1772.642153	58.938462
1774.456396	63.147552
1776.270253	63.593007
1778.083723	71.770629
1779.895040	69.844755
1781.707737	65.037762
1783.520049	55.693007
1785.328443	37.928671
1787.138217	47.221678
1788.944077	50.937063
1790.753082	64.553147
1792.558174	78.221678
1794.364647	88.168531
1796.170736	88.535664
1797.972914	93.732168
1799.778237	104.340559
1801.579651	94.872028
1803.382445	73.822378
1805.181333	65.352448
1806.981602	58.150350
1808.781489	46.481818
1810.579234	49.662937
1812.376599	53.491608
1814.173584	59.216084
1815.970188	64.410490
1817.764653	71.256643
1819.560497	81.427273
1821.350686	83.265035
1823.145772	67.357343
1824.935206	68.785315
1826.727776	74.610490
1828.518211	73.513287
1830.306512	67.486014
1832.097948	70.034266
1833.883738	63.839860
1835.670908	71.576224
1837.455946	72.860140
1839.244118	70.628671
1841.028404	68.232867
1842.810560	61.437762
1844.594096	56.016084
1846.375503	60.915385
1848.158289	69.639860
1849.937194	78.280420
1851.717479	75.200000
1853.495637	75.083217
1855.275174	77.776923
1857.052586	86.927972
1858.827874	84.234965
1860.604540	81.520979
1862.379084	84.434965
1864.155006	81.288811
1865.925307	76.647552
1867.698736	74.426573
1869.470045	77.682517
1871.240983	84.506993
1873.013299	77.830070
1874.780001	75.318881
1876.549829	73.070629
1878.315793	67.971329
1880.084880	65.978322
1881.850106	62.076224
1883.614964	64.502098
1885.381199	56.315385
1887.143575	55.637063
1888.905584	52.631469
1890.667225	54.653846
1892.428500	67.880420
1894.189407	73.525874
1895.949948	75.542657
1897.708379	82.106993
1899.466444	76.291608
1901.222402	76.213287
1902.979736	72.146853
1904.736705	71.146154
1906.491567	62.616084
1908.244325	62.863636
1909.996718	56.690909
1911.750488	57.445455
1913.502154	60.109790
1915.251718	54.920280
1917.002657	53.332168
1918.753234	53.852448
1920.499971	51.755944
1922.248085	52.227273
1923.994099	56.295804
1925.741488	63.453147
1927.486780	64.643357
1929.229974	70.967832
1930.974543	67.444056
1932.717017	72.372727
1934.459130	61.488112
1936.200883	57.018182
1937.942276	62.206993
1939.681576	60.702797
1941.420517	56.409790
1943.159099	58.082517
1944.895590	61.073427
1946.631723	66.276224
1948.369230	62.258741
1950.102915	63.924476
1951.837975	60.595105
1953.570946	65.159441
1955.303561	64.894406
1957.035820	68.834965
1958.767722	67.633566
1960.497538	59.625175
1962.225269	50.848252
1963.954375	50.116783
1965.683126	49.788811
1967.409793	49.477622
1969.136106	53.124476
1970.863792	52.544755
1972.585942	55.368531
1974.311193	66.536364
1976.032637	74.116084
1977.757182	76.713986
1979.479646	77.659441
1981.198308	74.009790
1982.920068	69.200699
1984.638026	63.259441
1986.357357	60.165734
1988.072889	61.506993
1989.793241	64.197902
1991.509795	61.187413
1993.222552	62.686713
1994.938405	68.004895
1996.652186	76.641259
1998.365617	82.143357
2000.076977	87.186014
2001.789709	89.133566
2003.498651	90.044056
2005.210685	82.840559
2006.917211	79.090909
2008.626828	75.874825
2010.334379	66.975524
2012.041581	61.182517
2013.746718	56.546853
2015.451509	56.590210
2017.157671	59.802098
2018.860051	59.106294
2020.563802	60.260839
2022.265491	64.451748
2023.966835	70.072727
2025.667833	73.967832
2027.366770	76.487413
2029.067079	74.948951
2030.763613	79.205594
2032.461518	77.358042
2034.157364	80.850350
2035.856296	79.442657
2037.549742	73.819580
2039.244559	69.763636
2040.939034	63.093007
2042.629740	61.539860
2044.323530	58.753846
2046.013553	59.227972
2047.704947	57.145455
2049.394288	56.424476
2051.084999	59.755245
2052.771947	56.642657
2054.458556	66.385315
2056.146534	68.131469
2057.830753	67.832168
2059.516343	70.908392
2061.201593	73.432867
2062.884794	79.725175
2064.569366	80.923077
2066.248475	78.494406
2067.932369	79.252448
2069.610802	75.508392
2071.292313	75.369231
2072.970072	70.167133
2074.647495	69.554545
2076.326287	64.206993
2078.003037	64.185315
2079.677745	61.879720
2081.353822	70.260839
2083.027859	75.996503
2084.701560	77.388112
2086.374926	73.418881
2088.046253	77.561538
2089.717246	79.018881
2091.387905	82.341958
2093.058230	81.535664
2094.728221	84.393007
2096.396176	83.518881
2098.063798	86.200000
2099.729385	87.355944
2101.396341	94.111888
2103.061264	92.233566
2104.725855	93.290210
2106.388414	88.333566
2108.052341	86.240559
2109.714237	84.109091
2111.375803	78.705594
2113.037037	72.991608
2114.696243	72.849650
2116.355118	68.283217
2118.013664	70.942657
2119.671880	71.664336
2121.326372	67.479720
2122.983929	70.990210
2124.641157	75.713986
2126.294663	74.758042
2127.949537	74.430070
2129.600692	75.734965
2131.254910	71.079720
2132.905411	67.863636
2134.557278	70.021678
2136.203737	64.834266
2137.854951	63.367133
2139.502451	63.211189
2141.151318	59.519580
2142.798166	59.760140
2144.444689	59.561538
2146.090886	60.374126
2147.733375	57.967133
2149.378922	59.177622
2151.020762	56.798601
2152.665659	59.920280
2154.306850	61.044056
2155.947719	58.715385
2157.588263	61.695105
2159.226795	69.265734
2160.866693	68.534266
2162.502891	68.451748
2164.140455	71.033566
2165.777697	72.881119
2167.412929	67.480420
2169.047840	71.355245
2170.682428	71.539161
2172.316696	71.502797
2173.947270	64.946154
2175.580896	60.502797
2177.210830	61.025874
2178.842129	63.067133
2180.471423	58.433566
2182.100398	59.620979
2183.729053	59.904196
2185.357389	66.547552
2186.983723	65.513287
2188.609738	66.113986
2190.233751	67.109091
2191.859130	64.919580
2193.482508	67.197902
2195.107251	71.038462
2196.728313	74.090909
2198.349058	75.502098
2199.971168	70.772727
2201.591280	68.907692
2203.209395	60.765035
2204.827195	64.867133
2206.444680	57.584615
2208.061849	48.832168
2209.678703	49.730070
2211.295241	45.187413
2212.909787	52.737762
2214.522340	51.072028
2216.136257	52.179021
2217.748183	55.069231
2219.361472	54.204196
2220.972771	55.729371
2222.582080	56.995105
2224.192753	60.149650
2225.801437	62.530070
2227.409808	57.848252
2229.016193	60.137762
2230.623941	56.493007
2232.229702	56.551049
2233.835152	53.051049
2235.438617	50.455245
2237.043445	51.800000
2238.646289	48.564336
2240.247150	54.083217
2241.849374	57.432867
2243.449616	61.883916
2245.051220	75.290210
2246.649171	88.960839
2248.248485	95.911888
2249.845819	99.200699
2251.442845	94.747552
2253.041233	86.429371
2254.635972	74.106294
2256.228734	61.374126
2257.822859	45.751748
2259.418345	41.545455
2261.010186	36.660140
2262.601721	39.274126
2264.194618	44.516084
2265.782205	51.834266
2267.374488	47.274126
2268.961465	54.461538
2270.551469	54.486014
2272.136169	57.269930
2273.725563	65.976923
2275.309655	63.630769
2276.895107	64.976224
2278.478591	68.802098
2280.065100	62.986713
2281.647976	66.565734
2283.230549	62.751748
2284.812818	56.741259
2286.391457	47.869930
2287.973121	52.861538
2289.551156	47.931469
2291.132214	55.629371
2292.709645	59.283916
2294.285113	51.227972
2295.863603	50.279720
2297.438469	46.611888
2299.013034	47.674825
2300.587299	58.929371
2302.161263	67.439860
2303.734926	70.979021
2305.308290	68.232867
2306.878035	73.676923
2308.447481	76.317483
2310.019945	81.831469
2311.587135	84.097203
2313.157343	82.502098
2314.723936	77.067133
2316.291889	77.176923
2317.857886	80.585315
2319.423586	77.642657
2320.988988	81.060140
2322.552437	78.348951
2324.117245	74.344755
2325.678445	78.180420
2327.242659	79.750350
2328.801611	87.474126
2330.363578	90.090210
2331.923593	93.013287
2333.483314	84.988811
2335.041085	79.266434
2336.598561	70.992308
2338.155743	58.073427
2339.710977	57.701399
2341.265918	56.936364
2342.820564	60.909790
2344.374917	49.563636
2345.928977	49.507692
2347.482742	70.015385
2349.034564	68.468531
2350.584442	69.765035
2352.137328	74.132867
2353.684972	71.606294
2355.235623	69.820979
2356.782683	78.458741
2358.331101	86.785315
2359.879228	90.878322
2361.423766	89.060839
2362.969662	78.677622
2364.513620	78.376224
2366.058935	81.469930
2367.600665	74.351748
2369.143752	66.678322
2370.684903	78.958741
2372.225765	74.188112
2373.766338	76.274825
2375.306622	94.552448
2376.846617	93.294406
2378.383034	90.869231
2379.922452	80.861538
2381.458293	81.624476
2382.995490	65.825874
2384.529112	59.313287
2386.065734	46.894406
2387.600426	41.007692
2389.133188	43.498601
2390.665663	49.710490
2392.196210	57.171329
2393.729755	73.011189
2395.258089	74.514685
2396.787780	76.679720
2398.317184	73.002098
2399.846304	85.781119
2401.375139	75.348951
2402.898768	75.531469
2404.427033	62.144056
2405.950096	65.580420
2407.477792	60.798601
2408.998649	56.132168
2410.524139	51.593706
2412.046068	57.633566
2413.569353	50.541958
2415.090716	53.651748
2416.610160	52.098601
2418.130959	63.016783
2419.649840	60.058042
2421.168438	73.925874
2422.685119	78.265734
2424.203154	77.762937
2425.720908	62.095804
2427.235111	56.639860
2428.749033	55.620280
2430.262675	60.488811
2431.777672	58.897902
2433.289120	61.472028
2434.801923	60.984615
2436.312812	70.379720
2437.823423	73.813986
2439.332122	82.602098
2440.843807	72.056643
2442.351949	62.213287
2443.859813	65.974825
2445.367399	72.889510
2446.871444	69.596503
2448.378474	75.378322
2449.883597	72.930070
2451.388441	68.225874
2452.891379	64.206993
2454.394041	64.690210
2455.896426	62.070629
2457.396906	52.060140
2458.898739	46.892308
2460.398667	52.146154
2461.898320	51.989510
2463.397698	53.699301
2464.895173	59.083916
2466.390746	71.900699
2467.889299	81.425175
2469.384324	84.035664
2470.880701	87.195804
2472.373552	91.207692
2473.867756	87.971329
2475.361686	70.490210
2476.852092	67.198601
2478.345476	68.772727
2479.836962	55.414685
2481.326551	64.884615
2482.815868	72.409091
2484.303289	82.858741
2485.793686	86.083916
2487.280565	87.276224
2488.768795	90.554545
2490.253508	90.579021
2491.737952	82.104895
2493.223746	73.427972
2494.707649	84.882517
2496.192902	89.910490
2497.673022	79.595804
2499.156115	76.393706
2500.637317	74.308392
2502.118250	65.648252
2503.597294	57.164336
2505.076069	63.722378
2506.554576	70.775524
2508.032815	64.544755
2509.510785	60.516084
2510.985250	65.334266
2512.462685	73.081818
2513.936616	74.385315
2515.411897	76.483217
2516.886911	81.407692
2518.358425	81.304895
2519.831288	73.427972
2521.302269	75.468531
2522.774600	78.682517
2524.241817	70.731469
2525.712001	56.199301
2527.180304	51.072028
2528.648342	42.951049
2530.116115	51.049650
2531.583623	66.358741
2533.050866	67.960839
2534.514617	77.431469
2535.979718	69.965734
2537.442942	68.429371
2538.907516	65.358741
2540.368600	63.602797
2541.831034	65.493706
2543.293205	76.585315
2544.751890	80.217483
2546.215147	75.465035
2547.673307	89.050350
2549.132816	89.295105
2550.587231	86.625175
2552.046217	85.933566
2553.503331	71.808392
2554.958574	58.969231
2556.413555	55.176923
2557.866668	57.242657
2559.321129	53.338462
2560.773720	65.703497
2562.226052	67.719580
2563.676517	64.316084
2565.129937	62.273427
2566.578275	58.766434
2568.029569	68.495804
2569.478996	68.727273
2570.924951	58.883217
2572.373861	52.740559
2573.819301	56.518182
2575.266088	51.606993
2576.711013	43.535664
2578.155679	57.659441
2579.601693	58.441958
2581.044241	62.147552
2582.488136	63.447552
2583.928566	64.003497
2585.370343	69.926573
2586.810261	69.395804
2588.251526	72.025874
2589.689329	76.220280
2591.130082	75.947552
2592.565773	74.611888
2594.004413	74.835664
2595.441195	72.379021
2596.876122	69.816783
2598.313996	73.396503
2599.746813	76.054545
2601.180977	65.371329
2602.613287	66.118881
2604.046943	66.310490
2605.478746	68.899301
2606.910295	72.988112
2608.341592	72.853147
2609.771036	79.787413
2611.200228	85.354545
2612.627570	77.712587
2614.056257	82.260140
2615.484693	84.123776
2616.909681	86.483217
2618.336016	84.279720
2619.760502	84.779720
2621.186334	84.023776
2622.608722	83.516084
2624.032456	85.060140
2625.454343	78.332168
2626.875981	76.244056
2628.295773	77.162238
2629.716911	72.820979
2631.137799	73.052448
2632.555249	74.557343
2633.975638	75.400000
2635.392590	79.060140
2636.809293	84.022378
2638.225748	94.035664
2639.641955	96.904196
2641.057914	100.219580
2642.472032	93.630070
2643.885902	97.106993
2645.297934	95.853846
2646.711309	93.194406
2648.121255	83.083217
2649.534137	80.745455
2650.943590	74.343357
2652.352797	74.301399
2653.760168	77.139161
2655.170473	69.992308
2656.578943	71.711888
2657.985577	83.400699
2659.391966	85.913986
2660.796521	94.465035
2662.202420	98.904196
2663.606486	103.813287
2665.010307	105.466434
2666.413884	116.116783
2667.815630	120.606993
2669.218719	124.182517
2670.618390	113.674126
2672.019405	109.483916
2673.417004	112.553147
2674.817533	107.802797
2676.214646	101.037762
2677.613103	96.125175
2679.009733	97.939161
2680.406120	103.611888
2681.802265	110.772028
2683.196585	119.377622
2684.592246	119.651748
2685.984499	120.524476
2687.378094	123.513287
2688.769865	130.777622
2690.162979	128.811888
2691.554269	124.693007
2692.943736	122.176923
2694.332963	121.758042
2695.721951	124.614685
2697.112280	130.973427
2698.497626	129.718881
2699.885895	130.632168
2701.272344	132.153846
2702.658554	141.854545
2704.044525	149.926573
2705.427098	157.229371
2706.811013	168.676224
2708.194690	177.260140
2709.578128	186.787413
2710.958172	193.946154
2712.339556	206.255944
2713.719126	211.585315
2715.100036	213.783217
2716.479132	215.636364
2717.856414	209.821678
2719.235037	208.841958
2720.611847	204.005594
2721.988420	198.423077
2723.364758	182.191608
2724.739285	171.610490
2726.115152	165.943357
2727.487632	153.383916
2728.863028	153.547552
2730.233464	147.480420
2731.605241	136.183916
2732.976783	125.580420
2734.346517	126.163636
2735.717592	136.173427
2737.086858	139.492308
2738.455891	132.256643
2739.823118	128.842657
2741.190112	134.573427
2742.556872	124.680420
2743.923401	115.653846
2745.288124	111.065734
2746.652615	102.418182
2748.016875	92.093007
2749.380902	91.020979
2750.744698	93.241259
2752.105120	94.669930
2753.468452	92.309790
2754.826842	92.944755
2756.188142	95.021678
2757.546072	100.504196
2758.906910	88.067832
2760.265949	93.447552
2761.621619	90.635664
2762.980197	87.364336
2764.335408	78.468531
2765.690390	79.244056
2767.043576	77.416084
2768.399668	71.978322
2769.752395	64.296503
2771.104895	59.406993
2772.457166	59.098601
2773.810776	67.841958
2775.161024	66.389510
2776.509478	68.962937
2777.860838	69.169930
2779.208838	69.156643
2780.558176	61.476923
2781.905722	67.575524
2783.253042	62.598601
2784.600135	48.886713
2785.945437	47.569231
2787.290512	45.574825
2788.635362	52.434266
2789.979986	51.603497
2791.321258	49.964336
2792.663868	56.809790
2794.006252	63.920979
2795.348411	60.465734
2796.687221	59.351748
2798.028931	58.600699
2799.367293	55.942657
2800.706991	58.755944
2802.044905	65.323776
2803.381034	68.786014
2804.716939	70.499301
2806.054182	63.734266
2807.389641	62.418182
2808.724877	61.951748
2810.058330	59.079720
2811.393120	43.819580
2812.724570	46.547552
2814.058915	45.797203
2815.388362	46.944056
2816.719146	52.545455
2818.049708	57.264336
2819.378491	64.134965
2820.708610	71.211189
2822.036951	63.870629
2823.365071	61.344755
2824.691413	58.418881
2826.019092	60.244755
2827.343437	54.727273
2828.669119	56.028671
2829.993025	56.155245
2831.316712	52.767133
2832.641734	54.332867
2833.963426	55.669930
2835.284900	54.353147
2836.606155	61.803497
2837.927191	60.196503
2839.246454	70.814685
2840.567053	68.896503
2841.885881	75.301399
2843.204490	76.006993
2844.521328	66.817483
2845.837949	68.579720
2847.154353	57.395105
2848.468987	47.093007
2849.784957	39.270629
2851.097606	34.031469
2852.411590	35.319580
2853.725358	39.810490
2855.038909	51.841958
2856.350694	53.751748
2857.660712	60.525175
2858.972065	62.678322
2860.280103	55.288112
2861.589475	59.665035
2862.898633	52.027273
2864.207575	56.036364
2865.514753	55.724476
2866.820169	51.895804
2868.126919	45.286014
2869.431906	47.379720
2870.736680	54.358741
2872.039692	54.491608
2873.345585	45.225175
2874.646624	49.306294
2875.948997	43.471329
2877.249610	37.474126
2878.551557	33.042657
2879.853290	41.406993
2881.151720	35.592308
2882.451483	31.151049
2883.749489	35.320280
2885.047283	41.692308
2886.343321	49.571329
2887.640692	48.724476
2888.936307	49.460140
2890.231711	59.846154
2891.526904	63.450350
2892.818800	62.413986
2894.113572	59.187413
2895.405047	59.422378
2896.697855	56.079720
2897.990453	53.126573
2899.279757	54.582517
2900.570393	49.265734
2901.859278	51.032168
2903.149495	44.551748
2904.436421	51.689510
2905.724679	58.627972
2907.011188	74.956643
2908.297489	82.072727
2909.583581	84.643357
2910.867925	84.081818
2912.155140	86.137762
2913.437529	80.554545
2914.721250	76.566434
2916.003225	67.193007
2917.284992	68.325175
2918.565015	56.206294
2919.847907	58.585315
2921.129054	58.440559
2922.406919	59.383916
2923.687653	54.730070
2924.965106	53.547552
2926.242353	45.053846
2927.517858	42.467133
2928.796231	41.033566
2930.069790	42.606993
2931.346216	42.700699
2932.620901	39.076224
2933.893845	38.657343
2935.168121	45.791608
2936.440657	45.434965
2937.712988	47.105594
2938.982047	47.490210
2940.253971	56.079720
2941.524157	59.210490
2942.794139	69.720280
2944.063918	71.269231
2945.331961	69.653846
2946.598267	68.347552
2947.864372	63.836364
2949.131806	61.628671
2950.397506	58.472028
2951.663003	59.993706
2952.928298	62.359441
2954.190328	56.352448
2955.453688	61.567133
2956.716847	59.223077
2957.978274	64.365035
2959.241030	57.234965
2960.502054	50.721678
2961.761348	53.267133
2963.020442	48.702797
2964.279335	43.686014
2965.538028	51.993007
2966.796521	54.642657
2968.053285	51.432867
2969.309849	42.714685
2970.564686	51.033566
2971.820851	45.024476
2973.073762	43.957343
2974.328002	46.340559
2975.582043	44.685315
2976.834358	53.248951
2978.086474	48.274825
2979.336866	49.009091
2980.590113	48.653147
2981.838583	49.375524
2983.089908	53.501399
2984.337983	52.298601
2985.585862	51.997902
2986.833543	38.453846
2988.081027	47.949650
2989.326790	45.524476
2990.572357	48.387413
2991.819251	56.315385
2993.062901	54.757343
2994.307879	54.795804
2995.549613	54.147552
2996.794199	48.840559
2998.037066	46.395804
2999.276692	33.795804
3000.519168	24.972028
3001.758404	22.248252
3002.998968	29.454545
3004.237816	23.757343
3005.476468	28.677622
3006.713406	32.522378
3007.951670	27.677622
3009.188219	34.123077
3010.424575	35.572727
3011.660737	33.867832
3012.895185	41.423077
3014.129441	39.720280
3015.363503	42.345455
3016.595853	46.014685
3017.826491	48.068531
3019.059975	44.132168
3020.291747	38.507692
3021.521809	33.556643
3022.751679	35.421678
3023.979839	48.793706
3025.209325	53.120979
3026.437102	58.695804
3027.664688	57.030070
3028.893601	51.948951
3030.117771	53.708392
3031.344784	48.080420
3032.568573	45.751748
3033.793689	43.656643
3035.017098	40.248252
3036.240317	37.936364
3037.461831	43.866434
3038.686186	52.465734
3039.905806	55.609790
3041.126752	51.115385
3042.347509	51.806993
3043.566562	53.751049
3044.786940	58.389510
3046.004102	49.339161
3047.222590	54.584615
3048.439375	58.541259
3049.655973	51.920979
3050.872382	46.376923
3052.085579	43.155245
3053.301613	45.089510
3054.514435	39.890210
3055.730094	37.777622
3056.941030	43.813287
3058.153291	47.865734
3059.365366	50.906993
3060.577253	45.843357
3061.787444	50.038462
3062.997448	52.527972
3064.207266	50.693007
3065.415388	46.005594
3066.623325	45.791608
3067.829566	45.010490
3069.037132	46.533566
3070.243003	46.249650
3071.448690	47.600699
3072.654191	45.875524
3073.857999	40.693007
3075.063131	36.397203
3076.266570	31.493007
3077.468318	33.857343
3078.669881	33.066434
3079.871261	34.830070
3081.072457	36.900000
3082.271963	35.569231
3083.471286	40.734266
3084.671932	44.838462
3085.870888	53.268531
3087.066650	56.839860
3088.265241	49.988811
3089.460638	52.323776
3090.657358	50.265734
3091.850886	54.194406
3093.047242	48.183916
3094.241912	40.741958
3095.433391	37.200699
3096.629201	32.153846
3097.820318	28.819580
3099.012757	26.496503
3100.202009	28.000000
3101.394086	32.767832
3102.584480	24.227273
3103.771688	36.006993
3104.960219	48.541958
3106.150071	49.956643
3107.336740	47.841259
3108.523228	51.430070
3109.709538	56.600000
3110.897169	48.907692
3112.081618	42.088811
3113.264388	43.203497
3114.449980	42.920280
3115.633893	45.081818
3116.816127	36.667133
3117.998182	49.731469
3119.180059	56.028671
3120.361758	52.357343
3121.541780	54.018182
3122.720125	53.897203
3123.901290	51.630769
3125.079280	51.512587
3126.257094	56.789510
3127.434730	58.718881
3128.610691	59.218182
3129.786475	60.206993
3130.963581	53.625175
3132.139012	67.024476
3133.312770	64.806993
3134.484855	66.723077
3135.658262	68.442657
3136.831492	59.898601
3138.003051	60.014685
3139.175930	52.790909
3140.345642	45.881818
3141.516675	41.714685
3142.686038	41.581818
3143.853730	35.820979
3145.024238	29.111189
3146.190088	35.460839
3147.360246	31.623077
3148.525748	38.758042
3149.691075	42.272727
3150.856229	41.811888
3152.021210	43.295804
3153.187510	38.282517
3154.349158	36.173427
3155.512125	39.276224
3156.674920	37.859441
3157.837542	36.760140
3158.998499	36.891608
3160.159283	41.657343
3161.319895	39.451049
3162.478843	41.484615
3163.637620	38.890909
3164.796225	38.251748
3165.954657	32.111189
3167.112919	26.172727
3168.269518	26.236364
3169.424456	24.919580
3170.580713	23.833566
3171.735309	25.576923
3172.889735	30.482517
3174.042501	40.035664
3175.195096	45.260140
3176.347522	37.173427
3177.499778	30.868531
3178.651863	25.071329
3179.800803	21.478322
3180.952549	20.331469
3182.102637	23.576224
3183.251069	26.690210
3184.399331	30.641259
3185.547425	35.032867
3186.695350	45.034266
3187.841619	54.177622
3188.987720	57.726573
3190.132167	51.839860
3191.276446	49.734965
3192.420557	44.712587
3193.565985	44.877622
3194.708275	43.111888
3195.850398	38.801399
3196.992353	44.856643
3198.134141	40.321678
3199.275762	35.579720
3200.414248	33.874126
3201.554051	35.541259
3202.695172	39.163636
3203.833158	50.148252
3204.969495	45.997902
3206.105666	51.051748
3207.243154	51.348951
3208.378994	56.846853
3209.516151	52.766434
3210.648695	59.046853
3211.785521	58.599301
3212.917735	53.509790
3214.051266	53.214685
3215.184633	52.190210
3216.314872	54.965035
3217.447909	53.783217
3218.577820	43.423077
3219.709047	46.776923
3220.837150	39.858741
3221.968049	45.314685
3223.097304	37.232867
3224.224916	39.027273
3225.349405	44.356643
3226.478170	49.662937
3227.603813	53.211189
3228.729294	50.518881
3229.853133	52.265734
3230.979766	51.116084
3232.101802	53.058741
3233.225154	54.269930
3234.348344	45.960140
3235.471372	49.005594
3236.592760	44.417483
3237.713986	43.381119
3238.833575	46.209091
3239.953002	46.597902
3241.070791	47.604196
3242.191372	51.532168
3243.308840	59.002797
3244.426147	61.529371
3245.543294	57.325175
3246.658805	55.218881
3247.775630	48.319580
3248.889346	48.919580
3250.005851	44.477622
3251.120722	42.235664
3252.232484	39.409790
3253.344086	37.462937
3254.457004	46.719580
3255.569762	47.611189
3256.679414	45.195105
3257.790381	41.107692
3258.901189	33.103497
3260.010365	34.827972
3261.117911	32.232168
3262.226770	34.944056
3263.335472	38.099301
3264.441071	36.910490
3265.547984	39.916084
3266.653268	35.106294
3267.759866	35.700699
3268.863364	33.111189
3269.968177	29.623077
3271.072832	36.502797
3272.174388	33.151748
3273.275788	43.850350
3274.378502	45.239860
3275.481060	44.686713
3276.580521	48.632168
3277.682766	40.283217
3278.781915	38.807692
3279.879440	27.840559
3280.976809	23.219580
3282.076960	23.216084
3283.174019	22.111189
3284.270922	33.218881
3285.367670	30.974126
3286.459860	40.773427
3287.556298	40.781119
3288.651114	43.486713
3289.745776	50.785315
3290.838816	49.276923
3291.931701	50.590909
3293.022967	43.530769
3294.115544	41.900699
3295.206502	38.764336
3296.295840	39.216084
3297.385025	35.625874
3298.475523	34.691608
3299.562936	35.813287
3300.650196	35.039860
3301.738769	31.984615
3302.827190	30.229371
3303.911063	37.488112
3304.999178	40.200000
3306.084211	37.076923
3307.167629	33.910490
3308.252359	35.996503
3309.335473	38.953147
3310.419900	45.143357
3311.501248	47.737762
3312.583908	44.390909
3313.664954	43.320280
3314.745849	39.898601
3315.825130	36.496503
3316.904261	35.517483
3317.984704	30.858042
3319.062072	22.244755
3320.140752	18.414685
3321.217820	28.297203
3322.294739	29.460839
3323.370046	39.208392
3324.445204	34.016084
3325.521673	43.048252
3326.595072	52.202797
3327.668322	60.267832
3328.742882	53.807692
3329.815834	54.173427
3330.887177	53.796503
3331.959831	45.095804
3333.029419	44.762238
3334.100317	45.115385
3335.169608	36.374126
3336.240210	37.545455
3337.309205	37.909091
3338.376594	43.341259
3339.442378	44.584615
3340.512388	43.584615
3341.579335	38.334965
3342.643220	36.955245
3343.709873	34.162238
3344.774921	29.331469
3345.838366	26.043357
3346.901665	24.414685
3347.964817	19.288811
3349.027823	24.465734
3350.090683	26.762937
3351.151941	26.485315
3352.210142	25.610490
3353.272563	31.173427
3354.331929	31.442657
3355.391149	24.665734
3356.451679	29.441259
3357.507699	27.138462
3358.566483	22.334965
3359.620760	17.535664
3360.677801	17.043357
3361.733243	24.165734
3362.789995	25.137762
3363.845148	35.180420
3364.898704	31.057343
3365.950664	37.531469
3367.005385	37.681818
3368.057057	36.332168
3369.108586	41.900000
3370.161423	42.326573
3371.211213	38.026573
3372.262312	32.050350
3373.310365	35.283217
3374.361177	40.919580
3375.408945	40.847552
3376.456570	48.529371
3377.504052	37.928671
3378.549942	34.218881
3379.597140	32.177622
3380.641296	26.603497
3381.688210	26.482517
3382.733532	29.869231
3383.775813	27.821678
3384.817954	35.765035
3385.861402	43.937063
3386.904709	50.174825
3387.946427	55.681119
3388.988003	59.181119
3390.029438	52.337063
3391.069285	42.221678
3392.107543	39.188811
3393.147109	34.490909
3394.186535	33.044755
3395.224373	33.334965
3396.260624	37.432867
3397.296736	36.781119
3398.334155	29.555944
3399.368541	30.281119
3400.404234	28.394406
3401.439788	30.851049
3402.472311	20.079720
3403.507587	14.504196
3404.539832	20.579021
3405.571939	24.641259
3406.602462	23.509790
3407.634292	25.405594
3408.665984	29.723077
3409.694648	24.720979
3410.723175	27.625874
3411.753008	37.947552
3412.782704	46.280420
3413.809374	53.279021
3414.837351	45.406993
3415.862303	49.468531
3416.890005	52.549650
3417.914684	48.270629
3418.940669	43.674126
3419.965074	39.495804
3420.989343	34.814685
3422.012033	29.600699
3423.034587	29.272727
3424.058447	33.760839
3425.079287	39.203497
3426.099991	41.274326
3427.122002	43.239660
3428.140994	45.104396
3429.159850	46.873427
3430.180013	48.551648
3431.197159	50.143956
