-118.059454	7.285989
-115.389854	1.778022
-112.723189	-1.357293
-110.057276	-2.543556
-107.394295	-2.204371
-104.729885	-0.763337
-102.068405	1.355944
-99.405496	1.656643
-96.747693	5.563636
-94.088461	6.137063
-91.429977	10.267832
-88.774417	10.230769
-86.117429	9.571329
-83.465539	10.850350
-80.812218	10.733566
-78.161818	8.531469
-75.509988	7.216084
-72.863249	3.879021
-70.215081	3.979021
-67.567655	0.877622
-64.923143	-0.867133
-62.277203	-0.795105
-59.636344	1.833566
-56.994056	4.004895
-54.354677	6.857343
-51.713868	6.982517
-49.073800	7.590909
-46.438804	7.301399
-43.802380	8.902797
-41.168858	6.649650
-38.533908	9.520280
-35.904023	7.127972
-33.270546	9.432168
-30.642131	9.865734
-28.014450	13.823077
-25.385340	10.193706
-22.761287	-5.569930
-20.133645	-66.670629
-17.511056	-162.862238
-14.889199	-248.980420
-12.268072	177.317483
-9.647675	930.920280
-7.030167	1557.161538
-4.411230	1990.512587
-1.795178	2238.809091
0.820145	2289.388112
3.434741	2152.084615
6.046454	1821.312587
8.659596	1318.057343
11.267704	676.269231
13.879394	37.468531
16.486053	-375.581818
19.094140	-235.431469
21.701503	-18.283916
24.303841	7.802098
26.909757	6.009790
29.510651	7.022378
32.112973	3.927972
34.710278	3.274825
37.311158	1.790210
39.907023	3.009790
42.504317	2.459441
45.100891	5.294406
47.692456	5.835664
50.285449	8.498601
52.875581	6.955944
55.467141	5.574126
58.055841	2.198601
60.645968	1.976224
63.231096	0.818182
65.817652	3.575524
68.403494	4.847552
70.986482	7.379720
73.570896	7.804196
76.148182	9.773427
78.729034	6.942657
81.307037	9.697203
83.884330	6.136364
86.463049	4.275524
89.036786	2.984615
91.611951	3.753147
94.184272	1.995804
96.755885	1.729371
99.324658	2.458741
101.894858	2.922378
104.462220	2.800699
107.031007	4.369231
109.596958	3.439161
112.160074	5.786014
114.726746	3.929371
117.284197	7.732168
119.847333	9.859441
122.405509	12.193706
124.967240	12.551049
127.524014	15.202098
130.082215	18.223077
132.635462	24.202797
135.188012	31.367133
137.744112	39.802098
140.295264	46.112587
142.845719	50.685315
145.395476	55.315385
147.942414	63.802797
150.488657	65.026573
153.036325	68.104196
155.583297	64.153147
158.125334	61.403497
160.666677	57.779021
163.207327	59.379021
165.749403	59.280420
168.288667	59.802098
170.825123	58.498601
173.360887	59.351748
175.898077	58.348951
178.434576	62.281119
180.968269	60.446853
183.499158	59.865734
186.029360	59.323077
188.560986	59.608392
191.089811	60.330070
193.615837	65.051748
196.141177	65.837063
198.667942	67.701399
201.191911	66.893706
203.715195	69.533566
206.237794	67.366434
208.757600	66.827972
211.276723	61.309790
213.795163	59.895804
216.315027	58.596503
218.827890	57.200699
221.344284	56.155245
223.859996	57.235664
226.370818	56.244056
228.883065	60.500699
231.392530	60.339860
233.901316	66.487413
236.409423	68.316084
238.918955	69.561538
241.423606	70.173427
243.927581	71.593706
246.432980	69.499301
248.933504	69.567832
251.437552	66.957343
253.934628	66.736364
256.435228	66.285315
258.933056	69.867133
261.430211	70.748951
263.926693	72.366434
266.418312	71.773427
268.913451	69.592308
271.405823	71.410490
273.897525	73.306294
276.386464	71.094406
278.876827	68.695105
281.364427	68.075524
283.849268	66.391608
286.337624	65.445455
288.819040	69.142657
291.303970	69.320280
293.784055	69.337762
296.267652	70.432867
298.746406	74.251049
301.226584	78.431469
303.704009	81.769231
306.180771	81.581818
308.656870	82.645455
311.130220	84.502098
313.602908	89.795105
316.074935	92.653147
318.546301	96.707692
321.014922	96.920280
323.482885	98.927273
325.952269	97.761538
328.416831	97.532867
330.884897	94.027972
333.348143	91.670629
335.810731	84.969231
338.272663	80.305594
340.733938	77.074825
343.192479	80.606993
345.652442	76.998601
348.109672	77.597203
350.566248	79.455245
353.022170	82.274825
355.475362	83.699301
357.929977	86.688811
360.379790	88.232867
362.833099	87.288112
365.281610	85.597203
367.729469	84.056643
370.178751	80.950350
372.623239	80.025175
375.069149	73.579720
377.514409	74.593007
379.956951	73.635664
382.398845	73.671329
384.840092	73.758042
387.278623	76.595804
389.718576	77.279720
392.155815	79.087413
394.590342	81.142657
397.028357	83.158042
399.461595	81.865035
401.896254	83.106993
404.326141	83.746154
406.759513	88.500000
409.188115	85.907692
411.616075	84.590210
414.045457	83.195804
416.470073	85.467133
418.896111	82.249650
421.321508	80.272727
423.746265	78.399301
426.166264	76.874126
428.587684	74.514685
431.006407	79.126573
433.426551	82.421678
435.844000	86.874825
438.262869	86.060140
440.679045	89.922378
443.090473	91.223776
445.505379	94.020280
447.917594	91.896503
450.329175	93.990210
452.740122	94.437762
455.148383	92.221678
457.556011	88.755944
459.963007	89.752448
462.369372	86.578322
464.773054	87.318182
467.176106	84.828671
469.578528	83.688112
471.980320	79.730769
474.379435	77.731469
476.779969	75.961538
479.179874	80.293007
481.575056	80.558042
483.973705	80.688112
486.367634	81.077622
488.760937	83.326573
491.153614	80.589510
493.545666	81.050350
495.939136	76.228671
498.327894	72.410490
500.713986	69.665035
503.101498	68.145455
505.488387	64.413287
507.872612	64.740559
510.258255	61.091608
512.641237	60.309091
515.021558	58.300699
517.403298	54.015385
519.782379	46.534965
522.162879	46.000699
524.540721	41.871329
526.915908	40.597902
529.290477	39.407692
531.666464	41.441958
534.039799	40.756643
536.414551	41.832867
538.784618	41.223776
541.154069	43.537762
543.524938	42.649650
545.891127	42.662238
548.258734	39.637762
550.623695	44.011189
552.988043	43.790909
555.351778	45.130769
557.716931	45.876923
560.077412	44.986014
562.439311	43.130769
564.798569	41.874825
567.155190	40.655245
569.515255	42.249650
571.868629	39.627273
574.225448	40.863636
576.579632	40.113287
578.933208	42.672727
581.286175	42.469930
583.636510	43.780420
585.988263	42.920979
588.333339	42.553846
590.683879	45.074126
593.027745	47.062238
595.377073	47.356643
597.721752	47.253846
600.063807	44.627273
602.407279	45.533566
604.748128	42.114685
607.088375	39.493007
609.426001	36.783217
611.767062	38.230070
614.103485	36.636364
616.441325	38.858042
618.776548	42.753147
621.109155	44.436364
623.443178	43.702098
625.774587	42.518881
628.105398	41.469231
630.435612	38.597902
632.765227	35.445455
635.090220	33.962238
637.420653	34.361538
639.746466	35.590210
642.069671	35.521678
644.394293	38.440559
646.716309	41.096503
649.037731	44.395105
651.356551	41.283916
653.676786	41.792308
655.996428	40.754545
658.313469	39.341259
660.629918	37.325175
662.943769	37.628671
665.259036	37.378322
667.571706	37.547552
669.885791	39.359441
672.195276	39.853147
674.506177	38.842657
676.814485	40.074825
679.122205	34.715385
681.431339	34.859441
683.735881	32.905594
686.039837	32.679021
688.343207	28.937063
690.647991	32.382517
692.948189	30.271329
695.249801	33.249650
697.550829	35.240559
699.847274	35.844056
702.145135	36.616783
704.442412	37.718182
706.739106	37.001399
709.031224	37.823776
711.326753	34.843357
713.617708	34.169231
715.910078	30.477622
718.199873	32.886713
720.489087	30.516783
722.777722	31.934965
725.063784	30.464336
727.351261	29.971329
729.636166	31.385315
731.920494	31.956643
734.202253	32.626573
736.485426	35.472727
738.768022	31.616084
741.046062	29.172028
743.325517	25.983916
745.604395	26.957343
747.882699	25.481818
750.156453	26.697203
752.431620	26.382517
754.706214	29.912587
756.978249	33.220280
759.251697	37.144056
761.522587	39.288811
763.790921	45.530070
766.060668	45.053846
768.327861	44.422378
770.594483	42.245455
772.860535	42.623776
775.124036	42.676923
777.388950	44.565035
779.653294	41.787413
781.913109	43.394406
784.174336	40.094406
786.434996	40.202098
788.693110	39.097203
790.948679	41.864336
793.207639	39.883217
795.460100	39.860140
797.717927	38.357343
799.971236	39.204196
802.222005	40.865734
804.474186	44.146853
806.723828	40.058741
808.974883	41.578322
811.221426	39.376224
813.469381	40.564336
815.714802	37.112587
817.961634	37.638462
820.207905	33.501399
822.449671	35.360140
824.694821	35.040559
826.933498	37.407692
829.175557	41.118881
831.413118	43.867133
833.652091	41.611888
835.888537	41.213287
838.126394	38.662238
840.361726	34.863636
842.594535	28.121678
844.828755	25.934965
847.060452	21.649650
849.291595	25.402098
851.522183	25.187413
853.752217	28.472028
855.981697	30.022378
858.206695	32.477622
860.435068	32.430769
862.658961	33.127972
864.884266	35.372028
867.105095	36.276224
869.329296	34.612587
871.549024	34.429371
873.770162	34.381119
875.990750	37.783217
878.208829	32.140559
880.428317	31.222378
882.643339	27.391608
884.857814	27.734965
887.071740	25.238462
889.285120	24.408392
891.497952	27.165734
893.710238	28.965035
895.920021	28.356643
898.129259	32.901399
900.337952	35.504196
902.544146	38.965035
904.751749	34.368531
906.956854	38.567133
909.161416	37.042657
911.363483	39.378322
913.566959	35.992308
915.767941	33.311189
917.968381	35.301399
920.170230	34.584615
922.365688	34.586014
924.564505	39.351049
926.758883	37.308392
928.956619	33.972727
931.149919	30.899301
933.344628	33.488112
935.536851	30.596503
937.728535	34.862937
939.919682	34.889510
942.108346	33.589510
944.296474	34.053147
946.482121	35.632168
948.671120	33.607692
950.855696	35.574825
953.039737	32.620979
955.227128	30.513287
957.406215	28.150350
959.588653	27.626573
961.770557	26.074126
963.949986	32.095105
966.126943	30.885315
968.305308	29.445455
970.485080	32.396503
972.658503	39.146154
974.835272	34.360140
977.007634	40.929371
979.181404	41.300699
981.350770	41.393706
983.523480	39.752448
985.693725	40.106294
987.863441	39.104895
990.032628	38.671329
992.197418	37.783217
994.365549	39.567832
996.529286	48.011189
998.694429	50.689510
1000.857113	48.418182
1003.019272	53.988112
1005.178974	53.527972
1007.338151	54.401399
1009.498735	56.513287
1011.656865	61.533566
1013.814470	56.363636
1015.971552	56.280420
1018.128110	55.237063
1020.280289	50.595105
1022.433875	43.788811
1024.586939	35.220979
1026.737554	35.586713
1028.889576	29.882517
1031.037224	26.449650
1033.188204	31.941259
1035.334813	31.560140
1037.480903	43.725874
1039.626475	46.388811
1041.773452	62.306294
1043.914140	61.309091
1046.058158	67.169231
1048.199735	61.130070
1050.340796	61.386713
1052.483261	59.753147
1054.619447	61.130070
1056.758958	60.596503
1058.894115	63.927273
1061.032596	59.765035
1063.166723	76.077622
1065.300337	72.071329
1067.435356	80.748951
1069.566025	78.125175
1071.698099	78.344755
1073.827744	70.608392
1075.956877	66.478322
1078.085498	52.361538
1080.213608	56.732168
1082.339292	47.235664
1084.464466	46.425874
1086.591044	44.667133
1088.713284	44.975524
1090.836929	32.696503
1092.956239	38.002797
1095.080779	38.783217
1097.199073	32.161538
1099.318772	32.684615
1101.436052	33.359441
1103.552826	27.521678
1105.669093	35.540559
1107.782944	30.640559
1109.898200	36.158042
1112.009132	37.062937
1114.123377	36.336364
1116.233301	37.448951
1118.344629	45.225874
1120.455452	44.806294
1122.561959	43.023077
1124.671776	45.862937
1126.777278	50.463636
1128.884183	48.046853
1130.984873	45.630769
1133.090775	44.308392
1135.192368	40.765035
1137.295364	43.245455
1139.397859	40.142657
1141.494147	42.361538
1143.595643	48.442657
1145.692835	44.723776
1147.789530	48.769231
1149.885726	50.981119
1151.981425	49.725874
1154.076625	46.030769
1156.169429	42.489510
1158.263636	41.975524
1160.351651	33.734965
1162.444864	38.555245
1164.531889	32.558741
1166.622213	32.009790
1168.708250	35.776923
1170.797584	34.052448
1172.880737	37.222378
1174.965292	39.468531
1177.051249	40.471329
1179.132924	36.565035
1181.216001	34.972727
1183.296692	34.644056
1185.376891	32.985315
1187.456599	34.880420
1189.535816	32.746853
1191.612651	34.753147
1193.687105	40.073427
1195.764850	37.952448
1197.838326	35.967133
1199.913202	37.956643
1201.983811	36.659441
1204.055821	29.881818
1206.125456	30.267832
1208.196491	30.716084
1210.267038	30.518881
1212.333324	32.230070
1214.401011	36.644056
1216.466326	38.127273
1218.533041	37.012587
1220.595500	33.592308
1222.661244	33.430070
1224.722734	34.630769
1226.785625	31.618881
1228.846148	28.955944
1230.906187	30.272028
1232.965744	33.089510
1235.022935	32.548951
1237.079645	35.075524
1239.133991	37.388811
1241.191619	36.579021
1243.246884	36.128671
1245.297908	37.783916
1247.350332	41.674825
1249.402276	41.667133
1251.451862	43.209091
1253.500969	39.459441
1255.549598	40.602098
1257.597748	40.777622
1259.645419	40.448252
1261.688860	40.255944
1263.735577	38.628671
1265.779940	41.212587
1267.823827	45.141958
1269.865362	48.216783
1271.904548	50.258741
1273.947007	45.634965
1275.985243	47.638462
1278.024878	40.515385
1280.064038	42.047552
1282.098979	41.637063
1284.135319	41.976224
1286.169315	34.975524
1288.204708	35.671329
1290.235889	37.355944
1292.268467	39.732168
1294.300574	40.220979
1296.330340	39.811189
1298.361504	34.986014
1300.388460	34.962937
1302.416814	32.046853
1304.440963	30.405594
1306.468378	22.669231
1308.491590	19.967133
1310.516200	13.404895
1312.538476	19.277622
1314.562149	18.059441
1316.583489	23.794406
1318.604361	31.136364
1320.624766	34.630070
1322.640978	35.904196
1324.658587	40.151049
1326.673868	39.593007
1328.692408	33.406294
1330.706759	27.821678
1332.718784	26.270629
1334.734066	24.097203
1336.745163	27.423776
1338.757657	22.450350
1340.765968	25.360140
1342.777534	28.325175
1344.783062	29.863636
1346.791845	31.086014
1348.796450	36.921678
1350.804309	38.395804
1352.811706	38.902098
1354.813072	40.719580
1356.815834	40.769231
1358.818137	40.888112
1360.819980	39.072028
1362.821363	31.806993
1364.820433	31.762238
1366.819044	30.725175
1368.817197	29.037063
1370.814891	27.858042
1372.808423	33.478322
1374.803351	30.562937
1376.797821	28.560140
1378.791835	29.646154
1380.783542	29.688811
1382.774794	28.506993
1384.763740	27.693706
1386.754081	25.386713
1388.743967	24.325175
1390.731549	21.969231
1392.718678	24.883217
1394.703505	27.336364
1396.689727	30.831469
1398.673649	27.631469
1400.657118	30.116084
1402.640134	31.085315
1404.620853	34.446154
1406.602966	36.356643
1408.582783	37.166434
1410.562148	35.812587
1412.537375	33.674825
1414.515840	32.274825
1416.492012	34.548951
1418.467735	31.916084
1420.443008	28.853147
1422.415990	27.092308
1424.388524	27.826573
1426.360610	26.960839
1428.332249	29.780420
1430.299759	33.429371
1432.272343	33.545455
1434.237122	33.646154
1436.206972	33.595804
1438.172699	31.082517
1440.139818	29.989510
1442.104654	26.015385
1444.065370	23.216084
1446.031154	24.700000
1447.990983	25.544755
1449.952206	26.598601
1451.914821	33.176224
1453.873321	39.054545
1455.831378	39.028671
1457.788994	40.223077
1459.746167	39.210490
1461.701065	35.480420
1463.657356	30.067832
1465.611372	28.579720
1467.564947	22.948252
1469.516250	20.892308
1471.468946	20.019580
1473.419369	19.149650
1475.369354	24.612587
1477.318900	24.128671
1479.266177	23.423776
1481.211186	22.546853
1483.157588	25.480420
1485.103552	24.349650
1487.049079	26.018881
1488.992340	32.246154
1490.935166	29.207692
1492.875728	32.169930
1494.817681	35.845455
1496.757372	37.505594
1498.696629	41.841259
1500.635450	38.902797
1502.572012	37.113986
1504.509965	32.314685
1506.445659	37.474126
1508.380920	35.702098
1510.313925	42.807692
1512.246497	43.479021
1514.178637	41.581119
1516.110345	39.293706
1518.039799	43.372028
1519.970644	41.044755
1521.901057	45.478322
1523.827398	41.815385
1525.755130	39.883217
1527.680611	35.837762
1529.605663	39.537762
1531.530286	37.869231
1533.454480	40.375524
1535.376426	38.338462
1537.299763	36.981119
1539.220853	34.518881
1541.139700	37.404196
1543.059935	34.387413
1544.977928	40.976224
1546.895494	36.803497
1548.810818	39.725175
1550.727532	39.597902
1552.640191	44.009091
1554.556054	45.662238
1556.469677	50.044056
1558.381062	59.251049
1560.293837	65.880420
1562.202562	70.413287
1564.112676	81.499301
1566.022367	92.255944
1567.931635	109.059441
1569.838669	125.524476
1571.743470	155.297203
1573.649660	189.447552
1575.553618	221.655245
1577.457155	241.449650
1579.360272	252.180420
1581.261159	256.581119
1583.163435	243.342657
1585.063483	217.985315
1586.964918	188.977622
1588.862320	154.747552
1590.759303	122.148951
1592.655868	95.713986
1594.553821	80.813986
1596.445939	70.503497
1598.341250	64.962238
1600.236144	57.123077
1602.128816	55.497902
1604.021071	53.398601
1605.911107	48.712587
1607.800727	44.972727
1609.689932	40.826573
1611.578722	36.184615
1613.465294	30.279021
1615.353254	29.656643
1617.237197	30.551748
1619.122527	32.816783
1621.007444	34.447552
1622.890147	34.166434
1624.774237	39.519580
1626.654315	36.548951
1628.535781	40.596503
1630.415036	47.820280
1632.295677	46.581818
1634.170514	37.887413
1636.050332	32.930769
1637.926146	33.946154
1639.801549	34.237063
1641.678338	36.713287
1643.549331	32.297902
1645.423505	33.532867
1647.293680	32.136364
1649.167037	31.225874
1651.038190	38.275524
1652.907141	46.309790
1654.777477	46.011189
1656.643821	41.211888
1658.511550	35.856643
1660.377080	35.744755
1662.243996	35.839860
1664.106923	34.325175
1665.971235	30.720979
1667.833351	24.971329
1669.695062	13.178322
1671.558159	9.039161
1673.419060	12.188112
1675.277769	14.846154
1677.136074	19.355245
1678.995764	20.617483
1680.849686	22.283916
1682.706782	24.035664
1684.563475	30.007692
1686.416191	29.023077
1688.272079	36.312587
1690.123993	35.311189
1691.975506	36.160839
1693.826618	30.934266
1695.677330	35.800699
1697.527641	33.265035
1699.375767	38.976224
1701.225278	39.581119
1703.069040	42.622378
1704.917751	37.486713
1706.760716	31.895105
1708.606848	30.475524
1710.449017	40.429371
1712.294352	36.132168
1714.133946	42.710490
1715.974924	36.631469
1717.817285	31.209790
1719.655690	23.730070
1721.495478	24.339860
1723.333091	24.486014
1725.170308	25.794406
1727.005352	21.906993
1728.841779	24.521678
1730.676034	29.076923
1732.509894	34.076224
1734.343360	32.915385
1736.172881	46.738462
1738.005560	44.716783
1739.834295	42.579021
1741.666187	35.689510
1743.494137	37.602098
1745.321696	32.837762
1747.148862	24.706993
1748.975637	22.892308
1750.802020	24.530070
1752.624467	25.775524
1754.450069	34.069930
1756.271736	38.838462
1758.094785	46.658042
1759.915672	55.237762
1761.736171	64.378322
1763.558051	57.463636
1765.374231	51.433566
1767.193563	33.272028
1769.008968	22.557343
1770.827523	17.714685
1772.642153	16.376224
1774.456396	27.568531
1776.270253	30.574825
1778.083723	28.923077
1779.895040	32.937762
1781.707737	40.359441
1783.520049	41.676923
1785.328443	35.380420
1787.138217	32.534965
1788.944077	26.901399
1790.753082	23.037762
1792.558174	27.966434
1794.364647	29.027972
1796.170736	31.783916
1797.972914	34.148252
1799.778237	32.282517
1801.579651	36.328671
1803.382445	37.900699
1805.181333	36.598601
1806.981602	37.439161
1808.781489	38.153846
1810.579234	33.015385
1812.376599	31.828671
1814.173584	30.510490
1815.970188	27.067133
1817.764653	30.439161
1819.560497	31.605594
1821.350686	28.346853
1823.145772	34.239161
1824.935206	33.526573
1826.727776	31.291608
1828.518211	31.817483
1830.306512	28.292308
1832.097948	24.188112
1833.883738	27.846853
1835.670908	24.262238
1837.455946	32.700699
1839.244118	40.285315
1841.028404	37.494406
1842.810560	40.451748
1844.594096	42.509091
1846.375503	46.437762
1848.158289	42.243357
1849.937194	40.264336
1851.717479	37.174126
1853.495637	34.200000
1855.275174	38.069930
1857.052586	37.501399
1858.827874	43.958042
1860.604540	45.644755
1862.379084	45.586014
1864.155006	43.642657
1865.925307	42.730769
1867.698736	41.589510
1869.470045	37.873427
1871.240983	36.262937
1873.013299	32.615385
1874.780001	25.845455
1876.549829	22.958741
1878.315793	19.919580
1880.084880	20.700699
1881.850106	24.363636
1883.614964	28.965035
1885.381199	29.500000
1887.143575	31.594406
1888.905584	34.293706
1890.667225	43.505594
1892.428500	37.632168
1894.189407	37.318881
1895.949948	37.623776
1897.708379	35.909091
1899.466444	29.027972
1901.222402	25.323776
1902.979736	25.700000
1904.736705	26.042657
1906.491567	24.381119
1908.244325	23.352448
1909.996718	22.792308
1911.750488	21.920979
1913.502154	24.013986
1915.251718	34.134965
1917.002657	40.049650
1918.753234	37.245455
1920.499971	38.569930
1922.248085	37.548951
1923.994099	35.002098
1925.741488	35.944056
1927.486780	34.544056
1929.229974	31.990210
1930.974543	28.467133
1932.717017	31.018182
1934.459130	33.606294
1936.200883	33.865385
1937.942276	33.153846
1939.681576	34.207343
1941.420517	35.962937
1943.159099	31.481469
1944.895590	30.018182
1946.631723	31.905245
1948.369230	35.493706
1950.102915	39.781469
1951.837975	36.612587
1953.570946	37.714336
1955.303561	31.004196
1957.035820	27.039510
1958.767722	30.187413
1960.497538	28.679720
1962.225269	29.060140
1963.954375	28.989510
1965.683126	28.941958
1967.409793	30.901399
1969.136106	35.436364
1970.863792	36.643357
1972.585942	31.709790
1974.311193	32.844755
1976.032637	29.697902
1977.757182	28.883916
1979.479646	33.127972
1981.198308	31.347552
1982.920068	33.182517
1984.638026	31.562238
1986.357357	27.684615
1988.072889	26.471329
1989.793241	26.561538
1991.509795	28.591608
1993.222552	26.296503
1994.938405	29.037063
1996.652186	31.346853
1998.365617	33.567832
2000.076977	32.100000
2001.789709	33.716783
2003.498651	31.729371
2005.210685	29.437063
2006.917211	27.486014
2008.626828	28.490210
2010.334379	30.535664
2012.041581	30.742657
2013.746718	28.511888
2015.451509	35.332168
2017.157671	38.865035
2018.860051	38.874825
2020.563802	35.256643
2022.265491	36.569930
2023.966835	30.744056
2025.667833	29.786713
2027.366770	28.174126
2029.067079	28.093007
2030.763613	22.787413
2032.461518	19.676923
2034.157364	24.050350
2035.856296	25.991608
2037.549742	28.830769
2039.244559	29.613287
2040.939034	27.936364
2042.629740	28.625175
2044.323530	28.440559
2046.013553	34.048951
2047.704947	34.018881
2049.394288	36.344755
2051.084999	33.230070
2052.771947	36.916783
2054.458556	39.343357
2056.146534	39.960140
2057.830753	41.534266
2059.516343	39.307692
2061.201593	32.893007
2062.884794	30.820979
2064.569366	29.405594
2066.248475	29.734965
2067.932369	26.227273
2069.610802	25.315385
2071.292313	20.582517
2072.970072	24.507692
2074.647495	22.208392
2076.326287	25.821678
2078.003037	26.160140
2079.677745	24.405594
2081.353822	25.077622
2083.027859	34.297203
2084.701560	39.596503
2086.374926	41.719580
2088.046253	44.869231
2089.717246	47.949650
2091.387905	42.720280
2093.058230	43.246154
2094.728221	37.164336
2096.396176	34.063636
2098.063798	29.618182
2099.729385	23.567832
2101.396341	20.546853
2103.061264	18.236364
2104.725855	14.700000
2106.388414	13.824476
2108.052341	16.815385
2109.714237	17.512587
2111.375803	14.634266
2113.037037	20.732867
2114.696243	20.308392
2116.355118	22.188811
2118.013664	23.041958
2119.671880	24.440559
2121.326372	22.736364
2122.983929	24.107692
2124.641157	24.696503
2126.294663	27.891608
2127.949537	32.059441
2129.600692	35.248252
2131.254910	34.955944
2132.905411	39.175524
2134.557278	39.776224
2136.203737	40.330769
2137.854951	34.353147
2139.502451	33.380420
2141.151318	28.420280
2142.798166	26.541958
2144.444689	22.558042
2146.090886	25.233566
2147.733375	22.539860
2149.378922	26.313287
2151.020762	26.243357
2152.665659	33.838462
2154.306850	36.218182
2155.947719	33.748951
2157.588263	32.021678
2159.226795	33.808392
2160.866693	32.341259
2162.502891	28.341259
2164.140455	22.311189
2165.777697	23.993706
2167.412929	17.763636
2169.047840	21.882517
2170.682428	21.193706
2172.316696	23.250350
2173.947270	22.462937
2175.580896	24.604196
2177.210830	30.534266
2178.842129	35.346853
2180.471423	34.760839
2182.100398	35.164336
2183.729053	34.255245
2185.357389	38.005594
2186.983723	32.118881
2188.609738	31.448252
2190.233751	23.766434
2191.859130	21.519580
2193.482508	20.809790
2195.107251	21.469930
2196.728313	25.037063
2198.349058	28.090210
2199.971168	31.758741
2201.591280	35.583916
2203.209395	35.653147
2204.827195	36.304196
2206.444680	35.888112
2208.061849	31.741259
2209.678703	25.883916
2211.295241	31.147552
2212.909787	31.865734
2214.522340	33.579021
2216.136257	38.071329
2217.748183	44.957343
2219.361472	48.925175
2220.972771	48.967832
2222.582080	51.346154
2224.192753	49.117483
2225.801437	46.163636
2227.409808	40.101399
2229.016193	37.244056
2230.623941	35.020979
2232.229702	31.260140
2233.835152	26.748951
2235.438617	24.382517
2237.043445	24.921678
2238.646289	22.644056
2240.247150	23.702098
2241.849374	21.705594
2243.449616	22.153846
2245.051220	25.567133
2246.649171	27.540559
2248.248485	26.022378
2249.845819	30.395804
2251.442845	31.199301
2253.041233	28.642657
2254.635972	26.557343
2256.228734	29.310490
2257.822859	27.661538
2259.418345	30.459441
2261.010186	32.229371
2262.601721	37.040559
2264.194618	42.196503
2265.782205	46.503497
2267.374488	47.037063
2268.961465	44.583217
2270.551469	39.281818
2272.136169	34.506294
2273.725563	33.872727
2275.309655	31.541958
2276.895107	31.427273
2278.478591	32.631469
2280.065100	31.351748
2281.647976	29.186014
2283.230549	32.168531
2284.812818	33.315385
2286.391457	30.248252
2287.973121	25.483217
2289.551156	23.689510
2291.132214	23.006294
2292.709645	20.327273
2294.285113	18.506294
2295.863603	21.579720
2297.438469	25.018182
2299.013034	23.855245
2300.587299	27.613986
2302.161263	30.324476
2303.734926	37.325175
2305.308290	36.035664
2306.878035	40.926573
2308.447481	38.095105
2310.019945	39.401399
2311.587135	30.293007
2313.157343	30.569930
2314.723936	30.257343
2316.291889	32.234266
2317.857886	30.890210
2319.423586	36.033566
2320.988988	32.910490
2322.552437	33.918182
2324.117245	31.167832
2325.678445	44.786713
2327.242659	48.398601
2328.801611	48.048252
2330.363578	36.665035
2331.923593	36.404895
2333.483314	34.197203
2335.041085	30.843357
2336.598561	28.336364
2338.155743	21.869231
2339.710977	6.941958
2341.265918	6.593007
2342.820564	13.185315
2344.374917	22.877622
2345.928977	25.113287
2347.482742	27.021678
2349.034564	25.427972
2350.584442	27.005594
2352.137328	26.509091
2353.684972	24.889510
2355.235623	22.217483
2356.782683	10.788811
2358.331101	3.475524
2359.879228	8.463636
2361.423766	10.199301
2362.969662	15.375524
2364.513620	19.289510
2366.058935	27.315385
2367.600665	26.614685
2369.143752	24.761538
2370.684903	24.123077
2372.225765	26.237063
2373.766338	23.996503
2375.306622	19.849650
2376.846617	25.048951
2378.383034	25.040559
2379.922452	24.437762
2381.458293	27.963636
2382.995490	30.674825
2384.529112	37.128671
2386.065734	33.670629
2387.600426	29.685315
2389.133188	29.098601
2390.665663	29.514685
2392.196210	23.184615
2393.729755	21.325874
2395.258089	16.736364
2396.787780	16.606294
2398.317184	14.869231
2399.846304	17.195804
2401.375139	18.935664
2402.898768	26.488811
2404.427033	26.104196
2405.950096	28.260140
2407.477792	28.365035
2408.998649	28.210490
2410.524139	22.477622
2412.046068	20.371329
2413.569353	18.195105
2415.090716	21.739860
2416.610160	18.105594
2418.130959	25.953846
2419.649840	25.167133
2421.168438	29.519580
2422.685119	27.023077
2424.203154	31.796503
2425.720908	34.465734
2427.235111	39.151748
2428.749033	37.845455
2430.262675	36.065035
2431.777672	34.393706
2433.289120	34.397902
2434.801923	38.045455
2436.312812	41.650350
2437.823423	39.783916
2439.332122	37.352448
2440.843807	39.446853
2442.351949	46.158042
2443.859813	48.971329
2445.367399	45.290210
2446.871444	41.530070
2448.378474	36.969930
2449.883597	39.479720
2451.388441	40.701399
2452.891379	38.873427
2454.394041	34.797203
2455.896426	35.993706
2457.396906	32.390210
2458.898739	36.616084
2460.398667	36.584615
2461.898320	36.734266
2463.397698	33.274825
2464.895173	27.630769
2466.390746	21.328671
2467.889299	22.144056
2469.384324	23.167133
2470.880701	23.013986
2472.373552	18.228671
2473.867756	21.567133
2475.361686	22.937762
2476.852092	30.790909
2478.345476	39.335664
2479.836962	44.029371
2481.326551	50.700699
2482.815868	44.418881
2484.303289	44.007692
2485.793686	44.328671
2487.280565	43.909091
2488.768795	35.447552
2490.253508	31.150350
2491.737952	24.319580
2493.223746	16.286014
2494.707649	18.630769
2496.192902	23.563636
2497.673022	16.065734
2499.156115	22.759441
2500.637317	17.348951
2502.118250	18.466434
2503.597294	17.804196
2505.076069	15.693007
2506.554576	13.773427
2508.032815	17.660839
2509.510785	13.047552
2510.985250	14.920979
2512.462685	18.576923
2513.936616	20.452448
2515.411897	18.472028
2516.886911	33.235664
2518.358425	33.096503
2519.831288	39.153147
2521.302269	42.632867
2522.774600	44.501399
2524.241817	36.585315
2525.712001	35.239860
2527.180304	28.943357
2528.648342	17.462238
2530.116115	11.985315
2531.583623	13.053147
2533.050866	17.397902
2534.514617	20.609091
2535.979718	20.030769
2537.442942	27.948252
2538.907516	27.543357
2540.368600	23.849650
2541.831034	23.098601
2543.293205	30.901399
2544.751890	33.618182
2546.215147	38.711189
2547.673307	41.239161
2549.132816	43.697902
2550.587231	41.932168
2552.046217	37.865734
2553.503331	34.213986
2554.958574	32.322378
2556.413555	29.180420
2557.866668	25.606993
2559.321129	30.581818
2560.773720	32.885315
2562.226052	35.741259
2563.676517	42.618881
2565.129937	33.573427
2566.578275	30.576224
2568.029569	32.127273
2569.478996	32.297203
2570.924951	23.027972
2572.373861	26.856643
2573.819301	26.322378
2575.266088	24.476923
2576.711013	23.544755
2578.155679	22.758042
2579.601693	25.943357
2581.044241	29.260140
2582.488136	24.409790
2583.928566	33.302098
2585.370343	36.430769
2586.810261	37.188811
2588.251526	34.307692
2589.689329	41.018182
2591.130082	34.806294
2592.565773	39.938462
2594.004413	37.111888
2595.441195	33.747552
2596.876122	34.657343
2598.313996	34.471329
2599.746813	34.855245
2601.180977	36.369930
2602.613287	34.220979
2604.046943	32.189510
2605.478746	32.669930
2606.910295	34.388811
2608.341592	28.711888
2609.771036	34.072028
2611.200228	27.375524
2612.627570	25.055245
2614.056257	28.191608
2615.484693	36.154545
2616.909681	35.676923
2618.336016	36.946853
2619.760502	38.503497
2621.186334	40.093706
2622.608722	44.539161
2624.032456	46.602797
2625.454343	46.872727
2626.875981	45.674126
2628.295773	39.759441
2629.716911	38.623776
2631.137799	35.806993
2632.555249	37.593706
2633.975638	34.813986
2635.392590	33.510490
2636.809293	35.684615
2638.225748	40.433566
2639.641955	42.104196
2641.057914	48.206294
2642.472032	50.351748
2643.885902	44.396503
2645.297934	38.997902
2646.711309	32.734266
2648.121255	30.617483
2649.534137	29.341259
2650.943590	29.295804
2652.352797	30.587413
2653.760168	38.761538
2655.170473	43.741259
2656.578943	50.461538
2657.985577	51.154545
2659.391966	47.211189
2660.796521	46.274126
2662.202420	44.000000
2663.606486	40.279021
2665.010307	39.366434
2666.413884	34.658741
2667.815630	35.772028
2669.218719	41.577622
2670.618390	45.063636
2672.019405	48.065734
2673.417004	44.333566
2674.817533	40.538462
2676.214646	43.965035
2677.613103	49.414685
2679.009733	50.566434
2680.406120	52.150350
2681.802265	52.228671
2683.196585	53.494406
2684.592246	53.456643
2685.984499	59.274825
2687.378094	57.342657
2688.769865	56.531469
2690.162979	52.496503
2691.554269	55.686713
2692.943736	60.473427
2694.332963	59.606294
2695.721951	65.372028
2697.112280	64.917483
2698.497626	65.444056
2699.885895	65.700699
2701.272344	63.596503
2702.658554	73.047552
2704.044525	81.453846
2705.427098	84.031469
2706.811013	87.467133
2708.194690	89.702098
2709.578128	88.500699
2710.958172	82.108392
2712.339556	81.648951
2713.719126	72.754545
2715.100036	70.293706
2716.479132	66.885315
2717.856414	65.269231
2719.235037	70.943357
2720.611847	75.740559
2721.988420	76.629371
2723.364758	78.715385
2724.739285	85.246853
2726.115152	80.102098
2727.487632	78.757343
2728.863028	79.370629
2730.233464	75.885315
2731.605241	73.360140
2732.976783	67.112587
2734.346517	64.965734
2735.717592	65.479720
2737.086858	60.511888
2738.455891	61.122378
2739.823118	58.374126
2741.190112	64.255245
2742.556872	54.613986
2743.923401	58.509790
2745.288124	49.237063
2746.652615	43.612587
2748.016875	42.980420
2749.380902	45.403497
2750.744698	46.642657
2752.105120	51.090210
2753.468452	45.676923
2754.826842	42.600000
2756.188142	43.499301
2757.546072	42.293706
2758.906910	35.543357
2760.265949	38.380420
2761.621619	29.093706
2762.980197	32.302797
2764.335408	36.224476
2765.690390	39.609091
2767.043576	35.638462
2768.399668	39.204196
2769.752395	37.964336
2771.104895	32.683217
2772.457166	35.385315
2773.810776	31.974825
2775.161024	33.051748
2776.509478	42.088112
2777.860838	43.266434
2779.208838	46.388811
2780.558176	49.776923
2781.905722	53.992308
2783.253042	48.116783
2784.600135	47.453846
2785.945437	45.802098
2787.290512	39.137063
2788.635362	37.788112
2789.979986	32.193007
2791.321258	27.186014
2792.663868	25.046154
2794.006252	24.090210
2795.348411	30.175524
2796.687221	34.935664
2798.028931	39.407692
2799.367293	32.683916
2800.706991	39.839161
2802.044905	33.632867
2803.381034	28.493007
2804.716939	30.329371
2806.054182	24.553147
2807.389641	21.845455
2808.724877	18.538462
2810.058330	28.814685
2811.393120	36.993007
2812.724570	37.344755
2814.058915	39.598601
2815.388362	31.979021
2816.719146	30.234266
2818.049708	23.100699
2819.378491	20.979720
2820.708610	23.924476
2822.036951	21.225874
2823.365071	21.167133
2824.691413	21.568531
2826.019092	24.488112
2827.343437	21.928671
2828.669119	22.003497
2829.993025	22.437762
2831.316712	22.398601
2832.641734	25.988112
2833.963426	33.955944
2835.284900	31.366434
2836.606155	33.553846
2837.927191	35.070629
2839.246454	29.932867
2840.567053	25.491608
2841.885881	18.350350
2843.204490	13.670629
2844.521328	14.920280
2845.837949	11.416783
2847.154353	11.613986
2848.468987	11.564336
2849.784957	13.441259
2851.097606	14.674825
2852.411590	16.099301
2853.725358	22.032867
2855.038909	19.911189
2856.350694	20.962937
2857.660712	20.111888
2858.972065	22.581818
2860.280103	22.062937
2861.589475	21.980420
2862.898633	27.519580
2864.207575	27.806993
2865.514753	27.190909
2866.820169	27.177622
2868.126919	20.380420
2869.431906	21.091608
2870.736680	17.779021
2872.039692	16.249650
2873.345585	13.174126
2874.646624	13.761538
2875.948997	10.611888
2877.249610	15.074825
2878.551557	18.978322
2879.853290	18.614685
2881.151720	18.860839
2882.451483	17.942657
2883.749489	21.334266
2885.047283	27.715385
2886.343321	31.134965
2887.640692	29.088811
2888.936307	27.632867
2890.231711	29.860140
2891.526904	25.490210
2892.818800	24.518881
2894.113572	20.438462
2895.405047	20.207692
2896.697855	15.942657
2897.990453	16.737063
2899.279757	24.639161
2900.570393	25.677622
2901.859278	29.296503
2903.149495	25.325175
2904.436421	24.152448
2905.724679	28.833566
2907.011188	24.850350
2908.297489	24.935664
2909.583581	27.212587
2910.867925	36.020280
2912.155140	36.769930
2913.437529	41.457343
2914.721250	44.343357
2916.003225	47.533566
2917.284992	49.667133
2918.565015	44.533566
2919.847907	42.889510
2921.129054	37.017483
2922.406919	29.456643
2923.687653	25.213986
2924.965106	23.100699
2926.242353	19.669231
2927.517858	14.618881
2928.796231	12.523776
2930.069790	9.130070
2931.346216	16.516783
2932.620901	17.779720
2933.893845	19.816783
2935.168121	21.775524
2936.440657	21.984615
2937.712988	32.586014
2938.982047	40.287413
2940.253971	40.020280
2941.524157	40.496503
2942.794139	37.476923
2944.063918	31.530070
2945.331961	27.476923
2946.598267	30.131469
2947.864372	24.932168
2949.131806	23.870629
2950.397506	24.520280
2951.663003	31.439161
2952.928298	40.141958
2954.190328	44.475524
2955.453688	41.505594
2956.716847	43.906993
2957.978274	34.988112
2959.241030	26.679720
2960.502054	19.184615
2961.761348	15.444755
2963.020442	14.988811
2964.279335	19.182517
2965.538028	21.286713
2966.796521	28.455944
2968.053285	33.630070
2969.309849	43.086713
2970.564686	43.920979
2971.820851	43.578322
2973.073762	34.931469
2974.328002	24.960839
2975.582043	16.420280
2976.834358	12.209091
2978.086474	10.261538
2979.336866	9.297203
2980.590113	10.878322
2981.838583	16.020979
2983.089908	19.341958
2984.337983	26.048951
2985.585862	23.041259
2986.833543	24.265035
2988.081027	23.168531
2989.326790	24.832867
2990.572357	22.304895
2991.819251	24.427273
2993.062901	22.436364
2994.307879	24.525874
2995.549613	25.881119
2996.794199	22.774825
2998.037066	17.595105
2999.276692	19.716084
3000.519168	15.574825
3001.758404	16.603497
3002.998968	16.749650
3004.237816	25.950350
3005.476468	23.593007
3006.713406	25.457343
3007.951670	23.410490
3009.188219	25.079720
3010.424575	25.730070
3011.660737	20.467133
3012.895185	13.397902
3014.129441	18.959441
3015.363503	12.572727
3016.595853	18.338462
3017.826491	25.674825
3019.059975	33.983217
3020.291747	28.992308
3021.521809	31.107692
3022.751679	32.706993
3023.979839	34.472727
3025.209325	36.181119
3026.437102	25.769231
3027.664688	17.994406
3028.893601	18.966434
3030.117771	13.015385
3031.344784	15.090210
3032.568573	11.093007
3033.793689	10.216783
3035.017098	7.388811
3036.240317	16.292308
3037.461831	16.149650
3038.686186	21.383916
3039.905806	22.541958
3041.126752	21.208392
3042.347509	21.830070
3043.566562	21.733566
3044.786940	20.235664
3046.004102	19.686014
3047.222590	13.866434
3048.439375	13.157343
3049.655973	9.487413
3050.872382	9.691608
3052.085579	4.716783
3053.301613	5.726573
3054.514435	3.153846
3055.730094	6.418881
3056.941030	7.587413
3058.153291	10.830070
3059.365366	20.347552
3060.577253	24.104895
3061.787444	25.505594
3062.997448	28.255594
3064.207266	28.160839
3065.415388	29.602448
3066.623325	29.290210
3067.829566	31.770979
3069.037132	33.265734
3070.243003	35.625524
3071.448690	33.305594
3072.654191	31.419930
3073.857999	29.467133
3075.063131	24.987762
3076.266570	20.162238
3077.468318	20.930420
3078.669881	21.888112
3079.871261	26.420979
3081.072457	27.900000
3082.271963	33.121678
3083.471286	33.218881
3084.671932	31.711189
3085.870888	26.755245
3087.066650	23.516084
3088.265241	19.479720
3089.460638	22.548252
3090.657358	19.208392
3091.850886	23.738462
3093.047242	28.099301
3094.241912	34.282517
3095.433391	31.452448
3096.629201	32.091608
3097.820318	25.386713
3099.012757	25.745455
3100.202009	21.802797
3101.394086	22.172727
3102.584480	20.145455
3103.771688	19.006993
3104.960219	8.499301
3106.150071	11.924476
3107.336740	12.674825
3108.523228	14.156643
3109.709538	10.816084
3110.897169	12.453147
3112.081618	12.299301
3113.264388	20.044056
3114.449980	23.898601
3115.633893	30.241958
3116.816127	29.783217
3117.998182	32.123077
3119.180059	34.713287
3120.361758	43.913287
3121.541780	37.792308
3122.720125	34.500000
3123.901290	30.056643
3125.079280	25.947552
3126.257094	25.625874
3127.434730	25.187413
3128.610691	21.827972
3129.786475	21.970629
3130.963581	23.543357
3132.139012	33.579021
3133.312770	41.058042
3134.484855	40.120280
3135.658262	31.079021
3136.831492	29.672028
3138.003051	28.005594
3139.175930	22.714685
3140.345642	23.030070
3141.516675	20.669930
3142.686038	17.080420
3143.853730	19.765734
3145.024238	21.802797
3146.190088	25.387413
3147.360246	24.537762
3148.525748	16.607692
3149.691075	18.227273
3150.856229	25.391608
3152.021210	26.902098
3153.187510	26.862238
3154.349158	26.120979
3155.512125	27.003497
3156.674920	29.337762
3157.837542	33.600000
3158.998499	34.803497
3160.159283	35.837063
3161.319895	33.386713
3162.478843	31.436364
3163.637620	37.594406
3164.796225	44.388112
3165.954657	44.317483
3167.112919	37.569231
3168.269518	27.049650
3169.424456	25.851748
3170.580713	26.174825
3171.735309	24.383916
3172.889735	20.934266
3174.042501	23.248252
3175.195096	21.486014
3176.347522	27.272028
3177.499778	29.477622
3178.651863	38.537063
3179.800803	39.838462
3180.952549	32.995105
3182.102637	26.485315
3183.251069	30.912587
3184.399331	30.924476
3185.547425	28.422378
3186.695350	25.537762
3187.841619	26.855245
3188.987720	26.739161
3190.132167	30.081119
3191.276446	26.276923
3192.420557	27.413986
3193.565985	26.532867
3194.708275	20.223776
3195.850398	14.552448
3196.992353	17.888112
3198.134141	11.502098
3199.275762	6.410490
3200.414248	0.188811
3201.554051	-0.522378
3202.695172	2.841958
3203.833158	6.445455
3204.969495	11.103497
3206.105666	13.717483
3207.243154	18.640559
3208.378994	22.074126
3209.516151	21.048252
3210.648695	22.100699
3211.785521	17.152448
3212.917735	15.957343
3214.051266	10.611888
3215.184633	13.481818
3216.314872	15.396503
3217.447909	16.490210
3218.577820	18.120280
3219.709047	19.486713
3220.837150	21.998601
3221.968049	23.928671
3223.097304	23.791608
3224.224916	22.951748
3225.349405	24.784615
3226.478170	30.567133
3227.603813	29.336364
3228.729294	28.774126
3229.853133	25.929371
3230.979766	26.321678
3232.101802	27.597902
3233.225154	31.201399
3234.348344	29.037063
3235.471372	25.369231
3236.592760	28.481119
3237.713986	26.646154
3238.833575	32.189510
3239.953002	36.955944
3241.070791	33.892308
3242.191372	30.864336
3243.308840	32.011888
3244.426147	33.694406
3245.543294	29.157343
3246.658805	25.556643
3247.775630	19.844755
3248.889346	18.583916
3250.005851	16.984615
3251.120722	15.919580
3252.232484	19.707692
3253.344086	20.890210
3254.457004	19.236364
3255.569762	22.473427
3256.679414	21.784615
3257.790381	20.399301
3258.901189	16.576923
3260.010365	16.120979
3261.117911	15.544056
3262.226770	19.421678
3263.335472	15.796503
3264.441071	16.027273
3265.547984	17.520280
3266.653268	18.796503
3267.759866	18.742657
3268.863364	23.248252
3269.968177	22.162937
3271.072832	25.908392
3272.174388	26.937762
3273.275788	25.197203
3274.378502	22.812587
3275.481060	26.460839
3276.580521	23.364336
3277.682766	24.919580
3278.781915	24.621678
3279.879440	23.802098
3280.976809	21.340559
3282.076960	27.866434
3283.174019	26.758042
3284.270922	29.600699
3285.367670	26.628671
3286.459860	18.707692
3287.556298	13.331469
3288.651114	15.480420
3289.745776	13.934965
3290.838816	18.155245
3291.931701	14.458042
3293.022967	18.884615
3294.115544	18.897902
3295.206502	24.912587
3296.295840	20.773427
3297.385025	21.126573
3298.475523	20.336364
3299.562936	17.882517
3300.650196	14.886014
3301.738769	19.435664
3302.827190	20.702098
3303.911063	18.731469
3304.999178	19.611189
3306.084211	24.528671
3307.167629	24.767133
3308.252359	25.188811
3309.335473	19.816783
3310.419900	24.320280
3311.501248	29.493007
3312.583908	33.313287
3313.664954	31.286014
3314.745849	30.132867
3315.825130	23.419580
3316.904261	15.650350
3317.984704	13.197203
3319.062072	14.244755
3320.140752	13.869231
3321.217820	11.493007
3322.294739	10.602797
3323.370046	18.327273
3324.445204	19.806993
3325.521673	25.976224
3326.595072	21.462937
3327.668322	19.726573
3328.742882	16.679021
3329.815834	16.800000
3330.887177	20.093007
3331.959831	27.805594
3333.029419	27.027972
3334.100317	27.169930
3335.169608	27.539161
3336.240210	32.358042
3337.309205	28.374126
3338.376594	30.237063
3339.442378	24.868531
3340.512388	24.343357
3341.579335	22.053147
3342.643220	21.651748
3343.709873	22.856643
3344.774921	26.143357
3345.838366	23.090909
3346.901665	24.976923
3347.964817	26.221678
3349.027823	30.069930
3350.090683	19.623776
3351.151941	18.181119
3352.210142	13.852448
3353.272563	12.772028
3354.331929	13.675524
3355.391149	13.235664
3356.451679	16.811189
3357.507699	20.549650
3358.566483	16.740559
3359.620760	20.611189
3360.677801	20.790210
3361.733243	21.784615
3362.789995	12.067133
3363.845148	7.358042
3364.898704	6.743357
3365.950664	11.730070
3367.005385	14.993007
3368.057057	20.111189
3369.108586	25.665734
3370.161423	27.205594
3371.211213	18.669930
3372.262312	22.303497
3373.310365	21.946154
3374.361177	21.832168
3375.408945	14.720979
3376.456570	11.977622
3377.504052	12.995105
3378.549942	18.634965
3379.597140	21.275524
3380.641296	26.441958
3381.688210	30.226573
3382.733532	34.590210
3383.775813	27.338462
3384.817954	28.143357
3385.861402	25.510490
3386.904709	15.464336
3387.946427	14.386713
3388.988003	14.332867
3390.029438	13.537063
3391.069285	18.342657
3392.107543	19.367832
3393.147109	22.404196
3394.186535	23.452448
3395.224373	29.874126
3396.260624	24.741958
3397.296736	22.307692
3398.334155	19.020280
3399.368541	11.557343
3400.404234	14.548951
3401.439788	13.802098
3402.472311	14.145455
3403.507587	16.651049
3404.539832	15.226573
3405.571939	19.532867
3406.602462	19.559441
3407.634292	21.179720
3408.665984	11.499301
3409.694648	11.113287
3410.723175	9.464336
3411.753008	3.916084
3412.782704	1.454545
3413.809374	1.823077
3414.837351	4.430769
3415.862303	6.356643
3416.890005	8.104196
3417.914684	16.412587
3418.940669	19.418881
3419.965074	22.375524
3420.989343	21.788112
3422.012033	25.453147
3423.034587	21.263636
3424.058447	19.411189
3425.079287	16.379720
3426.099991	12.391708
3427.122002	10.115085
3428.140994	10.694605
3429.159850	15.275025
3430.180013	25.001099
3431.197159	41.017582
