-118.059454	3.970330
-115.389854	-3.227473
-112.723189	-7.619281
-110.057276	-9.600200
-107.394295	-9.565335
-104.729885	-7.909790
-102.068405	-5.028671
-99.405496	1.534266
-96.747693	3.326573
-94.088461	7.278322
-91.429977	10.346853
-88.774417	6.497203
-86.117429	4.993007
-83.465539	3.542657
-80.812218	1.185315
-78.161818	-0.390909
-75.509988	-4.007692
-72.863249	-4.179021
-70.215081	-6.263636
-67.567655	-3.743357
-64.923143	-4.987413
-62.277203	-0.233566
-59.636344	0.340559
-56.994056	-0.990909
-54.354677	-0.648252
-51.713868	2.352448
-49.073800	3.873427
-46.438804	2.272727
-43.802380	1.234965
-41.168858	3.081119
-38.533908	-1.367133
-35.904023	-0.702797
-33.270546	-1.258741
-30.642131	0.692308
-28.014450	-1.201399
-25.385340	0.181818
-22.761287	-7.088112
-20.133645	-37.760140
-17.511056	-114.537762
-14.889199	-177.888811
-12.268072	99.742657
-9.647675	628.626573
-7.030167	1064.393007
-4.411230	1371.993706
-1.795178	1547.524476
0.820145	1591.930769
3.434741	1501.340559
6.046454	1284.164336
8.659596	940.001399
11.267704	498.649650
13.879394	40.700699
16.486053	-251.067832
19.094140	-172.463636
21.701503	-9.196503
24.303841	6.671329
26.909757	6.968531
29.510651	6.430070
32.112973	7.307692
34.710278	5.177622
37.311158	5.160140
39.907023	3.227273
42.504317	4.712587
45.100891	3.820280
47.692456	3.115385
50.285449	0.311189
52.875581	1.291608
55.467141	-2.794406
58.055841	-5.306993
60.645968	-6.496503
63.231096	-5.581119
65.817652	-3.851049
68.403494	-3.544056
70.986482	-1.769930
73.570896	2.877622
76.148182	3.069930
78.729034	4.962937
81.307037	4.404895
83.884330	6.130070
86.463049	2.053147
89.036786	-1.444755
91.611951	-3.550350
94.184272	-5.334266
96.755885	-5.841259
99.324658	-6.406294
101.894858	-4.446154
104.462220	0.205594
107.031007	3.774825
109.596958	8.123077
112.160074	9.378322
114.726746	12.683916
117.284197	12.404895
119.847333	13.539161
122.405509	12.148252
124.967240	12.804196
127.524014	11.951049
130.082215	14.886713
132.635462	16.096503
135.188012	21.223776
137.744112	24.341259
140.295264	27.902098
142.845719	32.788112
145.395476	38.544755
147.942414	42.920979
150.488657	46.566434
153.036325	46.722378
155.583297	46.187413
158.125334	45.566434
160.666677	43.167133
163.207327	40.228671
165.749403	43.640559
168.288667	41.887413
170.825123	42.211189
173.360887	42.217483
175.898077	43.618182
178.434576	44.372028
180.968269	43.565734
183.499158	41.470629
186.029360	39.906294
188.560986	38.805594
191.089811	36.716084
193.615837	37.344056
196.141177	40.710490
198.667942	39.125175
201.191911	40.802098
203.715195	41.435664
206.237794	43.483217
208.757600	44.465734
211.276723	45.302797
213.795163	41.935664
216.315027	40.247552
218.827890	37.811888
221.344284	37.756643
223.859996	36.984615
226.370818	37.757343
228.883065	38.669231
231.392530	40.230070
233.901316	42.951049
236.409423	46.453147
238.918955	48.438462
241.423606	52.032168
243.927581	50.203497
246.432980	50.333566
248.933504	52.130070
251.437552	52.248951
253.934628	51.111189
256.435228	48.561538
258.933056	44.968531
261.430211	43.437762
263.926693	44.105594
266.418312	43.800000
268.913451	41.432867
271.405823	43.377622
273.897525	42.462937
276.386464	43.020979
278.876827	44.973427
281.364427	46.500699
283.849268	45.736364
286.337624	45.658042
288.819040	43.094406
291.303970	45.547552
293.784055	45.906294
296.267652	47.551049
298.746406	46.955944
301.226584	48.474126
303.704009	49.469930
306.180771	51.554545
308.656870	52.725874
311.130220	55.176923
313.602908	54.992308
316.074935	57.094406
318.546301	55.104895
321.014922	57.746154
323.482885	56.168531
325.952269	55.933566
328.416831	54.370629
330.884897	55.990909
333.348143	54.667133
335.810731	54.767832
338.272663	54.494406
340.733938	54.343357
343.192479	55.541958
345.652442	56.653147
348.109672	54.354545
350.566248	56.374126
353.022170	55.716084
355.475362	56.002797
357.929977	53.753846
360.379790	56.183217
362.833099	53.503497
365.281610	55.199301
367.729469	54.086713
370.178751	51.999301
372.623239	51.021678
375.069149	50.869930
377.514409	49.492308
379.956951	52.182517
382.398845	49.772727
384.840092	49.897902
387.278623	49.767133
389.718576	52.027972
392.155815	48.925874
394.590342	50.600699
397.028357	49.775524
399.461595	50.230070
401.896254	50.819580
404.326141	53.100699
406.759513	54.808392
409.188115	57.653846
411.616075	54.772727
414.045457	58.732867
416.470073	57.439161
418.896111	56.869231
421.321508	53.236364
423.746265	55.273427
426.166264	52.902098
428.587684	52.556643
431.006407	48.946154
433.426551	49.437762
435.844000	51.014685
438.262869	55.345455
440.679045	56.563636
443.090473	61.869231
445.505379	60.524476
447.917594	64.450350
450.329175	60.382517
452.740122	60.084615
455.148383	55.504196
457.556011	53.270629
459.963007	48.873427
462.369372	47.760140
464.773054	44.018881
467.176106	42.766434
469.578528	43.157343
471.980320	43.753846
474.379435	42.593007
476.779969	46.395105
479.179874	46.718182
481.575056	49.114685
483.973705	49.711888
486.367634	52.370629
488.760937	52.997902
491.153614	53.196503
493.545666	48.937063
495.939136	46.890909
498.327894	43.060140
500.713986	37.962238
503.101498	33.184615
505.488387	33.472028
507.872612	31.817483
510.258255	30.714685
512.641237	31.657343
515.021558	32.780420
517.403298	32.390210
519.782379	37.214685
522.162879	35.790210
524.540721	36.506993
526.915908	31.818182
529.290477	29.855944
531.666464	26.834266
534.039799	26.346853
536.414551	24.846853
538.784618	24.901399
541.154069	25.355944
543.524938	26.295804
545.891127	24.422378
548.258734	28.467832
550.623695	28.077622
552.988043	30.475524
555.351778	30.528671
557.716931	32.558741
560.077412	30.834266
562.439311	29.591608
564.798569	26.743357
567.155190	26.230070
569.515255	24.860140
571.868629	26.183916
574.225448	24.360839
576.579632	27.651049
578.933208	25.463636
581.286175	27.078322
583.636510	27.441958
585.988263	27.860140
588.333339	24.223077
590.683879	23.812587
593.027745	20.983916
595.377073	21.960839
597.721752	20.802098
600.063807	23.510490
602.407279	24.458741
604.748128	27.169231
607.088375	26.185315
609.426001	28.240559
611.767062	25.228671
614.103485	26.097902
616.441325	23.374825
618.776548	22.690909
621.109155	21.372028
623.443178	20.566434
625.774587	21.158741
628.105398	24.634266
630.435612	24.534266
632.765227	27.713287
635.090220	29.020280
637.420653	29.000699
639.746466	25.669231
642.069671	28.518881
644.394293	24.527972
646.716309	22.161538
649.037731	19.736364
651.356551	17.003497
653.676786	17.174825
655.996428	18.792308
658.313469	18.203497
660.629918	21.293706
662.943769	22.115385
665.259036	24.764336
667.571706	25.737063
669.885791	30.532168
672.195276	28.205594
674.506177	27.514685
676.814485	25.803497
679.122205	25.432867
681.431339	23.451748
683.735881	22.666434
686.039837	20.058741
688.343207	19.459441
690.647991	16.024476
692.948189	20.238462
695.249801	20.833566
697.550829	22.991608
699.847274	22.463636
702.145135	23.127273
704.442412	23.727972
706.739106	24.998601
709.031224	24.374825
711.326753	23.518881
713.617708	21.460140
715.910078	22.563636
718.199873	19.254545
720.489087	22.586014
722.777722	20.052448
725.063784	18.791608
727.351261	20.057343
729.636166	19.479021
731.920494	19.583217
734.202253	19.779021
736.485426	17.095804
738.768022	17.683217
741.046062	20.026573
743.325517	22.898601
745.604395	20.632867
747.882699	22.100000
750.156453	19.283916
752.431620	18.784615
754.706214	20.971329
756.978249	20.581119
759.251697	21.962238
761.522587	23.077622
763.790921	22.393007
766.060668	24.720280
768.327861	28.025175
770.594483	28.629371
772.860535	28.230070
775.124036	29.325874
777.388950	27.457343
779.653294	27.848951
781.913109	28.433566
784.174336	29.362238
786.434996	29.253147
788.693110	29.444056
790.948679	28.471329
793.207639	26.302098
795.460100	24.241958
797.717927	26.620280
799.971236	25.023077
802.222005	27.863636
804.474186	26.634965
806.723828	28.624476
808.974883	27.201399
811.221426	25.579021
813.469381	22.797902
815.714802	23.976224
817.961634	23.686014
820.207905	23.363636
822.449671	22.527972
824.694821	24.323077
826.933498	22.332867
829.175557	26.748951
831.413118	23.345455
833.652091	25.278322
835.888537	20.966434
838.126394	19.295804
840.361726	14.811189
842.594535	17.276923
844.828755	16.109790
847.060452	13.785315
849.291595	10.234266
851.522183	8.999301
853.752217	9.723776
855.981697	11.180420
858.206695	9.796503
860.435068	12.934266
862.658961	8.517483
864.884266	11.138462
867.105095	8.329371
869.329296	10.393706
871.549024	9.472028
873.770162	8.886014
875.990750	12.402797
878.208829	16.806993
880.428317	18.067133
882.643339	23.948252
884.857814	24.635664
887.071740	25.501399
889.285120	23.777622
891.497952	27.153846
893.710238	22.972028
895.920021	21.757343
898.129259	22.476224
900.337952	24.314685
902.544146	27.559441
904.751749	28.021678
906.956854	25.391608
909.161416	25.926573
911.363483	18.952448
913.566959	16.911189
915.767941	17.178322
917.968381	16.111189
920.170230	13.997902
922.365688	15.580420
924.564505	15.269231
926.758883	17.758741
928.956619	18.660839
931.149919	18.172028
933.344628	13.603497
935.536851	13.136364
937.728535	14.625175
939.919682	16.481818
942.108346	18.684615
944.296474	18.674825
946.482121	20.481818
948.671120	24.739860
950.855696	25.982517
953.039737	30.537063
955.227128	28.306294
957.406215	28.100000
959.588653	24.123776
961.770557	24.898601
963.949986	29.570629
966.126943	28.960140
968.305308	29.058741
970.485080	27.171329
972.658503	30.370629
974.835272	29.879720
977.007634	29.206294
979.181404	27.904196
981.350770	24.895105
983.523480	29.222378
985.693725	29.138462
987.863441	30.413986
990.032628	37.179021
992.197418	37.065035
994.365549	34.630769
996.529286	33.132168
998.694429	34.202797
1000.857113	26.797902
1003.019272	23.295105
1005.178974	20.538462
1007.338151	18.294406
1009.498735	21.723776
1011.656865	24.256643
1013.814470	26.580420
1015.971552	31.656643
1018.128110	30.490210
1020.280289	28.793706
1022.433875	31.902098
1024.586939	31.931469
1026.737554	28.014685
1028.889576	29.914685
1031.037224	33.902797
1033.188204	28.919580
1035.334813	32.416783
1037.480903	33.646154
1039.626475	34.169930
1041.773452	35.169231
1043.914140	30.648252
1046.058158	28.967133
1048.199735	32.362937
1050.340796	28.887413
1052.483261	26.481119
1054.619447	30.742657
1056.758958	31.351748
1058.894115	21.544755
1061.032596	23.206294
1063.166723	19.745455
1065.300337	21.593007
1067.435356	19.402098
1069.566025	24.055245
1071.698099	28.137762
1073.827744	37.981818
1075.956877	38.993007
1078.085498	36.718182
1080.213608	38.811189
1082.339292	36.295105
1084.464466	31.522378
1086.591044	29.295105
1088.713284	25.304895
1090.836929	28.179720
1092.956239	26.071329
1095.080779	33.795105
1097.199073	34.958042
1099.318772	43.348951
1101.436052	41.900000
1103.552826	40.577622
1105.669093	42.449650
1107.782944	42.267832
1109.898200	38.778322
1112.009132	34.283217
1114.123377	26.629371
1116.233301	26.876224
1118.344629	22.579720
1120.455452	22.972727
1122.561959	20.445455
1124.671776	19.211189
1126.777278	17.155245
1128.884183	20.900699
1130.984873	19.237762
1133.090775	21.841958
1135.192368	20.490909
1137.295364	23.258741
1139.397859	19.483916
1141.494147	23.168531
1143.595643	21.873427
1145.692835	23.009091
1147.789530	19.440559
1149.885726	19.254545
1151.981425	19.559441
1154.076625	21.965035
1156.169429	21.498601
1158.263636	25.619580
1160.351651	23.869231
1162.444864	26.453147
1164.531889	24.493706
1166.622213	25.295804
1168.708250	22.065734
1170.797584	20.320979
1172.880737	17.397902
1174.965292	19.294406
1177.051249	15.271329
1179.132924	16.627972
1181.216001	16.434965
1183.296692	19.493706
1185.376891	15.464336
1187.456599	17.726573
1189.535816	15.739161
1191.612651	14.674825
1193.687105	10.740559
1195.764850	8.825874
1197.838326	9.438462
1199.913202	13.518881
1201.983811	13.386713
1204.055821	20.083916
1206.125456	24.326573
1208.196491	31.070629
1210.267038	32.181818
1212.333324	35.274126
1214.401011	29.047552
1216.466326	26.360140
1218.533041	21.324476
1220.595500	18.118182
1222.661244	16.062238
1224.722734	15.252448
1226.785625	13.172727
1228.846148	16.037762
1230.906187	15.433566
1232.965744	18.813287
1235.022935	22.365734
1237.079645	20.557343
1239.133991	17.765035
1241.191619	19.600000
1243.246884	18.253147
1245.297908	20.625874
1247.350332	21.226573
1249.402276	19.031469
1251.451862	18.880420
1253.500969	20.274126
1255.549598	20.334266
1257.597748	25.730769
1259.645419	24.860839
1261.688860	24.051049
1263.735577	24.089510
1265.779940	23.934965
1267.823827	26.276923
1269.865362	26.677622
1271.904548	22.538462
1273.947007	20.606294
1275.985243	18.739161
1278.024878	15.348252
1280.064038	15.069231
1282.098979	14.330769
1284.135319	10.498601
1286.169315	14.274825
1288.204708	15.416084
1290.235889	16.162937
1292.268467	18.180420
1294.300574	16.803497
1296.330340	13.661538
1298.361504	18.806993
1300.388460	20.237063
1302.416814	22.597203
1304.440963	21.272028
1306.468378	24.469231
1308.491590	23.541958
1310.516200	28.572028
1312.538476	32.074825
1314.562149	32.425874
1316.583489	28.357343
1318.604361	29.118182
1320.624766	26.580420
1322.640978	30.443357
1324.658587	30.861538
1326.673868	30.465734
1328.692408	24.348951
1330.706759	23.409790
1332.718784	19.539860
1334.734066	19.741259
1336.745163	22.428671
1338.757657	20.293706
1340.765968	17.298601
1342.777534	19.359441
1344.783062	18.124476
1346.791845	22.006993
1348.796450	21.832867
1350.804309	22.865734
1352.811706	22.641259
1354.813072	22.209091
1356.815834	20.107692
1358.818137	20.730070
1360.819980	19.883217
1362.821363	14.279720
1364.820433	11.032867
1366.819044	11.400699
1368.817197	10.835664
1370.814891	13.011189
1372.808423	15.449650
1374.803351	18.581818
1376.797821	23.026573
1378.791835	25.909790
1380.783542	23.169930
1382.774794	24.730070
1384.763740	17.157343
1386.754081	12.954545
1388.743967	11.732867
1390.731549	13.055245
1392.718678	10.167133
1394.703505	11.834965
1396.689727	14.376923
1398.673649	14.640559
1400.657118	16.665734
1402.640134	18.982517
1404.620853	17.662937
1406.602966	17.292308
1408.582783	13.837063
1410.562148	16.860140
1412.537375	18.434266
1414.515840	17.807692
1416.492012	18.440559
1418.467735	22.632867
1420.443008	19.212587
1422.415990	19.553846
1424.388524	18.274825
1426.360610	20.454545
1428.332249	19.258741
1430.299759	21.268531
1432.272343	22.728671
1434.237122	24.643357
1436.206972	21.114685
1438.172699	24.440559
1440.139818	24.660140
1442.104654	24.509790
1444.065370	22.612587
1446.031154	24.913287
1447.990983	24.976224
1449.952206	28.158042
1451.914821	26.499301
1453.873321	29.820979
1455.831378	28.670629
1457.788994	27.741259
1459.746167	22.462937
1461.701065	26.411189
1463.657356	20.905594
1465.611372	20.583217
1467.564947	22.121678
1469.516250	20.180420
1471.468946	22.040559
1473.419369	23.968531
1475.369354	20.909091
1477.318900	20.121678
1479.266177	20.180420
1481.211186	20.089510
1483.157588	16.376224
1485.103552	18.748951
1487.049079	16.806993
1488.992340	16.620979
1490.935166	17.582517
1492.875728	17.763636
1494.817681	19.967832
1496.757372	21.822378
1498.696629	20.541958
1500.635450	23.064336
1502.572012	25.130070
1504.509965	24.155944
1506.445659	23.908392
1508.380920	28.756643
1510.313925	28.892308
1512.246497	29.476224
1514.178637	28.524476
1516.110345	26.701399
1518.039799	24.330070
1519.970644	24.359441
1521.901057	24.228671
1523.827398	27.423776
1525.755130	24.676923
1527.680611	23.536364
1529.605663	25.560839
1531.530286	27.309091
1533.454480	25.765035
1535.376426	26.605594
1537.299763	22.555245
1539.220853	22.486014
1541.139700	23.341958
1543.059935	30.623776
1544.977928	35.482517
1546.895494	38.963636
1548.810818	40.111189
1550.727532	40.728671
1552.640191	40.733566
1554.556054	35.763636
1556.469677	34.980420
1558.381062	35.186713
1560.293837	32.830070
1562.202562	37.524476
1564.112676	41.756643
1566.022367	55.179021
1567.931635	66.539860
1569.838669	84.096503
1571.743470	105.012587
1573.649660	124.793007
1575.553618	141.164336
1577.457155	155.580420
1579.360272	161.930070
1581.261159	164.550350
1583.163435	155.646853
1585.063483	142.910490
1586.964918	119.883217
1588.862320	94.052448
1590.759303	76.116783
1592.655868	64.911888
1594.553821	56.995105
1596.445939	48.865035
1598.341250	41.472727
1600.236144	38.524476
1602.128816	33.413287
1604.021071	35.678322
1605.911107	32.534965
1607.800727	33.300000
1609.689932	28.215385
1611.578722	24.653147
1613.465294	26.257343
1615.353254	27.841958
1617.237197	24.751748
1619.122527	22.432168
1621.007444	20.335664
1622.890147	23.096503
1624.774237	20.139161
1626.654315	26.651748
1628.535781	28.744056
1630.415036	29.787413
1632.295677	29.375524
1634.170514	33.497203
1636.050332	29.234965
1637.926146	30.622378
1639.801549	23.991608
1641.678338	20.193706
1643.549331	18.613986
1645.423505	19.938462
1647.293680	13.276224
1649.167037	21.531469
1651.038190	18.019580
1652.907141	18.274825
1654.777477	20.213287
1656.643821	23.700699
1658.511550	22.986713
1660.377080	22.286713
1662.243996	17.474126
1664.106923	19.765734
1665.971235	15.575524
1667.833351	13.262937
1669.695062	12.351049
1671.558159	18.172727
1673.419060	10.832867
1675.277769	15.364336
1677.136074	12.952448
1678.995764	15.329371
1680.849686	21.069231
1682.706782	21.828671
1684.563475	28.360839
1686.416191	33.765035
1688.272079	31.233566
1690.123993	37.405594
1691.975506	37.446154
1693.826618	35.703497
1695.677330	29.686014
1697.527641	27.034965
1699.375767	19.464336
1701.225278	17.581119
1703.069040	13.862937
1704.917751	5.886713
1706.760716	3.069231
1708.606848	1.636364
1710.449017	0.414685
1712.294352	2.685315
1714.133946	-2.333566
1715.974924	2.327972
1717.817285	7.877622
1719.655690	10.160839
1721.495478	15.069930
1723.333091	15.757343
1725.170308	12.300000
1727.005352	13.750350
1728.841779	13.480420
1730.676034	19.269930
1732.509894	18.675524
1734.343360	25.030769
1736.172881	23.677622
1738.005560	32.769231
1739.834295	37.313287
1741.666187	44.600000
1743.494137	46.504895
1745.321696	41.918881
1747.148862	35.462937
1748.975637	33.728671
1750.802020	26.181119
1752.624467	29.860839
1754.450069	23.940559
1756.271736	20.755245
1758.094785	19.035664
1759.915672	21.044056
1761.736171	14.832867
1763.558051	19.430769
1765.374231	21.530769
1767.193563	18.313986
1769.008968	14.065734
1770.827523	17.364336
1772.642153	18.846853
1774.456396	24.246853
1776.270253	22.635664
1778.083723	19.440559
1779.895040	23.254545
1781.707737	18.618881
1783.520049	14.767832
1785.328443	24.672727
1787.138217	26.974825
1788.944077	23.083916
1790.753082	20.044056
1792.558174	24.529371
1794.364647	22.672028
1796.170736	20.016084
1797.972914	20.653147
1799.778237	14.478322
1801.579651	10.848252
1803.382445	4.070629
1805.181333	7.283916
1806.981602	16.053147
1808.781489	11.223776
1810.579234	8.634965
1812.376599	9.549650
1814.173584	14.339161
1815.970188	11.118881
1817.764653	12.260839
1819.560497	15.308392
1821.350686	14.994406
1823.145772	14.839161
1824.935206	18.419580
1826.727776	21.772727
1828.518211	21.584615
1830.306512	16.818881
1832.097948	19.967133
1833.883738	20.592308
1835.670908	16.928671
1837.455946	15.428671
1839.244118	16.049650
1841.028404	21.097902
1842.810560	26.620280
1844.594096	28.167832
1846.375503	30.459441
1848.158289	26.825874
1849.937194	23.402797
1851.717479	20.734266
1853.495637	17.427273
1855.275174	13.282517
1857.052586	13.962937
1858.827874	13.455944
1860.604540	14.990210
1862.379084	21.186713
1864.155006	24.460839
1865.925307	23.673427
1867.698736	26.780420
1869.470045	29.467832
1871.240983	33.083916
1873.013299	33.983916
1874.780001	34.084615
1876.549829	35.868531
1878.315793	34.503497
1880.084880	28.523077
1881.850106	26.918881
1883.614964	19.937762
1885.381199	19.547552
1887.143575	14.180420
1888.905584	15.923077
1890.667225	17.734965
1892.428500	20.769231
1894.189407	22.790210
1895.949948	23.839860
1897.708379	22.897203
1899.466444	19.703497
1901.222402	21.609790
1902.979736	21.525175
1904.736705	20.154545
1906.491567	23.660839
1908.244325	20.232168
1909.996718	21.797902
1911.750488	23.279021
1913.502154	22.041958
1915.251718	27.415385
1917.002657	25.748951
1918.753234	21.786713
1920.499971	20.093706
1922.248085	22.725175
1923.994099	23.624476
1925.741488	21.723077
1927.486780	18.162937
1929.229974	13.481119
1930.974543	15.620979
1932.717017	15.132867
1934.459130	16.990210
1936.200883	21.298252
1937.942276	17.439161
1939.681576	15.984965
1941.420517	17.145455
1943.159099	13.598951
1944.895590	15.080420
1946.631723	15.956993
1948.369230	17.465734
1950.102915	20.156294
1951.837975	25.383217
1953.570946	23.347203
1955.303561	27.048951
1957.035820	25.158392
1958.767722	21.619580
1960.497538	16.365035
1962.225269	11.478322
1963.954375	4.380420
1965.683126	7.948252
1967.409793	6.845455
1969.136106	11.942657
1970.863792	13.235664
1972.585942	15.583217
1974.311193	16.341958
1976.032637	23.078322
1977.757182	22.199301
1979.479646	22.609091
1981.198308	19.355944
1982.920068	17.834965
1984.638026	13.304196
1986.357357	11.403497
1988.072889	7.417483
1989.793241	8.716783
1991.509795	5.322378
1993.222552	6.462937
1994.938405	10.279021
1996.652186	17.018881
1998.365617	15.695105
2000.076977	16.866434
2001.789709	16.700699
2003.498651	17.194406
2005.210685	16.407692
2006.917211	20.320280
2008.626828	21.509790
2010.334379	24.416084
2012.041581	24.052448
2013.746718	24.025874
2015.451509	22.961538
2017.157671	18.937063
2018.860051	12.990909
2020.563802	10.105594
2022.265491	9.144056
2023.966835	8.057343
2025.667833	8.565734
2027.366770	13.896503
2029.067079	17.254545
2030.763613	23.348951
2032.461518	23.759441
2034.157364	27.531469
2035.856296	26.156643
2037.549742	22.837762
2039.244559	20.785315
2040.939034	19.097902
2042.629740	13.959441
2044.323530	13.139860
2046.013553	11.767133
2047.704947	12.721678
2049.394288	12.681818
2051.084999	14.794406
2052.771947	16.186014
2054.458556	24.909790
2056.146534	23.488112
2057.830753	21.741259
2059.516343	20.386014
2061.201593	18.677622
2062.884794	15.834965
2064.569366	17.462937
2066.248475	16.518881
2067.932369	15.598601
2069.610802	13.468531
2071.292313	19.162238
2072.970072	18.183916
2074.647495	22.316084
2076.326287	16.158741
2078.003037	15.899301
2079.677745	15.579021
2081.353822	15.420280
2083.027859	15.091608
2084.701560	17.857343
2086.374926	15.306993
2088.046253	17.982517
2089.717246	15.032168
2091.387905	20.967832
2093.058230	19.388811
2094.728221	23.408392
2096.396176	18.736364
2098.063798	21.804895
2099.729385	21.755245
2101.396341	24.574825
2103.061264	23.505594
2104.725855	25.008392
2106.388414	20.188811
2108.052341	21.500699
2109.714237	17.248252
2111.375803	23.566434
2113.037037	24.300000
2114.696243	23.281818
2116.355118	22.232168
2118.013664	21.534266
2119.671880	18.564336
2121.326372	21.016783
2122.983929	16.060140
2124.641157	16.600000
2126.294663	11.553846
2127.949537	9.799301
2129.600692	10.646853
2131.254910	15.640559
2132.905411	16.527972
2134.557278	13.302797
2136.203737	12.829371
2137.854951	14.716783
2139.502451	13.939860
2141.151318	18.700699
2142.798166	18.044755
2144.444689	24.382517
2146.090886	21.848252
2147.733375	25.275524
2149.378922	23.088811
2151.020762	25.169231
2152.665659	23.958042
2154.306850	19.284615
2155.947719	14.342657
2157.588263	18.455944
2159.226795	15.083916
2160.866693	18.837063
2162.502891	22.258741
2164.140455	25.560140
2165.777697	23.288811
2167.412929	22.502098
2169.047840	16.015385
2170.682428	17.723077
2172.316696	13.088112
2173.947270	10.124476
2175.580896	10.318182
2177.210830	13.062937
2178.842129	10.451049
2180.471423	12.378322
2182.100398	17.676224
2183.729053	21.297902
2185.357389	20.527273
2186.983723	22.741958
2188.609738	19.257343
2190.233751	21.127273
2191.859130	16.405594
2193.482508	14.260140
2195.107251	16.340559
2196.728313	14.969930
2198.349058	12.179021
2199.971168	10.463636
2201.591280	8.525874
2203.209395	8.728671
2204.827195	4.315385
2206.444680	7.283217
2208.061849	8.006993
2209.678703	14.528671
2211.295241	13.560140
2212.909787	18.620979
2214.522340	23.395105
2216.136257	25.106294
2217.748183	22.455245
2219.361472	16.182517
2220.972771	15.367133
2222.582080	16.581818
2224.192753	13.338462
2225.801437	16.800000
2227.409808	19.698601
2229.016193	22.665734
2230.623941	24.388112
2232.229702	28.697203
2233.835152	24.864336
2235.438617	22.359441
2237.043445	17.202098
2238.646289	13.246154
2240.247150	13.125874
2241.849374	16.023077
2243.449616	17.172028
2245.051220	19.357343
2246.649171	18.374825
2248.248485	19.974825
2249.845819	19.308392
2251.442845	17.740559
2253.041233	20.395105
2254.635972	23.373427
2256.228734	18.567133
2257.822859	21.916783
2259.418345	22.368531
2261.010186	23.997902
2262.601721	21.418881
2264.194618	20.841958
2265.782205	16.311189
2267.374488	16.072727
2268.961465	10.753846
2270.551469	10.378322
2272.136169	14.096503
2273.725563	14.825175
2275.309655	13.921678
2276.895107	16.313287
2278.478591	14.650350
2280.065100	15.800699
2281.647976	16.038462
2283.230549	18.310490
2284.812818	18.114685
2286.391457	27.659441
2287.973121	26.389510
2289.551156	30.379720
2291.132214	31.286713
2292.709645	32.222378
2294.285113	31.361538
2295.863603	28.381818
2297.438469	23.876923
2299.013034	26.755944
2300.587299	25.422378
2302.161263	23.723776
2303.734926	17.144056
2305.308290	19.786014
2306.878035	13.958042
2308.447481	11.826573
2310.019945	8.988112
2311.587135	6.935664
2313.157343	9.180420
2314.723936	11.032867
2316.291889	9.090210
2317.857886	20.218182
2319.423586	23.293007
2320.988988	24.349650
2322.552437	19.555944
2324.117245	24.000699
2325.678445	21.627273
2327.242659	14.902797
2328.801611	14.763636
2330.363578	14.679720
2331.923593	13.861538
2333.483314	16.381818
2335.041085	18.997203
2336.598561	23.381119
2338.155743	23.368531
2339.710977	25.511888
2341.265918	24.336364
2342.820564	28.808392
2344.374917	23.965734
2345.928977	24.840559
2347.482742	26.344056
2349.034564	25.351049
2350.584442	21.084615
2352.137328	23.941259
2353.684972	24.744056
2355.235623	28.445455
2356.782683	28.312587
2358.331101	31.328671
2359.879228	35.995105
2361.423766	40.124476
2362.969662	36.711189
2364.513620	36.095804
2366.058935	30.297203
2367.600665	23.857343
2369.143752	11.289510
2370.684903	9.407692
2372.225765	10.574126
2373.766338	13.661538
2375.306622	15.903497
2376.846617	22.655245
2378.383034	22.824476
2379.922452	28.016084
2381.458293	28.043357
2382.995490	29.725175
2384.529112	32.119580
2386.065734	28.169231
2387.600426	24.104895
2389.133188	31.109091
2390.665663	32.490210
2392.196210	27.243357
2393.729755	31.036364
2395.258089	26.414685
2396.787780	24.465035
2398.317184	27.911888
2399.846304	25.132168
2401.375139	27.506993
2402.898768	26.943357
2404.427033	28.458741
2405.950096	26.337762
2407.477792	26.616783
2408.998649	24.583916
2410.524139	24.292308
2412.046068	24.702797
2413.569353	20.883217
2415.090716	21.824476
2416.610160	24.839161
2418.130959	23.872727
2419.649840	19.286713
2421.168438	20.221678
2422.685119	24.421678
2424.203154	14.599301
2425.720908	10.288112
2427.235111	9.226573
2428.749033	6.352448
2430.262675	3.344755
2431.777672	1.447552
2433.289120	1.482517
2434.801923	8.976224
2436.312812	8.897203
2437.823423	8.934965
2439.332122	14.180420
2440.843807	14.490210
2442.351949	14.895804
2443.859813	21.406294
2445.367399	24.207692
2446.871444	22.737063
2448.378474	18.771329
2449.883597	15.718182
2451.388441	16.561538
2452.891379	14.604895
2454.394041	18.588112
2455.896426	18.797902
2457.396906	22.327972
2458.898739	24.665035
2460.398667	31.312587
2461.898320	37.753147
2463.397698	34.423077
2464.895173	31.085315
2466.390746	23.218182
2467.889299	26.045455
2469.384324	29.255245
2470.880701	28.494406
2472.373552	35.766434
2473.867756	35.520280
2475.361686	39.791608
2476.852092	40.893007
2478.345476	39.327273
2479.836962	35.906993
2481.326551	32.860140
2482.815868	30.102098
2484.303289	24.024476
2485.793686	27.181818
2487.280565	24.966434
2488.768795	19.345455
2490.253508	13.765035
2491.737952	11.869930
2493.223746	17.359441
2494.707649	21.116084
2496.192902	18.779021
2497.673022	24.971329
2499.156115	27.683217
2500.637317	28.320280
2502.118250	27.817483
2503.597294	30.750350
2505.076069	25.754545
2506.554576	19.644056
2508.032815	14.347552
2509.510785	16.895804
2510.985250	17.662937
2512.462685	16.034266
2513.936616	13.852448
2515.411897	16.334266
2516.886911	9.316084
2518.358425	13.065734
2519.831288	16.019580
2521.302269	14.055245
2522.774600	11.379021
2524.241817	13.065734
2525.712001	10.896503
2527.180304	19.289510
2528.648342	18.444755
2530.116115	24.428671
2531.583623	27.381119
2533.050866	28.367832
2534.514617	27.227972
2535.979718	32.593007
2537.442942	30.368531
2538.907516	27.878322
2540.368600	26.032168
2541.831034	26.288112
2543.293205	20.567133
2544.751890	23.679720
2546.215147	18.707692
2547.673307	23.888112
2549.132816	19.976923
2550.587231	15.458042
2552.046217	11.304895
2553.503331	15.263636
2554.958574	13.907692
2556.413555	20.597203
2557.866668	21.329371
2559.321129	21.665734
2560.773720	22.558042
2562.226052	25.616084
2563.676517	23.539161
2565.129937	24.806993
2566.578275	21.186713
2568.029569	22.279021
2569.478996	15.887413
2570.924951	16.390210
2572.373861	13.710490
2573.819301	18.732168
2575.266088	18.944755
2576.711013	16.163636
2578.155679	14.376224
2579.601693	14.100000
2581.044241	17.316783
2582.488136	23.574126
2583.928566	27.910490
2585.370343	30.527273
2586.810261	29.269231
2588.251526	34.394406
2589.689329	35.633566
2591.130082	34.019580
2592.565773	30.889510
2594.004413	22.155245
2595.441195	14.262238
2596.876122	13.330070
2598.313996	15.169231
2599.746813	12.779021
2601.180977	13.522378
2602.613287	16.810490
2604.046943	18.144755
2605.478746	18.069930
2606.910295	18.666434
2608.341592	19.860140
2609.771036	20.887413
2611.200228	17.489510
2612.627570	17.369930
2614.056257	20.859441
2615.484693	20.572727
2616.909681	17.495804
2618.336016	15.977622
2619.760502	15.181818
2621.186334	11.660140
2622.608722	17.610490
2624.032456	20.902098
2625.454343	23.580420
2626.875981	22.803497
2628.295773	28.058741
2629.716911	29.130070
2631.137799	26.175524
2632.555249	25.856643
2633.975638	17.874825
2635.392590	14.618881
2636.809293	15.020280
2638.225748	16.983217
2639.641955	20.817483
2641.057914	14.375524
2642.472032	12.912587
2643.885902	10.290210
2645.297934	12.917483
2646.711309	14.011888
2648.121255	14.896503
2649.534137	19.830070
2650.943590	18.452448
2652.352797	26.670629
2653.760168	31.393706
2655.170473	33.458741
2656.578943	35.493706
2657.985577	29.938462
2659.391966	24.309091
2660.796521	20.088112
2662.202420	21.888112
2663.606486	23.190909
2665.010307	24.674825
2666.413884	25.290909
2667.815630	26.984615
2669.218719	30.305594
2670.618390	28.556643
2672.019405	24.627972
2673.417004	26.881818
2674.817533	20.299301
2676.214646	17.732168
2677.613103	21.229371
2679.009733	24.333566
2680.406120	24.140559
2681.802265	32.513287
2683.196585	30.458042
2684.592246	32.130070
2685.984499	35.084615
2687.378094	33.828671
2688.769865	32.630070
2690.162979	36.809790
2691.554269	37.566434
2692.943736	42.304895
2694.332963	41.754545
2695.721951	43.586713
2697.112280	45.486713
2698.497626	49.442657
2699.885895	45.186014
2701.272344	48.770629
2702.658554	52.882517
2704.044525	54.952448
2705.427098	58.201399
2706.811013	63.646853
2708.194690	64.695804
2709.578128	63.014685
2710.958172	57.604196
2712.339556	53.888112
2713.719126	54.524476
2715.100036	54.239860
2716.479132	51.248252
2717.856414	52.149650
2719.235037	51.238462
2720.611847	50.034266
2721.988420	46.711189
2723.364758	47.606294
2724.739285	47.396503
2726.115152	48.416084
2727.487632	49.206993
2728.863028	49.227972
2730.233464	49.346154
2731.605241	50.260140
2732.976783	47.881818
2734.346517	49.779021
2735.717592	45.076923
2737.086858	41.051049
2738.455891	32.318182
2739.823118	29.551748
2741.190112	25.955944
2742.556872	28.445455
2743.923401	26.997902
2745.288124	26.527972
2746.652615	23.795105
2748.016875	27.983217
2749.380902	32.103497
2750.744698	36.727273
2752.105120	38.182517
2753.468452	42.429371
2754.826842	36.513287
2756.188142	32.935664
2757.546072	30.546154
2758.906910	28.346154
2760.265949	20.609790
2761.621619	22.446154
2762.980197	20.839860
2764.335408	22.526573
2765.690390	22.646154
2767.043576	21.641958
2768.399668	19.965734
2769.752395	24.802098
2771.104895	24.223776
2772.457166	22.657343
2773.810776	20.834965
2775.161024	18.447552
2776.509478	15.440559
2777.860838	19.631469
2779.208838	16.705594
2780.558176	16.027273
2781.905722	10.106993
2783.253042	9.215385
2784.600135	9.114685
2785.945437	13.792308
2787.290512	19.393706
2788.635362	17.104196
2789.979986	17.093706
2791.321258	17.193706
2792.663868	18.995804
2794.006252	22.909790
2795.348411	20.404196
2796.687221	23.990909
2798.028931	22.433566
2799.367293	26.238462
2800.706991	24.758042
2802.044905	29.502797
2803.381034	31.312587
2804.716939	26.088112
2806.054182	22.609790
2807.389641	21.079021
2808.724877	21.533566
2810.058330	19.030070
2811.393120	19.702098
2812.724570	23.748951
2814.058915	21.520979
2815.388362	20.444755
2816.719146	16.771329
2818.049708	18.667832
2819.378491	12.748951
2820.708610	9.167832
2822.036951	6.469231
2823.365071	9.420280
2824.691413	7.302797
2826.019092	8.537762
2827.343437	9.832867
2828.669119	9.409091
2829.993025	11.667832
2831.316712	15.259441
2832.641734	13.069930
2833.963426	12.844755
2835.284900	11.183916
2836.606155	14.798601
2837.927191	17.406294
2839.246454	25.918182
2840.567053	25.541958
2841.885881	26.348252
2843.204490	24.955245
2844.521328	24.373427
2845.837949	26.219580
2847.154353	23.872727
2848.468987	17.607692
2849.784957	17.119580
2851.097606	15.475524
2852.411590	15.186014
2853.725358	16.007692
2855.038909	19.527273
2856.350694	16.146853
2857.660712	18.174825
2858.972065	14.783217
2860.280103	13.862937
2861.589475	13.680420
2862.898633	15.698601
2864.207575	17.043357
2865.514753	15.395804
2866.820169	13.630070
2868.126919	15.518881
2869.431906	20.223077
2870.736680	21.477622
2872.039692	21.477622
2873.345585	23.293007
2874.646624	19.951049
2875.948997	22.324476
2877.249610	14.473427
2878.551557	17.060839
2879.853290	12.998601
2881.151720	8.258042
2882.451483	4.974825
2883.749489	6.420979
2885.047283	6.931469
2886.343321	9.470629
2887.640692	8.872727
2888.936307	10.951049
2890.231711	12.291608
2891.526904	13.767133
2892.818800	9.767832
2894.113572	18.438462
2895.405047	20.717483
2896.697855	20.355245
2897.990453	19.662238
2899.279757	17.085315
2900.570393	16.319580
2901.859278	15.144056
2903.149495	14.199301
2904.436421	17.862238
2905.724679	16.562238
2907.011188	20.273427
2908.297489	19.654545
2909.583581	20.313287
2910.867925	19.455245
2912.155140	17.718881
2913.437529	17.522378
2914.721250	9.418881
2916.003225	9.506294
2917.284992	8.230769
2918.565015	11.786014
2919.847907	10.997902
2921.129054	8.974825
2922.406919	19.265734
2923.687653	13.986713
2924.965106	12.709091
2926.242353	12.297902
2927.517858	10.376224
2928.796231	9.700000
2930.069790	6.472028
2931.346216	10.174126
2932.620901	11.576224
2933.893845	11.248951
2935.168121	13.966434
2936.440657	18.445455
2937.712988	27.374825
2938.982047	17.120280
2940.253971	17.997203
2941.524157	15.765734
2942.794139	12.492308
2944.063918	7.022378
2945.331961	9.441259
2946.598267	12.741958
2947.864372	14.295804
2949.131806	16.462937
2950.397506	23.672727
2951.663003	24.146853
2952.928298	22.685315
2954.190328	17.004196
2955.453688	18.031469
2956.716847	14.390909
2957.978274	8.404895
2959.241030	-2.720979
2960.502054	1.011888
2961.761348	-1.309790
2963.020442	-1.993706
2964.279335	5.287413
2965.538028	11.351049
2966.796521	13.783217
2968.053285	15.755944
2969.309849	17.364336
2970.564686	17.829371
2971.820851	16.921678
2973.073762	11.899301
2974.328002	7.272028
2975.582043	13.126573
2976.834358	9.849650
2978.086474	12.810490
2979.336866	18.253846
2980.590113	18.991608
2981.838583	21.078322
2983.089908	19.453846
2984.337983	16.616084
2985.585862	21.172727
2986.833543	19.808392
2988.081027	16.776224
2989.326790	16.813986
2990.572357	18.097902
2991.819251	13.696503
2993.062901	15.111189
2994.307879	15.393706
2995.549613	16.046154
2996.794199	14.723776
2998.037066	12.994406
2999.276692	12.094406
3000.519168	14.409091
3001.758404	9.946154
3002.998968	5.402098
3004.237816	3.825874
3005.476468	4.541259
3006.713406	2.770629
3007.951670	6.421678
3009.188219	10.432867
3010.424575	12.429371
3011.660737	12.989510
3012.895185	18.330769
3014.129441	17.084615
3015.363503	18.123776
3016.595853	15.134965
3017.826491	14.181818
3019.059975	15.786014
3020.291747	13.438462
3021.521809	11.659441
3022.751679	12.085315
3023.979839	3.979021
3025.209325	5.372727
3026.437102	5.595105
3027.664688	9.362238
3028.893601	10.217483
3030.117771	8.289510
3031.344784	4.945455
3032.568573	6.086014
3033.793689	9.244056
3035.017098	9.910490
3036.240317	11.472028
3037.461831	11.556643
3038.686186	4.356643
3039.905806	5.861538
3041.126752	3.646853
3042.347509	6.026573
3043.566562	5.551049
3044.786940	5.972727
3046.004102	10.687413
3047.222590	11.969231
3048.439375	16.046853
3049.655973	19.076923
3050.872382	20.119580
3052.085579	23.318881
3053.301613	20.774126
3054.514435	18.981818
3055.730094	17.657343
3056.941030	19.610490
3058.153291	17.841958
3059.365366	21.850350
3060.577253	21.722378
3061.787444	18.745455
3062.997448	17.232168
3064.207266	16.140559
3065.415388	11.219580
3066.623325	10.979720
3067.829566	9.604895
3069.037132	9.255944
3070.243003	7.251748
3071.448690	6.055944
3072.654191	6.048252
3073.857999	8.411189
3075.063131	7.362238
3076.266570	9.666434
3077.468318	8.995105
3078.669881	10.252448
3079.871261	7.972727
3081.072457	8.295804
3082.271963	8.353846
3083.471286	9.704895
3084.671932	6.030769
3085.870888	4.633566
3087.066650	7.889510
3088.265241	7.444755
3089.460638	5.826573
3090.657358	10.918881
3091.850886	12.186014
3093.047242	18.960140
3094.241912	19.608392
3095.433391	17.671329
3096.629201	16.451049
3097.820318	12.409091
3099.012757	6.906993
3100.202009	0.711888
3101.394086	-2.702098
3102.584480	-4.286713
3103.771688	-4.946154
3104.960219	-1.013287
3106.150071	3.443357
3107.336740	10.700699
3108.523228	15.288811
3109.709538	17.227273
3110.897169	18.930769
3112.081618	21.688112
3113.264388	20.093706
3114.449980	15.569231
3115.633893	13.623776
3116.816127	13.818182
3117.998182	16.282517
3119.180059	19.378322
3120.361758	19.864336
3121.541780	23.639161
3122.720125	22.800000
3123.901290	22.403497
3125.079280	23.160140
3126.257094	23.383916
3127.434730	18.046853
3128.610691	15.481818
3129.786475	11.030070
3130.963581	13.639860
3132.139012	13.303497
3133.312770	11.480420
3134.484855	6.788811
3135.658262	9.252448
3136.831492	5.438462
3138.003051	7.741958
3139.175930	11.585315
3140.345642	10.127972
3141.516675	10.857343
3142.686038	16.067133
3143.853730	16.516084
3145.024238	19.754545
3146.190088	17.984615
3147.360246	20.344056
3148.525748	16.214685
3149.691075	18.658042
3150.856229	14.237063
3152.021210	14.291608
3153.187510	11.934266
3154.349158	10.387413
3155.512125	10.749650
3156.674920	12.586014
3157.837542	7.258042
3158.998499	9.802797
3160.159283	9.491608
3161.319895	8.851049
3162.478843	8.162238
3163.637620	8.681818
3164.796225	4.141259
3165.954657	5.513287
3167.112919	5.906993
3168.269518	11.276224
3169.424456	11.937762
3170.580713	13.056643
3171.735309	12.829371
3172.889735	19.910490
3174.042501	21.311888
3175.195096	22.216084
3176.347522	22.893007
3177.499778	22.296503
3178.651863	21.044056
3179.800803	16.701399
3180.952549	13.277622
3182.102637	10.601399
3183.251069	5.618881
3184.399331	4.960839
3185.547425	4.059441
3186.695350	9.064336
3187.841619	9.044755
3188.987720	8.304895
3190.132167	8.105594
3191.276446	16.643357
3192.420557	17.907692
3193.565985	17.502797
3194.708275	18.722378
3195.850398	19.758042
3196.992353	18.713986
3198.134141	21.670629
3199.275762	23.195105
3200.414248	30.259441
3201.554051	25.203497
3202.695172	27.907692
3203.833158	26.875524
3204.969495	33.330070
3206.105666	29.245455
3207.243154	25.553147
3208.378994	20.289510
3209.516151	13.818881
3210.648695	8.413287
3211.785521	7.153147
3212.917735	6.426573
3214.051266	9.644056
3215.184633	5.209091
3216.314872	11.335664
3217.447909	11.379021
3218.577820	14.518881
3219.709047	16.666434
3220.837150	14.172028
3221.968049	10.476923
3223.097304	8.647552
3224.224916	6.855245
3225.349405	6.907692
3226.478170	5.808392
3227.603813	7.695804
3228.729294	3.810490
3229.853133	7.609091
3230.979766	8.623077
3232.101802	10.168531
3233.225154	14.048951
3234.348344	10.774825
3235.471372	13.759441
3236.592760	17.463636
3237.713986	18.806294
3238.833575	18.969231
3239.953002	20.318881
3241.070791	22.460140
3242.191372	16.079021
3243.308840	22.621678
3244.426147	20.553147
3245.543294	21.050350
3246.658805	17.966434
3247.775630	16.862238
3248.889346	21.390909
3250.005851	25.005594
3251.120722	21.246154
3252.232484	20.805594
3253.344086	20.705594
3254.457004	14.383916
3255.569762	12.433566
3256.679414	16.682517
3257.790381	14.109790
3258.901189	17.199301
3260.010365	16.325175
3261.117911	16.933566
3262.226770	17.651049
3263.335472	18.917483
3264.441071	14.073427
3265.547984	15.309790
3266.653268	9.779720
3267.759866	3.281818
3268.863364	6.484615
3269.968177	7.267832
3271.072832	10.049650
3272.174388	13.093706
3273.275788	10.547552
3274.378502	11.374825
3275.481060	6.646853
3276.580521	8.951748
3277.682766	9.519580
3278.781915	7.112587
3279.879440	4.145455
3280.976809	4.473427
3282.076960	8.580420
3283.174019	14.137762
3284.270922	15.734965
3285.367670	15.232168
3286.459860	13.048951
3287.556298	14.318182
3288.651114	6.598601
3289.745776	10.770629
3290.838816	11.286014
3291.931701	7.285315
3293.022967	7.475524
3294.115544	11.804196
3295.206502	14.791608
3296.295840	19.417483
3297.385025	23.187413
3298.475523	21.769930
3299.562936	19.790909
3300.650196	22.130070
3301.738769	19.311189
3302.827190	21.069930
3303.911063	15.838462
3304.999178	10.584615
3306.084211	2.776923
3307.167629	0.113986
3308.252359	-3.640559
3309.335473	-3.601399
3310.419900	-1.494406
3311.501248	-3.676923
3312.583908	0.560839
3313.664954	8.444755
3314.745849	10.395804
3315.825130	15.723077
3316.904261	16.553846
3317.984704	17.729371
3319.062072	12.657343
3320.140752	14.823077
3321.217820	15.419580
3322.294739	12.893007
3323.370046	13.746853
3324.445204	12.458741
3325.521673	6.600000
3326.595072	5.431469
3327.668322	3.458042
3328.742882	1.158741
3329.815834	-1.291608
3330.887177	-2.088112
3331.959831	-3.269930
3333.029419	-1.003497
3334.100317	3.271329
3335.169608	6.201399
3336.240210	12.027972
3337.309205	13.900000
3338.376594	8.503497
3339.442378	13.074126
3340.512388	12.683916
3341.579335	12.044056
3342.643220	11.836364
3343.709873	12.293007
3344.774921	6.863636
3345.838366	8.515385
3346.901665	14.869231
3347.964817	16.794406
3349.027823	19.455245
3350.090683	19.339161
3351.151941	17.669231
3352.210142	20.555944
3353.272563	13.118881
3354.331929	11.841259
3355.391149	9.414685
3356.451679	7.909091
3357.507699	5.760839
3358.566483	12.704895
3359.620760	16.715385
3360.677801	15.741958
3361.733243	14.945455
3362.789995	14.644755
3363.845148	14.004895
3364.898704	13.599301
3365.950664	3.833566
3367.005385	5.814685
3368.057057	0.825175
3369.108586	-0.925175
3370.161423	3.955245
3371.211213	6.851049
3372.262312	7.973427
3373.310365	8.420979
3374.361177	4.670629
3375.408945	9.496503
3376.456570	8.927972
3377.504052	11.556643
3378.549942	1.976224
3379.597140	0.570629
3380.641296	-4.006294
3381.688210	-2.567133
3382.733532	4.204895
3383.775813	8.901399
3384.817954	10.914685
3385.861402	11.009091
3386.904709	10.753846
3387.946427	17.790909
3388.988003	14.324476
3390.029438	13.945455
3391.069285	6.140559
3392.107543	5.084615
3393.147109	1.762937
3394.186535	2.757343
3395.224373	2.732168
3396.260624	-1.152448
3397.296736	-2.156643
3398.334155	-1.344056
3399.368541	-0.025874
3400.404234	2.206294
3401.439788	3.406993
3402.472311	8.337762
3403.507587	8.411888
3404.539832	10.127972
3405.571939	10.586713
3406.602462	15.665734
3407.634292	13.297203
3408.665984	11.776224
3409.694648	13.630070
3410.723175	11.711189
3411.753008	8.617483
3412.782704	6.555245
3413.809374	7.751049
3414.837351	10.211888
3415.862303	10.505594
3416.890005	7.962238
3417.914684	8.977622
3418.940669	9.986713
3419.965074	9.453846
3420.989343	10.659441
3422.012033	9.799301
3423.034587	7.898601
3424.058447	8.384615
3425.079287	6.949650
3426.099991	8.164635
3427.122002	9.323526
3428.140994	10.078422
3429.159850	10.081419
3430.180013	8.984615
3431.197159	6.440110
