-118.059454	2.578022
-115.389854	0.818681
-112.723189	0.579321
-110.057276	1.516583
-107.394295	3.287113
-104.729885	5.547552
-102.068405	7.954545
-99.405496	10.470629
-96.747693	10.664336
-94.088461	10.491608
-91.429977	9.835664
-88.774417	8.216084
-86.117429	8.016783
-83.465539	7.298601
-80.812218	8.222378
-78.161818	13.035664
-75.509988	14.015385
-72.863249	13.148252
-70.215081	17.022378
-67.567655	14.578322
-64.923143	15.171329
-62.277203	16.746853
-59.636344	16.174825
-56.994056	14.028671
-54.354677	12.610490
-51.713868	13.372028
-49.073800	15.083217
-46.438804	18.523077
-43.802380	18.500699
-41.168858	16.579021
-38.533908	17.513287
-35.904023	18.255245
-33.270546	22.187413
-30.642131	25.104895
-28.014450	27.266434
-25.385340	16.725175
-22.761287	-33.091608
-20.133645	-198.934266
-17.511056	-595.115385
-14.889199	-946.311189
-12.268072	575.505594
-9.647675	3226.423776
-7.030167	5397.687413
-4.411230	6917.094406
-1.795178	7771.729371
0.820145	7962.013287
3.434741	7495.214685
6.046454	6372.856643
8.659596	4640.253147
11.267704	2420.815385
13.879394	114.987413
16.486053	-1327.071329
19.094140	-791.332867
21.701503	-38.882517
24.303841	34.020979
26.909757	33.758741
29.510651	29.865734
32.112973	24.665734
34.710278	23.396503
37.311158	19.443357
39.907023	18.137063
42.504317	12.404895
45.100891	13.297203
47.692456	10.918881
50.285449	8.411189
52.875581	7.406294
55.467141	6.284615
58.055841	3.634266
60.645968	4.422378
63.231096	5.635664
65.817652	6.663636
68.403494	5.495105
70.986482	7.455245
73.570896	7.727972
76.148182	10.503497
78.729034	6.846853
81.307037	10.707692
83.884330	8.713287
86.463049	7.770629
89.036786	8.176923
91.611951	11.805594
94.184272	14.176923
96.755885	14.699301
99.324658	13.845455
101.894858	13.781119
104.462220	10.915385
107.031007	12.488811
109.596958	11.631469
112.160074	14.361538
114.726746	11.383217
117.284197	12.792308
119.847333	15.267832
122.405509	18.629371
124.967240	23.555944
127.524014	36.296503
130.082215	53.088811
132.635462	73.499301
135.188012	97.272028
137.744112	128.031469
140.295264	152.737762
142.845719	179.074825
145.395476	199.365035
147.942414	214.853147
150.488657	223.643357
153.036325	223.831469
155.583297	222.776224
158.125334	221.977622
160.666677	219.580420
163.207327	213.155245
165.749403	207.034266
168.288667	206.211189
170.825123	202.156643
173.360887	206.430769
175.898077	206.382517
178.434576	207.490909
180.968269	205.635664
183.499158	205.129371
186.029360	207.695105
188.560986	207.174126
191.089811	205.595804
193.615837	203.993007
196.141177	202.425175
198.667942	205.537063
201.191911	207.032168
203.715195	210.383916
206.237794	210.286713
208.757600	212.487413
211.276723	213.295804
213.795163	213.892308
216.315027	214.342657
218.827890	214.216783
221.344284	212.963636
223.859996	215.998601
226.370818	213.792308
228.883065	214.076224
231.392530	214.468531
233.901316	215.103497
236.409423	212.738462
238.918955	214.551049
241.423606	216.027273
243.927581	213.804196
246.432980	215.759441
248.933504	219.604196
251.437552	221.665734
253.934628	225.973427
256.435228	223.572727
258.933056	224.888811
261.430211	226.048252
263.926693	227.614685
266.418312	228.183916
268.913451	229.987413
271.405823	232.001399
273.897525	232.225874
276.386464	234.003497
278.876827	236.998601
281.364427	239.897902
283.849268	241.183916
286.337624	238.016084
288.819040	237.253846
291.303970	234.469930
293.784055	236.827972
296.267652	236.665734
298.746406	237.800000
301.226584	238.318182
303.704009	240.209091
306.180771	243.593706
308.656870	253.545455
311.130220	267.457343
313.602908	282.435664
316.074935	298.064336
318.546301	310.123077
321.014922	313.407692
323.482885	319.518182
325.952269	315.107692
328.416831	308.720280
330.884897	295.809790
333.348143	283.644755
335.810731	272.358042
338.272663	264.948252
340.733938	263.317483
343.192479	266.196503
345.652442	267.847552
348.109672	265.239860
350.566248	264.020979
353.022170	268.180420
355.475362	266.186014
357.929977	266.595105
360.379790	267.530070
362.833099	267.374126
365.281610	267.920280
367.729469	266.281119
370.178751	267.347552
372.623239	267.990210
375.069149	264.691608
377.514409	260.522378
379.956951	261.497203
382.398845	263.603497
384.840092	263.917483
387.278623	266.763636
389.718576	268.729371
392.155815	270.355245
394.590342	269.060839
397.028357	267.006294
399.461595	266.483217
401.896254	264.564336
404.326141	261.076923
406.759513	258.967832
409.188115	259.787413
411.616075	261.558741
414.045457	265.992308
416.470073	267.988112
418.896111	269.067133
421.321508	272.546853
423.746265	271.339161
426.166264	271.240559
428.587684	269.918881
431.006407	267.567832
433.426551	267.734266
435.844000	267.993007
438.262869	267.878322
440.679045	272.188112
443.090473	273.999301
445.505379	273.654545
447.917594	272.793007
450.329175	275.542657
452.740122	271.261538
455.148383	268.604196
457.556011	263.636364
459.963007	260.442657
462.369372	257.286713
464.773054	256.160140
467.176106	255.909091
469.578528	256.887413
471.980320	254.338462
474.379435	253.195105
476.779969	251.722378
479.179874	251.643357
481.575056	251.493007
483.973705	251.202098
486.367634	248.176923
488.760937	248.471329
491.153614	245.981119
493.545666	240.322378
495.939136	233.910490
498.327894	225.001399
500.713986	214.415385
503.101498	202.350350
505.488387	195.827273
507.872612	188.388811
510.258255	186.203497
512.641237	179.383916
515.021558	174.052448
517.403298	172.181119
519.782379	169.769231
522.162879	165.002098
524.540721	166.218182
526.915908	163.916783
529.290477	163.663636
531.666464	163.888112
534.039799	168.679021
536.414551	168.427972
538.784618	166.001399
541.154069	161.280420
543.524938	153.300000
545.891127	149.774825
548.258734	147.704196
550.623695	144.325175
552.988043	143.253147
555.351778	141.010490
557.716931	141.627972
560.077412	142.868531
562.439311	144.765734
564.798569	143.314685
567.155190	142.732867
569.515255	143.685315
571.868629	141.921678
574.225448	143.758042
576.579632	144.369231
578.933208	145.417483
581.286175	143.167133
583.636510	142.039161
585.988263	138.493007
588.333339	138.424476
590.683879	135.483217
593.027745	135.916084
595.377073	135.843357
597.721752	136.408392
600.063807	136.337762
602.407279	137.837762
604.748128	139.344755
607.088375	140.104895
609.426001	136.549650
611.767062	135.846154
614.103485	133.350350
616.441325	133.394406
618.776548	128.680420
621.109155	128.614685
623.443178	124.484615
625.774587	121.560839
628.105398	118.985315
630.435612	118.609091
632.765227	119.440559
635.090220	121.250350
637.420653	122.327972
639.746466	125.876923
642.069671	126.078322
644.394293	127.930769
646.716309	123.707692
649.037731	122.722378
651.356551	118.625175
653.676786	117.234965
655.996428	117.220979
658.313469	116.480420
660.629918	118.996503
662.943769	121.560140
665.259036	122.061538
667.571706	123.970629
669.885791	122.889510
672.195276	122.310490
674.506177	117.241958
676.814485	114.837063
679.122205	112.116783
681.431339	112.841958
683.735881	112.906993
686.039837	110.202098
688.343207	109.169930
690.647991	107.784615
692.948189	108.435664
695.249801	109.820979
697.550829	111.097203
699.847274	109.624476
702.145135	108.405594
704.442412	106.072727
706.739106	104.728671
709.031224	104.623077
711.326753	103.910490
713.617708	105.539161
715.910078	105.671329
718.199873	108.259441
720.489087	110.044755
722.777722	113.110490
725.063784	114.340559
727.351261	115.334965
729.636166	115.580420
731.920494	115.255944
734.202253	113.943357
736.485426	111.995804
738.768022	113.623776
741.046062	115.803497
743.325517	112.048252
745.604395	113.223077
747.882699	112.482517
750.156453	111.923077
752.431620	110.793706
754.706214	110.941958
756.978249	111.131469
759.251697	113.501399
761.522587	112.621678
763.790921	113.610490
766.060668	116.559441
768.327861	115.383916
770.594483	114.658741
772.860535	115.773427
775.124036	118.720979
777.388950	121.936364
779.653294	125.383916
781.913109	125.761538
784.174336	126.558741
786.434996	128.634965
788.693110	128.484615
790.948679	128.867133
793.207639	129.973427
795.460100	130.244056
797.717927	123.420979
799.971236	123.301399
802.222005	122.320979
804.474186	119.941958
806.723828	115.943357
808.974883	114.360839
811.221426	112.979720
813.469381	111.969930
815.714802	113.471329
817.961634	115.015385
820.207905	118.786014
822.449671	118.416783
824.694821	113.403497
826.933498	115.715385
829.175557	109.717483
831.413118	105.307692
833.652091	105.624476
835.888537	104.543357
838.126394	102.802098
840.361726	97.623077
842.594535	98.715385
844.828755	97.555245
847.060452	97.059441
849.291595	96.074825
851.522183	97.186713
853.752217	100.267832
855.981697	104.486014
858.206695	109.694406
860.435068	117.284615
862.658961	119.041958
864.884266	114.800699
867.105095	113.228671
869.329296	110.812587
871.549024	106.457343
873.770162	104.773427
875.990750	104.693007
878.208829	107.203497
880.428317	110.683217
882.643339	113.230070
884.857814	117.251049
887.071740	120.552448
889.285120	120.426573
891.497952	113.146154
893.710238	110.101399
895.920021	108.453846
898.129259	106.586014
900.337952	108.173427
902.544146	105.190210
904.751749	107.059441
906.956854	105.967832
909.161416	102.481818
911.363483	107.799301
913.566959	114.372727
915.767941	119.818182
917.968381	118.083217
920.170230	114.452448
922.365688	117.351049
924.564505	109.957343
926.758883	109.009790
928.956619	104.512587
931.149919	104.751748
933.344628	103.986014
935.536851	103.009790
937.728535	109.852448
939.919682	115.013287
942.108346	117.718182
944.296474	111.600000
946.482121	115.700000
948.671120	115.179021
950.855696	110.302797
953.039737	112.742657
955.227128	120.829371
957.406215	129.724476
959.588653	143.676923
961.770557	145.064336
963.949986	143.597902
966.126943	144.789510
968.305308	138.767832
970.485080	138.041259
972.658503	144.447552
974.835272	140.503497
977.007634	130.684615
979.181404	124.655245
981.350770	123.876923
983.523480	117.113287
985.693725	114.820979
987.863441	106.490909
990.032628	107.804895
992.197418	121.909091
994.365549	132.685315
996.529286	151.096503
998.694429	174.541958
1000.857113	186.700699
1003.019272	186.170629
1005.178974	187.193007
1007.338151	176.952448
1009.498735	161.947552
1011.656865	158.027273
1013.814470	138.872727
1015.971552	138.609790
1018.128110	136.515385
1020.280289	139.887413
1022.433875	145.175524
1024.586939	163.972028
1026.737554	158.695105
1028.889576	161.616783
1031.037224	171.419580
1033.188204	169.435664
1035.334813	179.199301
1037.480903	183.360140
1039.626475	175.190909
1041.773452	170.283916
1043.914140	162.020979
1046.058158	158.680420
1048.199735	165.522378
1050.340796	170.932867
1052.483261	158.637762
1054.619447	158.137063
1056.758958	149.955245
1058.894115	145.407692
1061.032596	150.413287
1063.166723	157.827273
1065.300337	165.996503
1067.435356	163.044056
1069.566025	166.193007
1071.698099	167.790909
1073.827744	171.704895
1075.956877	184.095804
1078.085498	187.136364
1080.213608	191.718182
1082.339292	186.485315
1084.464466	185.792308
1086.591044	180.416084
1088.713284	186.084615
1090.836929	176.306294
1092.956239	172.958042
1095.080779	160.276923
1097.199073	149.731469
1099.318772	139.577622
1101.436052	144.466434
1103.552826	138.568531
1105.669093	143.334965
1107.782944	137.029371
1109.898200	137.158741
1112.009132	139.441259
1114.123377	138.013986
1116.233301	129.358042
1118.344629	133.159441
1120.455452	131.300699
1122.561959	120.291608
1124.671776	121.797902
1126.777278	114.232867
1128.884183	113.076923
1130.984873	114.233566
1133.090775	114.334965
1135.192368	125.102797
1137.295364	125.075524
1139.397859	119.171329
1141.494147	119.597203
1143.595643	123.521678
1145.692835	125.838462
1147.789530	112.574126
1149.885726	117.475524
1151.981425	107.911189
1154.076625	106.530070
1156.169429	105.786014
1158.263636	103.825874
1160.351651	104.920280
1162.444864	102.914685
1164.531889	110.574126
1166.622213	117.730769
1168.708250	129.630070
1170.797584	140.302098
1172.880737	140.516783
1174.965292	147.324476
1177.051249	141.660839
1179.132924	141.618881
1181.216001	138.327972
1183.296692	125.955944
1185.376891	114.146853
1187.456599	103.622378
1189.535816	101.219580
1191.612651	90.249650
1193.687105	95.768531
1195.764850	100.199301
1197.838326	99.234965
1199.913202	102.661538
1201.983811	100.963636
1204.055821	105.627273
1206.125456	103.204196
1208.196491	100.014685
1210.267038	101.362238
1212.333324	100.756643
1214.401011	104.727972
1216.466326	105.486713
1218.533041	111.239161
1220.595500	113.027972
1222.661244	112.837063
1224.722734	109.768531
1226.785625	107.999301
1228.846148	107.139161
1230.906187	102.347552
1232.965744	99.643357
1235.022935	102.389510
1237.079645	91.481119
1239.133991	90.655245
1241.191619	91.651748
1243.246884	87.674825
1245.297908	84.156643
1247.350332	87.435664
1249.402276	89.092308
1251.451862	101.565035
1253.500969	109.622378
1255.549598	118.532168
1257.597748	118.288811
1259.645419	120.229371
1261.688860	116.195105
1263.735577	115.097902
1265.779940	109.211189
1267.823827	106.672028
1269.865362	100.622378
1271.904548	92.086014
1273.947007	94.688811
1275.985243	98.637762
1278.024878	95.124476
1280.064038	97.041958
1282.098979	89.551049
1284.135319	93.058042
1286.169315	101.092308
1288.204708	100.817483
1290.235889	98.650350
1292.268467	100.327972
1294.300574	95.730070
1296.330340	91.925874
1298.361504	92.379021
1300.388460	89.133566
1302.416814	86.479720
1304.440963	92.760839
1306.468378	93.413287
1308.491590	106.512587
1310.516200	108.993706
1312.538476	103.337063
1314.562149	101.799301
1316.583489	99.134965
1318.604361	94.325175
1320.624766	92.874126
1322.640978	88.278322
1324.658587	87.658042
1326.673868	88.111189
1328.692408	93.537762
1330.706759	95.320979
1332.718784	95.115385
1334.734066	88.854545
1336.745163	87.404895
1338.757657	85.348252
1340.765968	85.395804
1342.777534	77.443357
1344.783062	82.483217
1346.791845	86.453846
1348.796450	91.832168
1350.804309	99.748951
1352.811706	102.997902
1354.813072	112.083916
1356.815834	113.039860
1358.818137	112.006294
1360.819980	112.731469
1362.821363	111.657343
1364.820433	113.543357
1366.819044	107.244755
1368.817197	105.837762
1370.814891	100.709091
1372.808423	102.332168
1374.803351	99.532168
1376.797821	100.660140
1378.791835	106.376224
1380.783542	104.450350
1382.774794	100.090909
1384.763740	104.156643
1386.754081	103.233566
1388.743967	98.860839
1390.731549	95.426573
1392.718678	95.847552
1394.703505	94.295804
1396.689727	91.855944
1398.673649	94.990909
1400.657118	104.518881
1402.640134	103.992308
1404.620853	106.538462
1406.602966	107.630769
1408.582783	109.243357
1410.562148	109.500000
1412.537375	105.377622
1414.515840	106.579021
1416.492012	106.635664
1418.467735	102.560839
1420.443008	93.865734
1422.415990	91.787413
1424.388524	93.390909
1426.360610	86.806294
1428.332249	87.745455
1430.299759	83.989510
1432.272343	87.802098
1434.237122	93.620280
1436.206972	87.809790
1438.172699	88.702797
1440.139818	95.503497
1442.104654	98.987413
1444.065370	98.660839
1446.031154	99.036364
1447.990983	102.813287
1449.952206	103.355944
1451.914821	108.877622
1453.873321	106.601399
1455.831378	114.082517
1457.788994	104.925175
1459.746167	97.310490
1461.701065	102.476224
1463.657356	106.155245
1465.611372	106.693706
1467.564947	112.118182
1469.516250	113.234965
1471.468946	111.942657
1473.419369	110.488811
1475.369354	109.948252
1477.318900	108.239161
1479.266177	106.357343
1481.211186	98.245455
1483.157588	104.797902
1485.103552	110.431469
1487.049079	105.239161
1488.992340	111.795105
1490.935166	113.120979
1492.875728	107.941958
1494.817681	103.294406
1496.757372	102.605594
1498.696629	101.761538
1500.635450	96.248252
1502.572012	100.703497
1504.509965	103.627972
1506.445659	108.667832
1508.380920	108.729371
1510.313925	103.958042
1512.246497	110.347552
1514.178637	109.137063
1516.110345	104.561538
1518.039799	108.485315
1519.970644	108.202098
1521.901057	112.008392
1523.827398	114.569231
1525.755130	127.105594
1527.680611	124.060839
1529.605663	122.304196
1531.530286	119.993706
1533.454480	117.853147
1535.376426	109.888112
1537.299763	107.092308
1539.220853	106.372028
1541.139700	112.485315
1543.059935	118.181119
1544.977928	125.853147
1546.895494	130.055944
1548.810818	137.689510
1550.727532	144.341259
1552.640191	153.581818
1554.556054	163.213287
1556.469677	165.425874
1558.381062	171.078322
1560.293837	188.695804
1562.202562	210.176224
1564.112676	236.280420
1566.022367	269.129371
1567.931635	309.688112
1569.838669	379.453147
1571.743470	470.644056
1573.649660	578.265035
1575.553618	676.016084
1577.457155	753.560839
1579.360272	798.434266
1581.261159	809.544755
1583.163435	777.018182
1585.063483	711.352448
1586.964918	624.815385
1588.862320	521.674825
1590.759303	418.758741
1592.655868	337.765734
1594.553821	271.111888
1596.445939	233.851748
1598.341250	204.546154
1600.236144	181.509790
1602.128816	163.441958
1604.021071	138.847552
1605.911107	136.674825
1607.800727	131.311189
1609.689932	130.006993
1611.578722	128.037762
1613.465294	132.110490
1615.353254	136.420979
1617.237197	140.203497
1619.122527	144.830769
1621.007444	143.620979
1622.890147	143.555944
1624.774237	141.476923
1626.654315	132.289510
1628.535781	142.701399
1630.415036	133.758042
1632.295677	126.936364
1634.170514	118.426573
1636.050332	110.860839
1637.926146	111.475524
1639.801549	112.855944
1641.678338	103.883916
1643.549331	112.539860
1645.423505	121.967832
1647.293680	117.303497
1649.167037	117.044755
1651.038190	117.952448
1652.907141	117.465734
1654.777477	118.035664
1656.643821	112.946154
1658.511550	107.448252
1660.377080	107.729371
1662.243996	113.827972
1664.106923	113.467832
1665.971235	108.251748
1667.833351	97.204895
1669.695062	90.409790
1671.558159	91.548951
1673.419060	93.603497
1675.277769	97.109091
1677.136074	104.669231
1678.995764	109.213986
1680.849686	98.029371
1682.706782	101.186014
1684.563475	111.801399
1686.416191	115.886014
1688.272079	102.050350
1690.123993	115.960140
1691.975506	121.318881
1693.826618	122.550350
1695.677330	130.320979
1697.527641	129.156643
1699.375767	128.676224
1701.225278	127.705594
1703.069040	112.203497
1704.917751	109.983916
1706.760716	90.065035
1708.606848	77.868531
1710.449017	67.512587
1712.294352	63.876923
1714.133946	58.688112
1715.974924	62.558741
1717.817285	87.644755
1719.655690	110.100699
1721.495478	123.772028
1723.333091	144.139860
1725.170308	153.309091
1727.005352	151.893706
1728.841779	136.510490
1730.676034	125.412587
1732.509894	116.448252
1734.343360	98.893706
1736.172881	79.432168
1738.005560	72.465035
1739.834295	92.581818
1741.666187	91.729371
1743.494137	88.315385
1745.321696	92.900000
1747.148862	99.457343
1748.975637	98.327273
1750.802020	97.867133
1752.624467	101.535664
1754.450069	99.500699
1756.271736	90.449650
1758.094785	82.851748
1759.915672	95.009091
1761.736171	92.136364
1763.558051	80.912587
1765.374231	86.374825
1767.193563	77.947552
1769.008968	88.096503
1770.827523	93.245455
1772.642153	99.153147
1774.456396	109.192308
1776.270253	119.967832
1778.083723	129.406294
1779.895040	144.131469
1781.707737	136.759441
1783.520049	114.781818
1785.328443	113.723077
1787.138217	113.754545
1788.944077	101.106294
1790.753082	108.153147
1792.558174	107.652448
1794.364647	101.548252
1796.170736	100.900699
1797.972914	112.177622
1799.778237	113.332867
1801.579651	106.801399
1803.382445	93.269930
1805.181333	90.895804
1806.981602	89.551748
1808.781489	90.171329
1810.579234	96.135664
1812.376599	99.488112
1814.173584	100.559441
1815.970188	91.888811
1817.764653	89.084615
1819.560497	92.367133
1821.350686	93.108392
1823.145772	91.828671
1824.935206	92.779720
1826.727776	102.881818
1828.518211	100.179720
1830.306512	105.055245
1832.097948	113.358741
1833.883738	106.493706
1835.670908	100.941259
1837.455946	95.216084
1839.244118	87.684615
1841.028404	78.335664
1842.810560	74.988112
1844.594096	71.762937
1846.375503	71.267133
1848.158289	78.562937
1849.937194	88.267133
1851.717479	101.108392
1853.495637	110.829371
1855.275174	105.955944
1857.052586	103.844755
1858.827874	107.697203
1860.604540	102.865035
1862.379084	93.246154
1864.155006	89.712587
1865.925307	80.699301
1867.698736	83.834266
1869.470045	82.076923
1871.240983	84.684615
1873.013299	92.158741
1874.780001	92.401399
1876.549829	90.033566
1878.315793	91.883916
1880.084880	102.695105
1881.850106	102.630070
1883.614964	102.183217
1885.381199	102.625874
1887.143575	101.353846
1888.905584	105.809790
1890.667225	93.993706
1892.428500	89.746853
1894.189407	92.700000
1895.949948	90.791608
1897.708379	84.701399
1899.466444	84.372727
1901.222402	91.815385
1902.979736	89.371329
1904.736705	92.755944
1906.491567	99.534266
1908.244325	107.659441
1909.996718	110.774825
1911.750488	112.241958
1913.502154	112.783916
1915.251718	111.832867
1917.002657	110.706294
1918.753234	104.525874
1920.499971	98.530070
1922.248085	99.386014
1923.994099	93.102098
1925.741488	90.789510
1927.486780	94.898601
1929.229974	97.179021
1930.974543	94.614685
1932.717017	94.586713
1934.459130	95.973427
1936.200883	102.451748
1937.942276	107.287413
1939.681576	116.369930
1941.420517	108.911189
1943.159099	113.814685
1944.895590	108.802098
1946.631723	113.074825
1948.369230	114.616783
1950.102915	110.448252
1951.837975	107.423077
1953.570946	111.478322
1955.303561	112.978322
1957.035820	118.316084
1958.767722	119.759441
1960.497538	118.082517
1962.225269	103.253846
1963.954375	99.876224
1965.683126	93.103497
1967.409793	94.622378
1969.136106	85.095804
1970.863792	83.029371
1972.585942	88.157343
1974.311193	95.019580
1976.032637	90.051049
1977.757182	99.848951
1979.479646	97.835664
1981.198308	98.154545
1982.920068	97.969231
1984.638026	105.037063
1986.357357	103.688811
1988.072889	106.879021
1989.793241	99.861538
1991.509795	106.358741
1993.222552	103.099301
1994.938405	102.983217
1996.652186	94.383217
1998.365617	98.572727
2000.076977	92.858042
2001.789709	94.571329
2003.498651	97.997902
2005.210685	96.578322
2006.917211	89.599301
2008.626828	94.123077
2010.334379	96.625175
2012.041581	108.125175
2013.746718	106.406993
2015.451509	115.023077
2017.157671	109.365035
2018.860051	116.902098
2020.563802	117.765734
2022.265491	118.704895
2023.966835	120.817483
2025.667833	105.905594
2027.366770	100.267133
2029.067079	103.773427
2030.763613	108.657343
2032.461518	110.862937
2034.157364	111.962238
2035.856296	116.190909
2037.549742	114.525874
2039.244559	121.872028
2040.939034	121.472028
2042.629740	115.678322
2044.323530	106.821678
2046.013553	98.719580
2047.704947	93.260140
2049.394288	95.323077
2051.084999	90.582517
2052.771947	86.691608
2054.458556	94.618182
2056.146534	97.769231
2057.830753	103.574126
2059.516343	102.503497
2061.201593	99.591608
2062.884794	100.479720
2064.569366	97.455245
2066.248475	102.944755
2067.932369	101.144056
2069.610802	102.281119
2071.292313	97.488811
2072.970072	87.895804
2074.647495	96.858042
2076.326287	94.326573
2078.003037	97.804895
2079.677745	97.046154
2081.353822	99.083217
2083.027859	102.622378
2084.701560	98.031469
2086.374926	101.586713
2088.046253	99.627273
2089.717246	95.679021
2091.387905	96.298601
2093.058230	89.167133
2094.728221	99.101399
2096.396176	102.402797
2098.063798	111.176923
2099.729385	114.113986
2101.396341	118.977622
2103.061264	115.922378
2104.725855	112.414685
2106.388414	108.639860
2108.052341	96.516783
2109.714237	87.737762
2111.375803	83.846154
2113.037037	78.808392
2114.696243	72.295804
2116.355118	74.123776
2118.013664	77.768531
2119.671880	84.758741
2121.326372	92.472727
2122.983929	100.633566
2124.641157	103.966434
2126.294663	99.916084
2127.949537	100.865035
2129.600692	101.527273
2131.254910	104.920979
2132.905411	107.544755
2134.557278	96.753147
2136.203737	93.724476
2137.854951	93.155944
2139.502451	93.433566
2141.151318	87.989510
2142.798166	90.796503
2144.444689	88.865035
2146.090886	92.054545
2147.733375	100.205594
2149.378922	106.494406
2151.020762	109.283217
2152.665659	111.148951
2154.306850	97.748252
2155.947719	99.500699
2157.588263	100.809790
2159.226795	95.090210
2160.866693	95.174825
2162.502891	96.753846
2164.140455	95.735664
2165.777697	99.043357
2167.412929	98.634965
2169.047840	98.934266
2170.682428	91.100699
2172.316696	92.459441
2173.947270	88.294406
2175.580896	102.782517
2177.210830	108.667133
2178.842129	107.675524
2180.471423	110.110490
2182.100398	105.423077
2183.729053	100.579021
2185.357389	99.436364
2186.983723	96.479720
2188.609738	90.132168
2190.233751	79.413986
2191.859130	74.881818
2193.482508	73.972028
2195.107251	86.590909
2196.728313	87.417483
2198.349058	83.068531
2199.971168	81.594406
2201.591280	82.953846
2203.209395	95.901399
2204.827195	102.662937
2206.444680	111.263636
2208.061849	106.161538
2209.678703	102.869930
2211.295241	95.130769
2212.909787	97.502098
2214.522340	95.018881
2216.136257	84.662937
2217.748183	81.014685
2219.361472	83.737762
2220.972771	90.202797
2222.582080	105.844755
2224.192753	117.065035
2225.801437	124.880420
2227.409808	127.680420
2229.016193	128.900699
2230.623941	129.491608
2232.229702	124.218881
2233.835152	118.081119
2235.438617	119.633566
2237.043445	114.157343
2238.646289	111.921678
2240.247150	111.118881
2241.849374	108.759441
2243.449616	106.997203
2245.051220	104.646853
2246.649171	104.317483
2248.248485	99.460140
2249.845819	99.502797
2251.442845	87.848951
2253.041233	87.820280
2254.635972	93.010490
2256.228734	90.216783
2257.822859	96.791608
2259.418345	92.937063
2261.010186	85.465734
2262.601721	92.137762
2264.194618	98.096503
2265.782205	104.000000
2267.374488	105.414685
2268.961465	107.556643
2270.551469	106.744056
2272.136169	105.104895
2273.725563	110.211888
2275.309655	110.328671
2276.895107	115.097902
2278.478591	102.208392
2280.065100	97.553846
2281.647976	106.570629
2283.230549	107.139510
2284.812818	110.889510
2286.391457	107.515734
2287.973121	117.876224
2289.551156	121.770280
2291.132214	128.794406
2292.709645	134.920629
2294.285113	132.504196
2295.863603	133.409441
2297.438469	122.460839
2299.013034	117.157692
2300.587299	109.387413
2302.161263	95.563287
2303.734926	81.977622
2305.308290	79.467832
2306.878035	84.700000
2308.447481	94.144056
2310.019945	110.844755
2311.587135	115.579720
2313.157343	127.743357
2314.723936	131.175524
2316.291889	127.669930
2317.857886	118.334266
2319.423586	102.300699
2320.988988	104.093706
2322.552437	94.146853
2324.117245	103.457343
2325.678445	108.375524
2327.242659	107.927273
2328.801611	112.997203
2330.363578	111.388811
2331.923593	112.382517
2333.483314	100.389510
2335.041085	89.133566
2336.598561	77.595105
2338.155743	75.844056
2339.710977	87.429371
2341.265918	90.809790
2342.820564	106.912587
2344.374917	117.006294
2345.928977	111.837063
2347.482742	113.479021
2349.034564	110.854545
2350.584442	104.618881
2352.137328	105.187413
2353.684972	93.081818
2355.235623	96.797902
2356.782683	98.072727
2358.331101	91.319580
2359.879228	86.144755
2361.423766	92.109790
2362.969662	96.681119
2364.513620	86.234965
2366.058935	83.455245
2367.600665	88.612587
2369.143752	106.388112
2370.684903	113.809091
2372.225765	114.805594
2373.766338	121.707692
2375.306622	123.628671
2376.846617	116.102797
2378.383034	104.673427
2379.922452	94.156643
2381.458293	81.229371
2382.995490	65.674126
2384.529112	64.983217
2386.065734	63.846154
2387.600426	78.414685
2389.133188	79.045455
2390.665663	91.359441
2392.196210	105.617483
2393.729755	123.453147
2395.258089	122.702098
2396.787780	114.237063
2398.317184	103.721678
2399.846304	108.127273
2401.375139	96.978322
2402.898768	104.108392
2404.427033	101.635664
2405.950096	104.795804
2407.477792	104.384615
2408.998649	120.728671
2410.524139	127.219580
2412.046068	121.031469
2413.569353	104.541259
2415.090716	92.832867
2416.610160	80.956643
2418.130959	71.998601
2419.649840	58.495804
2421.168438	78.614685
2422.685119	83.380420
2424.203154	86.826573
2425.720908	89.095804
2427.235111	113.449650
2428.749033	116.484615
2430.262675	121.760839
2431.777672	106.904196
2433.289120	113.184615
2434.801923	100.466434
2436.312812	95.915385
2437.823423	98.444755
2439.332122	112.992308
2440.843807	119.292308
2442.351949	120.430070
2443.859813	129.045455
2445.367399	140.372727
2446.871444	143.066434
2448.378474	142.251049
2449.883597	128.836364
2451.388441	136.443357
2452.891379	120.631469
2454.394041	109.501399
2455.896426	104.077622
2457.396906	105.530769
2458.898739	107.286014
2460.398667	103.346154
2461.898320	110.274126
2463.397698	109.939161
2464.895173	110.943357
2466.390746	107.055245
2467.889299	100.851748
2469.384324	94.141259
2470.880701	79.936364
2472.373552	70.127273
2473.867756	83.725874
2475.361686	93.056643
2476.852092	100.237063
2478.345476	111.140559
2479.836962	115.758741
2481.326551	124.793007
2482.815868	121.535664
2484.303289	119.477622
2485.793686	113.237063
2487.280565	103.860839
2488.768795	96.917483
2490.253508	94.186014
2491.737952	99.224476
2493.223746	101.415385
2494.707649	99.069930
2496.192902	96.960839
2497.673022	82.934965
2499.156115	92.090210
2500.637317	88.653147
2502.118250	95.069231
2503.597294	106.750350
2505.076069	106.469930
2506.554576	109.065035
2508.032815	112.281119
2509.510785	126.327273
2510.985250	123.663636
2512.462685	113.139161
2513.936616	99.617483
2515.411897	88.646154
2516.886911	96.117483
2518.358425	92.155245
2519.831288	98.983916
2521.302269	106.695105
2522.774600	103.525175
2524.241817	107.732168
2525.712001	116.369231
2527.180304	126.113986
2528.648342	115.269231
2530.116115	113.572028
2531.583623	102.886014
2533.050866	99.358741
2534.514617	97.391608
2535.979718	86.167133
2537.442942	91.034965
2538.907516	92.585315
2540.368600	88.530769
2541.831034	89.002098
2543.293205	97.132867
2544.751890	101.190210
2546.215147	101.386713
2547.673307	109.900699
2549.132816	120.687413
2550.587231	124.302098
2552.046217	120.368531
2553.503331	110.276224
2554.958574	107.782517
2556.413555	105.421678
2557.866668	99.170629
2559.321129	96.652448
2560.773720	91.469930
2562.226052	83.632867
2563.676517	82.981818
2565.129937	71.558741
2566.578275	80.088112
2568.029569	70.204895
2569.478996	76.420280
2570.924951	75.998601
2572.373861	78.630769
2573.819301	94.489510
2575.266088	95.034266
2576.711013	94.751049
2578.155679	101.118881
2579.601693	105.304196
2581.044241	105.358741
2582.488136	82.744056
2583.928566	79.340559
2585.370343	65.631469
2586.810261	70.341958
2588.251526	69.399301
2589.689329	70.067832
2591.130082	77.313986
2592.565773	71.023077
2594.004413	76.804196
2595.441195	103.118182
2596.876122	115.749650
2598.313996	119.072028
2599.746813	114.822378
2601.180977	120.770629
2602.613287	114.076224
2604.046943	115.529371
2605.478746	120.930070
2606.910295	109.305594
2608.341592	110.390909
2609.771036	105.023776
2611.200228	107.452448
2612.627570	124.912587
2614.056257	116.785315
2615.484693	106.225175
2616.909681	107.734965
2618.336016	114.632867
2619.760502	104.929371
2621.186334	113.355245
2622.608722	115.969930
2624.032456	110.524476
2625.454343	119.738462
2626.875981	117.721678
2628.295773	117.064336
2629.716911	120.834266
2631.137799	109.923077
2632.555249	100.713287
2633.975638	111.039860
2635.392590	117.168531
2636.809293	121.662238
2638.225748	127.393007
2639.641955	126.877622
2641.057914	127.640559
2642.472032	124.463636
2643.885902	117.595804
2645.297934	113.918881
2646.711309	106.688811
2648.121255	104.176923
2649.534137	109.744056
2650.943590	118.086713
2652.352797	129.797902
2653.760168	135.396503
2655.170473	141.877622
2656.578943	136.653846
2657.985577	137.174126
2659.391966	129.203497
2660.796521	134.706993
2662.202420	140.211888
2663.606486	142.879720
2665.010307	155.560140
2666.413884	175.218881
2667.815630	177.313287
2669.218719	181.828671
2670.618390	187.123776
2672.019405	189.660839
2673.417004	178.074126
2674.817533	175.168531
2676.214646	165.741958
2677.613103	169.299301
2679.009733	160.629371
2680.406120	163.569231
2681.802265	172.632168
2683.196585	185.630769
2684.592246	188.952448
2685.984499	194.930769
2687.378094	207.280420
2688.769865	202.265734
2690.162979	197.174126
2691.554269	206.976224
2692.943736	202.832867
2694.332963	198.109790
2695.721951	180.649650
2697.112280	183.300699
2698.497626	192.616084
2699.885895	189.752448
2701.272344	190.936364
2702.658554	204.357343
2704.044525	216.667133
2705.427098	216.187413
2706.811013	227.249650
2708.194690	249.608392
2709.578128	252.977622
2710.958172	268.024476
2712.339556	275.541958
2713.719126	291.026573
2715.100036	287.165734
2716.479132	288.768531
2717.856414	289.524476
2719.235037	298.682517
2720.611847	286.564336
2721.988420	277.021678
2723.364758	268.497902
2724.739285	267.758042
2726.115152	256.938462
2727.487632	257.715385
2728.863028	257.681818
2730.233464	252.423077
2731.605241	232.211189
2732.976783	240.538462
2734.346517	219.031469
2735.717592	214.616084
2737.086858	195.971329
2738.455891	193.657343
2739.823118	184.547552
2741.190112	187.097902
2742.556872	171.507692
2743.923401	172.741259
2745.288124	181.583916
2746.652615	177.998601
2748.016875	177.920979
2749.380902	191.344755
2750.744698	180.658042
2752.105120	169.431469
2753.468452	152.862238
2754.826842	140.168531
2756.188142	135.741259
2757.546072	119.576923
2758.906910	104.093706
2760.265949	105.487413
2761.621619	90.118881
2762.980197	85.667832
2764.335408	87.480420
2765.690390	94.438462
2767.043576	95.344056
2768.399668	97.772727
2769.752395	105.123776
2771.104895	103.683217
2772.457166	118.223077
2773.810776	115.560140
2775.161024	120.816783
2776.509478	114.537063
2777.860838	94.689510
2779.208838	90.826573
2780.558176	87.553846
2781.905722	92.074126
2783.253042	105.866434
2784.600135	107.046154
2785.945437	107.004196
2787.290512	107.878322
2788.635362	122.220979
2789.979986	118.112587
2791.321258	114.355245
2792.663868	97.069231
2794.006252	89.486014
2795.348411	80.251049
2796.687221	81.393007
2798.028931	71.408392
2799.367293	76.267832
2800.706991	82.835664
2802.044905	98.134965
2803.381034	110.730070
2804.716939	120.994406
2806.054182	127.785315
2807.389641	133.787413
2808.724877	123.246154
2810.058330	116.713986
2811.393120	106.516084
2812.724570	93.553846
2814.058915	67.633566
2815.388362	71.561538
2816.719146	78.983916
2818.049708	78.256643
2819.378491	80.287413
2820.708610	82.936364
2822.036951	94.567133
2823.365071	99.902797
2824.691413	91.119580
2826.019092	86.278322
2827.343437	89.747552
2828.669119	80.602098
2829.993025	74.133566
2831.316712	80.194406
2832.641734	78.582517
2833.963426	75.664336
2835.284900	80.367832
2836.606155	81.690210
2837.927191	84.078322
2839.246454	78.736364
2840.567053	72.114685
2841.885881	73.526573
2843.204490	74.795105
2844.521328	62.895105
2845.837949	63.500000
2847.154353	61.981818
2848.468987	60.970629
2849.784957	66.851049
2851.097606	69.577622
2852.411590	70.590909
2853.725358	71.180420
2855.038909	66.979021
2856.350694	70.082517
2857.660712	74.702797
2858.972065	72.484615
2860.280103	74.202797
2861.589475	86.286713
2862.898633	95.593007
2864.207575	97.363636
2865.514753	100.783916
2866.820169	84.360839
2868.126919	82.083916
2869.431906	76.581119
2870.736680	64.274126
2872.039692	62.156643
2873.345585	51.543357
2874.646624	45.612587
2875.948997	58.836364
2877.249610	67.951049
2878.551557	79.476224
2879.853290	88.752448
2881.151720	103.520280
2882.451483	97.388112
2883.749489	95.028671
2885.047283	87.313986
2886.343321	84.325874
2887.640692	87.371329
2888.936307	71.971329
2890.231711	62.484615
2891.526904	59.980420
2892.818800	64.327273
2894.113572	75.706294
2895.405047	86.948252
2896.697855	91.132168
2897.990453	87.483916
2899.279757	86.140559
2900.570393	85.737063
2901.859278	92.174126
2903.149495	95.875524
2904.436421	81.302797
2905.724679	61.125175
2907.011188	50.213986
2908.297489	66.023776
2909.583581	61.221678
2910.867925	50.148252
2912.155140	48.302098
2913.437529	65.134965
2914.721250	73.815385
2916.003225	73.335664
2917.284992	69.853846
2918.565015	67.922378
2919.847907	47.286713
2921.129054	34.560140
2922.406919	31.243357
2923.687653	31.429371
2924.965106	14.583217
2926.242353	18.861538
2927.517858	31.186014
2928.796231	51.123776
2930.069790	58.671329
2931.346216	67.523776
2932.620901	79.015385
2933.893845	88.206993
2935.168121	83.870629
2936.440657	94.216084
2937.712988	90.800699
2938.982047	87.419580
2940.253971	78.823077
2941.524157	77.883916
2942.794139	75.330769
2944.063918	71.723077
2945.331961	69.509790
2946.598267	75.444056
2947.864372	84.417483
2949.131806	78.488112
2950.397506	70.676923
2951.663003	66.692308
2952.928298	59.931469
2954.190328	59.588811
2955.453688	61.179720
2956.716847	64.354545
2957.978274	72.425874
2959.241030	81.946154
2960.502054	90.265734
2961.761348	96.446154
2963.020442	103.365734
2964.279335	101.406294
2965.538028	105.071329
2966.796521	101.488811
2968.053285	94.807692
2969.309849	90.774126
2970.564686	85.579021
2971.820851	75.407692
2973.073762	62.304895
2974.328002	59.495105
2975.582043	51.279720
2976.834358	51.642657
2978.086474	52.479720
2979.336866	54.593706
2980.590113	73.231469
2981.838583	78.030769
2983.089908	82.844755
2984.337983	89.739161
2985.585862	94.300699
2986.833543	95.338462
2988.081027	94.454545
2989.326790	95.344755
2990.572357	88.313986
2991.819251	84.316783
2993.062901	74.206294
2994.307879	66.313287
2995.549613	66.711189
2996.794199	62.238462
2998.037066	58.069930
2999.276692	56.293706
3000.519168	60.033566
3001.758404	65.888112
3002.998968	69.363636
3004.237816	70.560140
3005.476468	72.193706
3006.713406	75.287413
3007.951670	78.771329
3009.188219	74.251748
3010.424575	71.560839
3011.660737	69.060140
3012.895185	67.132168
3014.129441	58.696503
3015.363503	68.334266
3016.595853	74.825874
3017.826491	75.661538
3019.059975	78.803497
3020.291747	80.533566
3021.521809	83.146154
3022.751679	83.361538
3023.979839	75.511888
3025.209325	79.093007
3026.437102	78.298601
3027.664688	72.078322
3028.893601	66.406993
3030.117771	82.858042
3031.344784	81.771329
3032.568573	83.444755
3033.793689	75.035664
3035.017098	70.940559
3036.240317	71.515385
3037.461831	69.720280
3038.686186	67.862238
3039.905806	72.043357
3041.126752	72.492308
3042.347509	70.003497
3043.566562	76.594406
3044.786940	82.659441
3046.004102	72.382517
3047.222590	66.901399
3048.439375	59.369930
3049.655973	68.713986
3050.872382	71.430070
3052.085579	75.441259
3053.301613	76.618182
3054.514435	79.627273
3055.730094	87.658042
3056.941030	92.515385
3058.153291	102.277622
3059.365366	110.495804
3060.577253	105.720280
3061.787444	103.172727
3062.997448	101.194755
3064.207266	100.731469
3065.415388	83.501748
3066.623325	69.163636
3067.829566	58.710140
3069.037132	38.660839
3070.243003	24.466783
3071.448690	20.360839
3072.654191	29.553497
3073.857999	38.288112
3075.063131	45.598252
3076.266570	51.055245
3077.468318	59.454196
3078.669881	63.109790
3079.871261	61.972727
3081.072457	66.483217
3082.271963	68.089510
3083.471286	49.261538
3084.671932	40.422378
3085.870888	40.334965
3087.066650	41.378322
3088.265241	46.059441
3089.460638	55.071329
3090.657358	58.533566
3091.850886	61.511189
3093.047242	63.166434
3094.241912	68.713287
3095.433391	74.661538
3096.629201	71.432168
3097.820318	60.378322
3099.012757	58.849650
3100.202009	63.501399
3101.394086	66.009790
3102.584480	60.857343
3103.771688	67.369231
3104.960219	66.847552
3106.150071	58.868531
3107.336740	61.469930
3108.523228	62.789510
3109.709538	58.600000
3110.897169	52.244056
3112.081618	45.183217
3113.264388	47.042657
3114.449980	50.576224
3115.633893	46.312587
3116.816127	47.111189
3117.998182	65.222378
3119.180059	66.150350
3120.361758	71.028671
3121.541780	83.408392
3122.720125	81.496503
3123.901290	79.193007
3125.079280	79.593706
3126.257094	73.867133
3127.434730	73.491608
3128.610691	67.749650
3129.786475	61.112587
3130.963581	66.084615
3132.139012	64.820979
3133.312770	57.831469
3134.484855	59.466434
3135.658262	59.441259
3136.831492	45.639860
3138.003051	48.802797
3139.175930	55.003497
3140.345642	47.787413
3141.516675	42.834266
3142.686038	41.023077
3143.853730	43.341259
3145.024238	44.560140
3146.190088	37.570629
3147.360246	34.339161
3148.525748	47.051049
3149.691075	43.179021
3150.856229	47.448252
3152.021210	61.000699
3153.187510	61.934965
3154.349158	60.016783
3155.512125	65.558741
3156.674920	71.097203
3157.837542	76.023776
3158.998499	71.137762
3160.159283	61.243357
3161.319895	71.660140
3162.478843	77.183217
3163.637620	68.798601
3164.796225	71.548252
3165.954657	67.941259
3167.112919	58.267832
3168.269518	50.294406
3169.424456	53.204196
3170.580713	51.070629
3171.735309	51.863636
3172.889735	55.779021
3174.042501	58.451748
3175.195096	76.705594
3176.347522	76.695105
3177.499778	77.834266
3178.651863	76.276224
3179.800803	67.478322
3180.952549	55.813986
3182.102637	51.873427
3183.251069	54.641958
3184.399331	58.306993
3185.547425	65.845455
3186.695350	72.811888
3187.841619	78.693007
3188.987720	80.416084
3190.132167	75.730070
3191.276446	74.554545
3192.420557	76.632867
3193.565985	68.219580
3194.708275	67.205594
3195.850398	72.168531
3196.992353	72.149650
3198.134141	77.760140
3199.275762	82.781119
3200.414248	72.898601
3201.554051	70.060140
3202.695172	53.188811
3203.833158	53.265734
3204.969495	49.730769
3206.105666	54.336364
3207.243154	57.511189
3208.378994	62.145455
3209.516151	66.608392
3210.648695	62.965035
3211.785521	71.888112
3212.917735	72.650350
3214.051266	58.830070
3215.184633	64.480420
3216.314872	58.543357
3217.447909	65.268531
3218.577820	54.141958
3219.709047	59.337762
3220.837150	54.196503
3221.968049	53.510490
3223.097304	60.981818
3224.224916	54.675524
3225.349405	66.889510
3226.478170	59.592308
3227.603813	59.724476
3228.729294	71.014685
3229.853133	69.404196
3230.979766	68.975524
3232.101802	60.611189
3233.225154	65.083217
3234.348344	59.944056
3235.471372	64.258042
3236.592760	69.737762
3237.713986	68.857343
3238.833575	80.170629
3239.953002	75.266434
3241.070791	77.327273
3242.191372	79.270629
3243.308840	76.576923
3244.426147	85.927273
3245.543294	92.019580
3246.658805	94.367133
3247.775630	87.928671
3248.889346	87.168531
3250.005851	83.858042
3251.120722	84.539161
3252.232484	86.751748
3253.344086	68.856643
3254.457004	56.966434
3255.569762	48.909790
3256.679414	42.427972
3257.790381	49.253846
3258.901189	51.723077
3260.010365	55.873427
3261.117911	55.365734
3262.226770	65.939860
3263.335472	59.521678
3264.441071	60.423776
3265.547984	68.974126
3266.653268	65.315385
3267.759866	61.705594
3268.863364	57.460140
3269.968177	43.539860
3271.072832	46.916084
3272.174388	53.997902
3273.275788	50.734965
3274.378502	42.284615
3275.481060	43.820280
3276.580521	37.435664
3277.682766	43.865734
3278.781915	56.559441
3279.879440	59.899301
3280.976809	64.604196
3282.076960	63.932168
3283.174019	62.587413
3284.270922	66.537762
3285.367670	73.164336
3286.459860	76.895105
3287.556298	78.523077
3288.651114	76.730769
3289.745776	77.972028
3290.838816	80.592308
3291.931701	77.151049
3293.022967	73.575524
3294.115544	66.027972
3295.206502	59.874825
3296.295840	60.174825
3297.385025	53.637063
3298.475523	57.925874
3299.562936	55.811189
3300.650196	53.888811
3301.738769	48.634266
3302.827190	49.867133
3303.911063	47.628671
3304.999178	41.768531
3306.084211	47.216084
3307.167629	49.782517
3308.252359	63.223077
3309.335473	67.455245
3310.419900	69.793007
3311.501248	65.983217
3312.583908	60.906294
3313.664954	67.669231
3314.745849	64.143357
3315.825130	58.479720
3316.904261	54.169930
3317.984704	50.036364
3319.062072	49.825874
3320.140752	53.753846
3321.217820	53.846853
3322.294739	41.955245
3323.370046	37.383217
3324.445204	33.813287
3325.521673	36.051049
3326.595072	48.167133
3327.668322	50.960839
3328.742882	49.852448
3329.815834	64.109790
3330.887177	68.431469
3331.959831	71.598601
3333.029419	84.669231
3334.100317	79.890210
3335.169608	66.437762
3336.240210	64.918182
3337.309205	62.681119
3338.376594	61.365734
3339.442378	55.646853
3340.512388	54.160839
3341.579335	49.913287
3342.643220	53.639860
3343.709873	45.051748
3344.774921	48.242657
3345.838366	61.020979
3346.901665	62.176224
3347.964817	62.923776
3349.027823	62.397902
3350.090683	62.580420
3351.151941	61.872028
3352.210142	64.479021
3353.272563	78.194406
3354.331929	71.716084
3355.391149	65.235664
3356.451679	57.534965
3357.507699	57.481119
3358.566483	58.183916
3359.620760	56.432168
3360.677801	46.197203
3361.733243	39.578322
3362.789995	41.336364
3363.845148	32.490909
3364.898704	42.283916
3365.950664	48.406993
3367.005385	41.358741
3368.057057	45.533566
3369.108586	48.660140
3370.161423	49.820979
3371.211213	53.709790
3372.262312	57.416084
3373.310365	55.602098
3374.361177	57.162238
3375.408945	52.856643
3376.456570	48.044755
3377.504052	53.544056
3378.549942	49.759441
3379.597140	44.123077
3380.641296	53.296503
3381.688210	49.844056
3382.733532	55.568531
3383.775813	60.239860
3384.817954	70.000000
3385.861402	69.727273
3386.904709	68.462937
3387.946427	63.823776
3388.988003	66.087413
3390.029438	55.923077
3391.069285	49.330769
3392.107543	34.888811
3393.147109	36.230070
3394.186535	25.781119
3395.224373	33.886014
3396.260624	33.253147
3397.296736	46.518182
3398.334155	49.734965
3399.368541	62.079021
3400.404234	64.737762
3401.439788	72.265035
3402.472311	69.197902
3403.507587	74.061538
3404.539832	76.142657
3405.571939	78.572727
3406.602462	69.763636
3407.634292	61.259441
3408.665984	47.451748
3409.694648	54.362937
3410.723175	47.782517
3411.753008	54.097203
3412.782704	48.118182
3413.809374	49.462238
3414.837351	54.748951
3415.862303	62.315385
3416.890005	63.912587
3417.914684	60.234965
3418.940669	58.930070
3419.965074	47.433566
3420.989343	44.855245
3422.012033	52.720979
3423.034587	48.473427
3424.058447	56.040559
3425.079287	53.651049
3426.099991	58.178621
3427.122002	61.117882
3428.140994	61.070230
3429.159850	56.637063
3430.180013	46.419780
3431.197159	29.019780
