-118.059454	10.013187
-115.389854	4.248352
-112.723189	0.518082
-110.057276	-1.552448
-107.394295	-2.338062
-104.729885	-2.213586
-102.068405	-1.553846
-99.405496	0.376923
-96.747693	-2.646154
-94.088461	-3.650350
-91.429977	-4.376923
-88.774417	-1.628671
-86.117429	-0.370629
-83.465539	0.024476
-80.812218	-0.583916
-78.161818	-2.278322
-75.509988	-2.520979
-72.863249	-2.407692
-70.215081	-3.713986
-67.567655	-3.558741
-64.923143	-4.824476
-62.277203	-3.337762
-59.636344	-2.927972
-56.994056	-0.016084
-54.354677	2.727972
-51.713868	5.793007
-49.073800	5.931469
-46.438804	7.267832
-43.802380	7.581119
-41.168858	6.173427
-38.533908	7.524476
-35.904023	6.500000
-33.270546	5.576224
-30.642131	7.318881
-28.014450	4.393007
-25.385340	0.134965
-22.761287	-20.230769
-20.133645	-93.245455
-17.511056	-219.552448
-14.889199	-333.581119
-12.268072	214.136364
-9.647675	1225.669231
-7.030167	2059.876923
-4.411230	2642.681818
-1.795178	2971.310490
0.820145	3046.711189
3.434741	2864.170629
6.046454	2434.169231
8.659596	1767.009091
11.267704	917.546154
13.879394	62.248252
16.486053	-497.532168
19.094140	-329.562937
21.701503	-26.024476
24.303841	5.125874
26.909757	6.955944
29.510651	6.596503
32.112973	7.149650
34.710278	5.353846
37.311158	4.502098
39.907023	0.716783
42.504317	-3.420979
45.100891	-3.107692
47.692456	-4.167832
50.285449	-6.725175
52.875581	-4.333566
55.467141	-4.536364
58.055841	-2.689510
60.645968	-2.172727
63.231096	-1.769930
65.817652	-1.295105
68.403494	1.144056
70.986482	0.102797
73.570896	-2.470629
76.148182	-0.427972
78.729034	0.189510
81.307037	-1.112587
83.884330	-0.646853
86.463049	-4.243357
89.036786	-5.279021
91.611951	-5.953147
94.184272	-5.012587
96.755885	-4.095804
99.324658	-3.014685
101.894858	-4.206993
104.462220	-3.613986
107.031007	0.067832
109.596958	3.100699
112.160074	4.101399
114.726746	3.348252
117.284197	4.145455
119.847333	5.132168
122.405509	9.013986
124.967240	12.300699
127.524014	15.844755
130.082215	23.166434
132.635462	28.275524
135.188012	35.376923
137.744112	43.790210
140.295264	54.332867
142.845719	62.913986
145.395476	69.755944
147.942414	77.232168
150.488657	79.515385
153.036325	82.187413
155.583297	82.200699
158.125334	80.988811
160.666677	81.756643
163.207327	78.749650
165.749403	78.769930
168.288667	77.999301
170.825123	79.117483
173.360887	81.186014
175.898077	83.101399
178.434576	83.429371
180.968269	83.637063
183.499158	84.023077
186.029360	82.409091
188.560986	80.927273
191.089811	80.889510
193.615837	81.744056
196.141177	82.895804
198.667942	82.679720
201.191911	82.907692
203.715195	84.853147
206.237794	83.534965
208.757600	81.705594
211.276723	83.067133
213.795163	82.190909
216.315027	79.719580
218.827890	79.259441
221.344284	79.248951
223.859996	81.811888
226.370818	82.625874
228.883065	83.895804
231.392530	86.094406
233.901316	89.874126
236.409423	90.032168
238.918955	93.137063
241.423606	94.200000
243.927581	94.495804
246.432980	92.232168
248.933504	89.978322
251.437552	90.006993
253.934628	88.517483
256.435228	86.579720
258.933056	85.523776
261.430211	85.882517
263.926693	86.130769
266.418312	87.358741
268.913451	88.186014
271.405823	89.592308
273.897525	89.104196
276.386464	86.839161
278.876827	86.590210
281.364427	87.080420
283.849268	87.698601
286.337624	88.879021
288.819040	88.540559
291.303970	88.605594
293.784055	88.185315
296.267652	89.056643
298.746406	88.343357
301.226584	91.547552
303.704009	91.479021
306.180771	94.283916
308.656870	99.388811
311.130220	106.620280
313.602908	116.139161
316.074935	122.607692
318.546301	125.528671
321.014922	125.504196
323.482885	122.159441
325.952269	116.111189
328.416831	111.834965
330.884897	109.900000
333.348143	106.279021
335.810731	104.018881
338.272663	104.860839
340.733938	107.330070
343.192479	109.261538
345.652442	109.275524
348.109672	106.117483
350.566248	103.381119
353.022170	101.435664
355.475362	100.293007
357.929977	100.541259
360.379790	103.234965
362.833099	100.520979
365.281610	100.565734
367.729469	102.755944
370.178751	103.013986
372.623239	101.894406
375.069149	102.231469
377.514409	99.638462
379.956951	99.647552
382.398845	101.171329
384.840092	102.717483
387.278623	100.579021
389.718576	102.081119
392.155815	99.013986
394.590342	100.443357
397.028357	102.895804
399.461595	104.005594
401.896254	106.440559
404.326141	108.765035
406.759513	107.574126
409.188115	110.020979
411.616075	110.315385
414.045457	108.162238
416.470073	106.853147
418.896111	104.033566
421.321508	98.900000
423.746265	98.461538
426.166264	97.149650
428.587684	94.954545
431.006407	94.807692
433.426551	95.310490
435.844000	96.425175
438.262869	99.608392
440.679045	99.243357
443.090473	102.241958
445.505379	106.590210
447.917594	107.505594
450.329175	109.297203
452.740122	114.720979
455.148383	112.872727
457.556011	107.702098
459.963007	106.579720
462.369372	103.888811
464.773054	99.623077
467.176106	95.802797
469.578528	92.795804
471.980320	96.100699
474.379435	99.333566
476.779969	101.886014
479.179874	105.204196
481.575056	108.025874
483.973705	105.134965
486.367634	103.832867
488.760937	100.547552
491.153614	97.137063
493.545666	92.732867
495.939136	88.267832
498.327894	84.738462
500.713986	84.104895
503.101498	81.420280
505.488387	78.174825
507.872612	74.389510
510.258255	68.338462
512.641237	67.724476
515.021558	66.001399
517.403298	61.704196
519.782379	61.321678
522.162879	58.746154
524.540721	57.675524
526.915908	55.618881
529.290477	54.019580
531.666464	54.658741
534.039799	54.102797
536.414551	53.907692
538.784618	54.048951
541.154069	52.983217
543.524938	51.046154
545.891127	50.522378
548.258734	52.077622
550.623695	47.400000
552.988043	47.746154
555.351778	46.853147
557.716931	48.311189
560.077412	51.451049
562.439311	54.170629
564.798569	58.826573
567.155190	58.124476
569.515255	55.161538
571.868629	57.260839
574.225448	57.722378
576.579632	57.758042
578.933208	53.581119
581.286175	54.928671
583.636510	52.937063
585.988263	54.385315
588.333339	51.528671
590.683879	49.565734
593.027745	47.327972
595.377073	44.227273
597.721752	43.550350
600.063807	44.458741
602.407279	42.773427
604.748128	43.588112
607.088375	45.758741
609.426001	46.995804
611.767062	46.897902
614.103485	48.513986
616.441325	46.195105
618.776548	47.415385
621.109155	46.904196
623.443178	47.762238
625.774587	48.053846
628.105398	49.460140
630.435612	49.044755
632.765227	52.079720
635.090220	50.983217
637.420653	49.183916
639.746466	45.524476
642.069671	42.166434
644.394293	40.265734
646.716309	41.913287
649.037731	39.325874
651.356551	40.208392
653.676786	41.762937
655.996428	42.430070
658.313469	44.669231
660.629918	47.825874
662.943769	47.505594
665.259036	46.976923
667.571706	44.286014
669.885791	41.353147
672.195276	41.974825
674.506177	42.060140
676.814485	40.957343
679.122205	40.233566
681.431339	39.090909
683.735881	36.904895
686.039837	38.586014
688.343207	40.886713
690.647991	38.144056
692.948189	36.255245
695.249801	32.414685
697.550829	32.111189
699.847274	34.223776
702.145135	35.421678
704.442412	35.669231
706.739106	35.949650
709.031224	39.141958
711.326753	42.118182
713.617708	43.351049
715.910078	43.350350
718.199873	42.139860
720.489087	41.926573
722.777722	42.348951
725.063784	42.928671
727.351261	41.008392
729.636166	43.251049
731.920494	38.532867
734.202253	38.200000
736.485426	37.997203
738.768022	37.856643
741.046062	34.511888
743.325517	32.986014
745.604395	35.691608
747.882699	36.581818
750.156453	39.306993
752.431620	39.106993
754.706214	39.875524
756.978249	43.799301
759.251697	39.299301
761.522587	41.881818
763.790921	40.020979
766.060668	41.751748
768.327861	37.708392
770.594483	39.744056
772.860535	39.310490
775.124036	36.786713
777.388950	36.547552
779.653294	39.448252
781.913109	40.493706
784.174336	41.133566
786.434996	41.828671
788.693110	45.050350
790.948679	40.813986
793.207639	43.534965
795.460100	43.865734
797.717927	45.828671
799.971236	40.161538
802.222005	37.028671
804.474186	39.137063
806.723828	43.333566
808.974883	43.862238
811.221426	45.398601
813.469381	45.617483
815.714802	43.613986
817.961634	42.806993
820.207905	42.263636
822.449671	42.985315
824.694821	40.112587
826.933498	34.479021
829.175557	35.226573
831.413118	37.630070
833.652091	40.284615
835.888537	42.009790
838.126394	46.428671
840.361726	47.116783
842.594535	49.553147
844.828755	51.711888
847.060452	47.412587
849.291595	50.146853
851.522183	45.682517
853.752217	39.118182
855.981697	38.242657
858.206695	34.641958
860.435068	32.848252
862.658961	33.429371
864.884266	35.516084
867.105095	37.682517
869.329296	40.922378
871.549024	41.853846
873.770162	43.932867
875.990750	48.488112
878.208829	47.478322
880.428317	46.320280
882.643339	45.550350
884.857814	41.394406
887.071740	37.757343
889.285120	35.598601
891.497952	32.626573
893.710238	32.230070
895.920021	31.537063
898.129259	30.294406
900.337952	32.350350
902.544146	35.130769
904.751749	34.995804
906.956854	35.400000
909.161416	32.670629
911.363483	30.246853
913.566959	27.515385
915.767941	24.341958
917.968381	24.965035
920.170230	23.642657
922.365688	26.972727
924.564505	27.298601
926.758883	31.566434
928.956619	36.377622
931.149919	39.394406
933.344628	43.783217
935.536851	44.159441
937.728535	40.536364
939.919682	40.954545
942.108346	37.223776
944.296474	35.417483
946.482121	34.498601
948.671120	36.846853
950.855696	33.617483
953.039737	35.116084
955.227128	40.106993
957.406215	39.106993
959.588653	41.688811
961.770557	42.262937
963.949986	38.255944
966.126943	38.724476
968.305308	36.145455
970.485080	35.880420
972.658503	36.844056
974.835272	40.446154
977.007634	43.325175
979.181404	46.349650
981.350770	46.560839
983.523480	42.869231
985.693725	46.564336
987.863441	53.620979
990.032628	53.872727
992.197418	54.003497
994.365549	52.237762
996.529286	56.162238
998.694429	48.344056
1000.857113	47.290909
1003.019272	40.309091
1005.178974	35.929371
1007.338151	30.663636
1009.498735	33.302098
1011.656865	34.445455
1013.814470	46.344056
1015.971552	47.222378
1018.128110	47.244755
1020.280289	43.462238
1022.433875	44.995105
1024.586939	38.349650
1026.737554	35.853147
1028.889576	32.753846
1031.037224	36.746154
1033.188204	40.509790
1035.334813	48.009091
1037.480903	54.498601
1039.626475	68.936364
1041.773452	71.229371
1043.914140	71.706993
1046.058158	69.993706
1048.199735	72.708392
1050.340796	74.335664
1052.483261	70.577622
1054.619447	69.150350
1056.758958	72.937762
1058.894115	78.640559
1061.032596	80.244755
1063.166723	87.917483
1065.300337	87.794406
1067.435356	74.961538
1069.566025	70.427972
1071.698099	68.041958
1073.827744	63.281119
1075.956877	51.488811
1078.085498	45.769231
1080.213608	45.293007
1082.339292	41.461538
1084.464466	44.499301
1086.591044	53.530769
1088.713284	56.084615
1090.836929	54.014685
1092.956239	52.531469
1095.080779	69.681119
1097.199073	72.407692
1099.318772	67.127273
1101.436052	62.260140
1103.552826	66.132867
1105.669093	67.454545
1107.782944	66.008392
1109.898200	70.772727
1112.009132	75.856643
1114.123377	62.683217
1116.233301	60.018881
1118.344629	58.606993
1120.455452	59.413986
1122.561959	50.718182
1124.671776	46.512587
1126.777278	45.312587
1128.884183	51.707692
1130.984873	59.029371
1133.090775	63.365734
1135.192368	63.688811
1137.295364	61.288112
1139.397859	55.911189
1141.494147	57.897902
1143.595643	55.141259
1145.692835	50.669231
1147.789530	48.600000
1149.885726	52.360839
1151.981425	52.086713
1154.076625	54.509790
1156.169429	56.322378
1158.263636	53.553846
1160.351651	50.653846
1162.444864	47.996503
1164.531889	48.171329
1166.622213	49.562238
1168.708250	44.639161
1170.797584	43.620979
1172.880737	45.020280
1174.965292	53.633566
1177.051249	52.964336
1179.132924	53.020280
1181.216001	50.028671
1183.296692	51.740559
1185.376891	50.791608
1187.456599	49.566434
1189.535816	47.377622
1191.612651	45.940559
1193.687105	42.306294
1195.764850	39.778322
1197.838326	39.474825
1199.913202	45.405594
1201.983811	44.835664
1204.055821	42.270629
1206.125456	40.892308
1208.196491	46.155944
1210.267038	47.655245
1212.333324	47.805594
1214.401011	47.185315
1216.466326	45.009790
1218.533041	43.007692
1220.595500	41.774126
1222.661244	44.063636
1224.722734	47.562937
1226.785625	47.147552
1228.846148	46.509790
1230.906187	44.312587
1232.965744	42.797203
1235.022935	40.465035
1237.079645	36.469930
1239.133991	30.819580
1241.191619	25.759441
1243.246884	21.388811
1245.297908	18.434266
1247.350332	20.851748
1249.402276	25.379720
1251.451862	27.528671
1253.500969	30.560140
1255.549598	29.952448
1257.597748	32.414685
1259.645419	34.737063
1261.688860	39.490909
1263.735577	39.213287
1265.779940	39.160140
1267.823827	37.038462
1269.865362	39.828671
1271.904548	41.587413
1273.947007	41.523776
1275.985243	36.910490
1278.024878	33.374825
1280.064038	28.590210
1282.098979	29.137063
1284.135319	27.612587
1286.169315	32.451748
1288.204708	27.176224
1290.235889	28.516084
1292.268467	25.395804
1294.300574	28.072727
1296.330340	26.214685
1298.361504	30.356643
1300.388460	28.452448
1302.416814	32.145455
1304.440963	35.125175
1306.468378	34.246853
1308.491590	32.439161
1310.516200	32.558042
1312.538476	32.695804
1314.562149	33.235664
1316.583489	29.912587
1318.604361	32.855245
1320.624766	36.947552
1322.640978	42.200699
1324.658587	44.562937
1326.673868	47.775524
1328.692408	41.977622
1330.706759	37.227273
1332.718784	34.560839
1334.734066	33.729371
1336.745163	35.883916
1338.757657	31.821678
1340.765968	30.722378
1342.777534	30.486014
1344.783062	33.274825
1346.791845	34.956643
1348.796450	39.284615
1350.804309	34.186713
1352.811706	32.962238
1354.813072	37.711888
1356.815834	37.173427
1358.818137	38.960839
1360.819980	41.446853
1362.821363	44.695804
1364.820433	43.111888
1366.819044	39.332168
1368.817197	35.563636
1370.814891	31.586713
1372.808423	28.918182
1374.803351	24.997902
1376.797821	24.618881
1378.791835	28.640559
1380.783542	26.658042
1382.774794	30.832168
1384.763740	40.839161
1386.754081	44.953846
1388.743967	44.903497
1390.731549	42.741259
1392.718678	36.752448
1394.703505	32.251049
1396.689727	29.469930
1398.673649	28.504895
1400.657118	28.948951
1402.640134	26.653846
1404.620853	23.329371
1406.602966	24.735664
1408.582783	29.299301
1410.562148	29.044056
1412.537375	29.996503
1414.515840	31.963636
1416.492012	32.556643
1418.467735	32.836364
1420.443008	34.106294
1422.415990	38.744056
1424.388524	40.307692
1426.360610	35.444755
1428.332249	36.429371
1430.299759	37.923077
1432.272343	38.965035
1434.237122	36.895804
1436.206972	34.083916
1438.172699	33.455944
1440.139818	34.818182
1442.104654	29.837063
1444.065370	32.965035
1446.031154	33.234965
1447.990983	31.206294
1449.952206	34.597203
1451.914821	36.153147
1453.873321	39.379720
1455.831378	37.160140
1457.788994	34.506993
1459.746167	34.789510
1461.701065	34.956643
1463.657356	33.983217
1465.611372	30.318182
1467.564947	32.955245
1469.516250	33.513986
1471.468946	37.949650
1473.419369	41.053846
1475.369354	39.088112
1477.318900	42.728671
1479.266177	43.827972
1481.211186	46.578322
1483.157588	47.747552
1485.103552	46.861538
1487.049079	44.678322
1488.992340	42.711189
1490.935166	39.937063
1492.875728	41.918182
1494.817681	39.564336
1496.757372	35.469231
1498.696629	32.416084
1500.635450	36.958741
1502.572012	35.334266
1504.509965	35.885315
1506.445659	36.007692
1508.380920	38.042657
1510.313925	39.416783
1512.246497	38.113287
1514.178637	42.111189
1516.110345	45.881119
1518.039799	43.916783
1519.970644	43.371329
1521.901057	39.231469
1523.827398	42.285315
1525.755130	40.748951
1527.680611	41.225874
1529.605663	39.141958
1531.530286	36.727972
1533.454480	34.923077
1535.376426	36.566434
1537.299763	38.250350
1539.220853	36.482517
1541.139700	36.626573
1543.059935	36.695804
1544.977928	37.793706
1546.895494	41.981818
1548.810818	51.078322
1550.727532	51.984615
1552.640191	52.423776
1554.556054	58.689510
1556.469677	63.874126
1558.381062	75.788112
1560.293837	77.828671
1562.202562	87.739161
1564.112676	97.343357
1566.022367	111.321678
1567.931635	130.892308
1569.838669	154.388112
1571.743470	193.704196
1573.649660	227.867832
1575.553618	265.376923
1577.457155	296.604196
1579.360272	312.266434
1581.261159	315.010490
1583.163435	293.415385
1585.063483	269.037762
1586.964918	225.544755
1588.862320	185.024476
1590.759303	148.520979
1592.655868	115.387413
1594.553821	92.622378
1596.445939	80.603497
1598.341250	73.166434
1600.236144	69.511888
1602.128816	68.425874
1604.021071	70.601399
1605.911107	67.139860
1607.800727	65.244755
1609.689932	59.225874
1611.578722	53.845455
1613.465294	48.933566
1615.353254	38.313287
1617.237197	31.490909
1619.122527	30.795804
1621.007444	28.767832
1622.890147	26.820280
1624.774237	31.472727
1626.654315	38.386014
1628.535781	43.772028
1630.415036	40.671329
1632.295677	41.358741
1634.170514	39.800000
1636.050332	45.217483
1637.926146	45.002098
1639.801549	46.155245
1641.678338	48.021678
1643.549331	52.605594
1645.423505	50.172727
1647.293680	52.497902
1649.167037	50.292308
1651.038190	45.571329
1652.907141	35.341259
1654.777477	28.150350
1656.643821	21.468531
1658.511550	25.695804
1660.377080	22.286713
1662.243996	20.096503
1664.106923	27.973427
1665.971235	35.748252
1667.833351	45.818881
1669.695062	57.097203
1671.558159	58.695804
1673.419060	57.049650
1675.277769	60.101399
1677.136074	52.221678
1678.995764	45.502797
1680.849686	45.439161
1682.706782	39.701399
1684.563475	33.392308
1686.416191	38.703497
1688.272079	33.420280
1690.123993	38.393706
1691.975506	42.332867
1693.826618	39.406294
1695.677330	39.568531
1697.527641	44.967832
1699.375767	39.430070
1701.225278	35.931469
1703.069040	31.518881
1704.917751	37.390210
1706.760716	40.462937
1708.606848	50.341259
1710.449017	49.007692
1712.294352	53.416783
1714.133946	62.728671
1715.974924	63.203497
1717.817285	64.916084
1719.655690	59.476224
1721.495478	50.348951
1723.333091	40.269231
1725.170308	33.440559
1727.005352	28.620280
1728.841779	24.441958
1730.676034	31.940559
1732.509894	33.419580
1734.343360	39.979720
1736.172881	45.897902
1738.005560	46.181119
1739.834295	46.068531
1741.666187	44.286713
1743.494137	39.348252
1745.321696	37.363636
1747.148862	28.464336
1748.975637	12.548951
1750.802020	6.323776
1752.624467	6.301399
1754.450069	8.584615
1756.271736	21.635664
1758.094785	21.697902
1759.915672	38.827972
1761.736171	49.348252
1763.558051	49.579021
1765.374231	51.989510
1767.193563	52.740559
1769.008968	40.723776
1770.827523	32.251748
1772.642153	21.055245
1774.456396	21.441958
1776.270253	21.129371
1778.083723	31.906294
1779.895040	29.767133
1781.707737	45.472028
1783.520049	43.358741
1785.328443	42.767133
1787.138217	56.320280
1788.944077	58.546853
1790.753082	57.206294
1792.558174	57.674126
1794.364647	56.358741
1796.170736	62.291608
1797.972914	59.915385
1799.778237	62.393706
1801.579651	48.511189
1803.382445	45.744755
1805.181333	35.375524
1806.981602	37.177622
1808.781489	33.909790
1810.579234	32.672727
1812.376599	26.890909
1814.173584	25.667133
1815.970188	26.544755
1817.764653	31.253147
1819.560497	33.343357
1821.350686	34.211888
1823.145772	30.020280
1824.935206	38.708392
1826.727776	40.313986
1828.518211	45.055944
1830.306512	37.911888
1832.097948	44.011888
1833.883738	39.723776
1835.670908	36.740559
1837.455946	30.571329
1839.244118	31.192308
1841.028404	31.509091
1842.810560	30.272028
1844.594096	28.711888
1846.375503	34.633566
1848.158289	35.237762
1849.937194	34.865734
1851.717479	24.528671
1853.495637	33.689510
1855.275174	29.259441
1857.052586	31.428671
1858.827874	30.273427
1860.604540	35.646853
1862.379084	36.719580
1864.155006	35.779720
1865.925307	36.794406
1867.698736	35.730070
1869.470045	32.582517
1871.240983	27.162937
1873.013299	21.974126
1874.780001	32.865734
1876.549829	29.896503
1878.315793	36.523776
1880.084880	34.439860
1881.850106	34.722378
1883.614964	30.614685
1885.381199	30.351748
1887.143575	28.280420
1888.905584	26.146154
1890.667225	27.853147
1892.428500	27.691608
1894.189407	30.859441
1895.949948	38.448951
1897.708379	35.525175
1899.466444	38.761538
1901.222402	32.958042
1902.979736	31.388112
1904.736705	27.388112
1906.491567	25.969231
1908.244325	19.780420
1909.996718	19.594406
1911.750488	25.041259
1913.502154	31.391608
1915.251718	31.442657
1917.002657	40.411888
1918.753234	41.576923
1920.499971	43.008392
1922.248085	43.236364
1923.994099	47.665035
1925.741488	48.197203
1927.486780	48.188112
1929.229974	42.182517
1930.974543	38.694406
1932.717017	36.899301
1934.459130	40.830070
1936.200883	39.379371
1937.942276	43.653846
1939.681576	38.822727
1941.420517	30.983916
1943.159099	34.047902
1944.895590	35.530769
1946.631723	31.964685
1948.369230	33.471329
1950.102915	27.387063
1951.837975	19.305594
1953.570946	18.429021
1955.303561	22.862238
1957.035820	26.733916
1958.767722	29.662937
1960.497538	26.913986
1962.225269	31.332168
1963.954375	38.837762
1965.683126	40.223776
1967.409793	37.916084
1969.136106	43.713287
1970.863792	37.943357
1972.585942	37.519580
1974.311193	36.200699
1976.032637	37.062937
1977.757182	39.553147
1979.479646	40.806993
1981.198308	38.252448
1982.920068	45.226573
1984.638026	46.120280
1986.357357	42.733566
1988.072889	42.359441
1989.793241	44.673427
1991.509795	38.470629
1993.222552	42.465035
1994.938405	37.088112
1996.652186	33.860140
1998.365617	33.316084
2000.076977	34.693007
2001.789709	35.057343
2003.498651	33.026573
2005.210685	34.251049
2006.917211	33.420280
2008.626828	33.975524
2010.334379	38.443357
2012.041581	39.948951
2013.746718	43.523077
2015.451509	36.745455
2017.157671	33.988811
2018.860051	37.255245
2020.563802	40.892308
2022.265491	42.311888
2023.966835	41.389510
2025.667833	43.303497
2027.366770	48.005594
2029.067079	45.141259
2030.763613	51.812587
2032.461518	48.202098
2034.157364	42.160839
2035.856296	34.753147
2037.549742	29.953846
2039.244559	29.629371
2040.939034	31.134965
2042.629740	34.097902
2044.323530	37.618182
2046.013553	39.462238
2047.704947	51.765035
2049.394288	54.479720
2051.084999	58.388811
2052.771947	48.651748
2054.458556	46.657343
2056.146534	40.143357
2057.830753	38.011888
2059.516343	36.625175
2061.201593	31.824476
2062.884794	29.660140
2064.569366	28.424476
2066.248475	28.259441
2067.932369	30.862238
2069.610802	28.126573
2071.292313	23.048252
2072.970072	21.832867
2074.647495	29.078322
2076.326287	33.860140
2078.003037	39.371329
2079.677745	37.671329
2081.353822	36.211888
2083.027859	36.078322
2084.701560	36.300000
2086.374926	33.600000
2088.046253	32.409790
2089.717246	27.602797
2091.387905	24.709790
2093.058230	31.515385
2094.728221	36.296503
2096.396176	43.069930
2098.063798	41.308392
2099.729385	37.790909
2101.396341	38.237762
2103.061264	38.706294
2104.725855	38.409790
2106.388414	34.636364
2108.052341	34.055245
2109.714237	28.251748
2111.375803	28.541259
2113.037037	27.809091
2114.696243	26.053846
2116.355118	25.588811
2118.013664	23.629371
2119.671880	25.334965
2121.326372	30.051748
2122.983929	32.230070
2124.641157	40.119580
2126.294663	43.209091
2127.949537	48.011189
2129.600692	47.611888
2131.254910	43.237063
2132.905411	38.455245
2134.557278	36.855245
2136.203737	32.827273
2137.854951	31.824476
2139.502451	27.982517
2141.151318	25.037762
2142.798166	26.721678
2144.444689	33.886713
2146.090886	35.355245
2147.733375	36.687413
2149.378922	37.963636
2151.020762	39.492308
2152.665659	44.282517
2154.306850	44.723077
2155.947719	42.044755
2157.588263	38.003497
2159.226795	33.438462
2160.866693	32.074825
2162.502891	32.830070
2164.140455	28.309091
2165.777697	27.197203
2167.412929	25.052448
2169.047840	24.252448
2170.682428	20.428671
2172.316696	20.538462
2173.947270	18.160140
2175.580896	17.275524
2177.210830	13.500699
2178.842129	17.613287
2180.471423	21.920280
2182.100398	26.707692
2183.729053	27.553846
2185.357389	30.344056
2186.983723	30.705594
2188.609738	33.814685
2190.233751	35.578322
2191.859130	40.304895
2193.482508	41.037762
2195.107251	44.532168
2196.728313	44.892308
2198.349058	49.132867
2199.971168	49.483916
2201.591280	51.255245
2203.209395	44.371329
2204.827195	41.686014
2206.444680	40.106294
2208.061849	39.293007
2209.678703	36.062238
2211.295241	33.553147
2212.909787	37.677622
2214.522340	38.184615
2216.136257	36.312587
2217.748183	38.848951
2219.361472	39.034965
2220.972771	35.145455
2222.582080	31.355245
2224.192753	37.835664
2225.801437	37.469930
2227.409808	35.228671
2229.016193	38.134266
2230.623941	43.485315
2232.229702	49.743357
2233.835152	45.353846
2235.438617	46.601399
2237.043445	41.893007
2238.646289	37.864336
2240.247150	30.176923
2241.849374	31.022378
2243.449616	30.125874
2245.051220	25.992308
2246.649171	25.311189
2248.248485	28.014685
2249.845819	34.246853
2251.442845	34.800699
2253.041233	35.845455
2254.635972	36.284615
2256.228734	26.095804
2257.822859	31.760140
2259.418345	28.074825
2261.010186	27.449650
2262.601721	23.901399
2264.194618	27.534266
2265.782205	33.813986
2267.374488	37.989510
2268.961465	44.644755
2270.551469	47.937762
2272.136169	50.413986
2273.725563	43.975524
2275.309655	40.221678
2276.895107	39.474126
2278.478591	30.474126
2280.065100	24.256643
2281.647976	20.322378
2283.230549	19.079371
2284.812818	18.553846
2286.391457	24.888462
2287.973121	29.963636
2289.551156	37.601748
2291.132214	37.586014
2292.709645	36.485664
2294.285113	36.573427
2295.863603	33.899650
2297.438469	31.323077
2299.013034	29.883566
2300.587299	28.506993
2302.161263	28.309441
2303.734926	33.496503
2305.308290	45.170629
2306.878035	46.372727
2308.447481	49.422378
2310.019945	48.865734
2311.587135	50.385315
2313.157343	50.389510
2314.723936	52.800699
2316.291889	46.567133
2317.857886	44.767133
2319.423586	38.330769
2320.988988	35.581119
2322.552437	36.234965
2324.117245	36.732867
2325.678445	22.665035
2327.242659	24.800000
2328.801611	30.702797
2330.363578	35.351049
2331.923593	33.543357
2333.483314	38.308392
2335.041085	27.895105
2336.598561	32.288112
2338.155743	24.730070
2339.710977	21.643357
2341.265918	25.881119
2342.820564	30.048252
2344.374917	30.190210
2345.928977	37.204895
2347.482742	47.037063
2349.034564	46.769231
2350.584442	42.753846
2352.137328	50.320979
2353.684972	43.068531
2355.235623	49.725175
2356.782683	38.200699
2358.331101	37.123077
2359.879228	37.475524
2361.423766	40.158741
2362.969662	46.627273
2364.513620	49.388811
2366.058935	57.684615
2367.600665	57.904196
2369.143752	59.630769
2370.684903	64.580420
2372.225765	61.038462
2373.766338	60.430070
2375.306622	51.023776
2376.846617	42.881119
2378.383034	38.577622
2379.922452	39.128671
2381.458293	35.423776
2382.995490	38.964336
2384.529112	37.862238
2386.065734	35.782517
2387.600426	34.114685
2389.133188	30.904895
2390.665663	36.018182
2392.196210	43.239860
2393.729755	47.027273
2395.258089	44.084615
2396.787780	51.562937
2398.317184	50.916783
2399.846304	50.062937
2401.375139	56.999301
2402.898768	54.788811
2404.427033	49.342657
2405.950096	41.174825
2407.477792	34.584615
2408.998649	37.829371
2410.524139	37.590210
2412.046068	33.139161
2413.569353	21.274825
2415.090716	28.413986
2416.610160	22.651748
2418.130959	33.171329
2419.649840	33.959441
2421.168438	40.410490
2422.685119	38.574825
2424.203154	39.288811
2425.720908	39.355245
2427.235111	39.527972
2428.749033	38.123077
2430.262675	28.636364
2431.777672	22.148951
2433.289120	25.386713
2434.801923	21.786713
2436.312812	31.905594
2437.823423	33.035664
2439.332122	43.776923
2440.843807	46.213287
2442.351949	52.495105
2443.859813	55.603497
2445.367399	53.293007
2446.871444	53.332867
2448.378474	41.170629
2449.883597	38.925874
2451.388441	30.327273
2452.891379	27.213287
2454.394041	30.765734
2455.896426	23.177622
2457.396906	25.323776
2458.898739	22.753846
2460.398667	23.537762
2461.898320	22.225175
2463.397698	20.567832
2464.895173	33.960140
2466.390746	29.582517
2467.889299	32.419580
2469.384324	32.588811
2470.880701	40.167133
2472.373552	46.728671
2473.867756	44.003497
2475.361686	48.775524
2476.852092	42.795105
2478.345476	41.618182
2479.836962	37.129371
2481.326551	36.399301
2482.815868	31.439161
2484.303289	24.927273
2485.793686	24.865734
2487.280565	26.673427
2488.768795	27.762937
2490.253508	36.289510
2491.737952	36.769231
2493.223746	38.451049
2494.707649	38.026573
2496.192902	41.676923
2497.673022	35.631469
2499.156115	35.255245
2500.637317	24.733566
2502.118250	22.888811
2503.597294	24.164336
2505.076069	23.598601
2506.554576	19.233566
2508.032815	22.619580
2509.510785	22.732867
2510.985250	31.133566
2512.462685	32.697203
2513.936616	32.609790
2515.411897	25.600699
2516.886911	23.116783
2518.358425	9.573427
2519.831288	6.120979
2521.302269	6.418182
2522.774600	3.022378
2524.241817	2.524476
2525.712001	11.513287
2527.180304	29.196503
2528.648342	32.413986
2530.116115	34.946154
2531.583623	38.522378
2533.050866	36.160839
2534.514617	31.068531
2535.979718	28.086014
2537.442942	28.309790
2538.907516	34.123077
2540.368600	30.540559
2541.831034	29.567133
2543.293205	34.270629
2544.751890	33.773427
2546.215147	26.006993
2547.673307	30.933566
2549.132816	31.844755
2550.587231	34.719580
2552.046217	33.226573
2553.503331	35.934266
2554.958574	32.065734
2556.413555	40.285315
2557.866668	25.029371
2559.321129	22.079720
2560.773720	18.886713
2562.226052	14.675524
2563.676517	8.419580
2565.129937	12.883217
2566.578275	14.318182
2568.029569	23.347552
2569.478996	21.093007
2570.924951	33.751748
2572.373861	34.479720
2573.819301	41.389510
2575.266088	36.786713
2576.711013	37.584615
2578.155679	36.192308
2579.601693	35.070629
2581.044241	23.467133
2582.488136	20.886713
2583.928566	16.175524
2585.370343	15.203497
2586.810261	10.796503
2588.251526	24.016084
2589.689329	21.851748
2591.130082	24.224476
2592.565773	19.486713
2594.004413	28.831469
2595.441195	30.309091
2596.876122	34.211189
2598.313996	29.557343
2599.746813	29.032168
2601.180977	24.044755
2602.613287	15.832867
2604.046943	15.844056
2605.478746	21.673427
2606.910295	26.282517
2608.341592	30.653846
2609.771036	33.605594
2611.200228	47.585315
2612.627570	42.909091
2614.056257	52.833566
2615.484693	46.141259
2616.909681	46.910490
2618.336016	44.655245
2619.760502	48.351748
2621.186334	58.586713
2622.608722	63.957343
2624.032456	71.540559
2625.454343	71.555245
2626.875981	79.757343
2628.295773	72.828671
2629.716911	62.834965
2631.137799	58.897203
2632.555249	42.366434
2633.975638	39.838462
2635.392590	33.540559
2636.809293	32.548252
2638.225748	31.999301
2639.641955	35.227273
2641.057914	41.501399
2642.472032	45.300699
2643.885902	49.543357
2645.297934	41.621678
2646.711309	48.839860
2648.121255	52.870629
2649.534137	42.504196
2650.943590	50.018182
2652.352797	43.472028
2653.760168	40.116783
2655.170473	39.188811
2656.578943	50.538462
2657.985577	53.959441
2659.391966	52.087413
2660.796521	49.359441
2662.202420	54.002098
2663.606486	62.252448
2665.010307	56.541259
2666.413884	44.156643
2667.815630	52.372727
2669.218719	44.012587
2670.618390	36.414685
2672.019405	39.308392
2673.417004	54.481119
2674.817533	57.402797
2676.214646	56.816084
2677.613103	62.855245
2679.009733	72.644056
2680.406120	71.457343
2681.802265	67.809790
2683.196585	62.159441
2684.592246	66.414685
2685.984499	54.379021
2687.378094	51.394406
2688.769865	54.783916
2690.162979	59.580420
2691.554269	56.370629
2692.943736	59.981818
2694.332963	63.913287
2695.721951	70.318182
2697.112280	69.842657
2698.497626	77.957343
2699.885895	80.432168
2701.272344	80.404196
2702.658554	71.037762
2704.044525	80.788112
2705.427098	82.343357
2706.811013	83.344755
2708.194690	84.186713
2709.578128	100.419580
2710.958172	100.603497
2712.339556	107.460140
2713.719126	107.122378
2715.100036	114.376224
2716.479132	113.453147
2717.856414	111.368531
2719.235037	107.611189
2720.611847	110.806294
2721.988420	104.927273
2723.364758	97.261538
2724.739285	96.988811
2726.115152	98.690909
2727.487632	90.614685
2728.863028	85.318881
2730.233464	78.294406
2731.605241	80.279720
2732.976783	76.947552
2734.346517	74.786014
2735.717592	67.118182
2737.086858	66.714685
2738.455891	62.890909
2739.823118	66.040559
2741.190112	66.485315
2742.556872	65.078322
2743.923401	59.266434
2745.288124	59.172028
2746.652615	57.916084
2748.016875	57.425874
2749.380902	50.040559
2750.744698	39.748252
2752.105120	32.990909
2753.468452	37.339161
2754.826842	35.937762
2756.188142	35.576923
2757.546072	36.357343
2758.906910	40.490210
2760.265949	38.055245
2761.621619	42.325874
2762.980197	39.072028
2764.335408	42.283916
2765.690390	40.336364
2767.043576	36.269930
2768.399668	37.472727
2769.752395	40.637762
2771.104895	34.437762
2772.457166	34.251049
2773.810776	36.488811
2775.161024	39.867832
2776.509478	38.118881
2777.860838	33.417483
2779.208838	31.000000
2780.558176	32.067832
2781.905722	24.482517
2783.253042	20.060140
2784.600135	13.642657
2785.945437	11.378322
2787.290512	16.965035
2788.635362	20.253846
2789.979986	16.681119
2791.321258	29.246154
2792.663868	29.041958
2794.006252	31.637762
2795.348411	31.136364
2796.687221	29.651748
2798.028931	28.672727
2799.367293	31.818182
2800.706991	27.145455
2802.044905	29.008392
2803.381034	30.246853
2804.716939	27.886713
2806.054182	24.811888
2807.389641	31.193706
2808.724877	28.174126
2810.058330	31.502098
2811.393120	28.420280
2812.724570	30.737762
2814.058915	28.874126
2815.388362	26.134266
2816.719146	20.604196
2818.049708	20.220280
2819.378491	16.449650
2820.708610	19.393706
2822.036951	19.427273
2823.365071	25.908392
2824.691413	30.869231
2826.019092	37.698601
2827.343437	32.012587
2828.669119	30.471329
2829.993025	21.172028
2831.316712	14.320979
2832.641734	14.062238
2833.963426	14.887413
2835.284900	17.498601
2836.606155	15.939161
2837.927191	16.793706
2839.246454	27.868531
2840.567053	39.191608
2841.885881	44.249650
2843.204490	38.650350
2844.521328	40.247552
2845.837949	39.354545
2847.154353	41.030769
2848.468987	44.785315
2849.784957	43.053147
2851.097606	43.058741
2852.411590	39.295804
2853.725358	33.352448
2855.038909	35.990909
2856.350694	36.004895
2857.660712	25.802797
2858.972065	16.651049
2860.280103	11.198601
2861.589475	16.809091
2862.898633	18.560839
2864.207575	24.293706
2865.514753	24.700000
2866.820169	32.334266
2868.126919	41.469930
2869.431906	37.761538
2870.736680	37.267832
2872.039692	40.008392
2873.345585	37.474825
2874.646624	29.945455
2875.948997	37.364336
2877.249610	50.106993
2878.551557	48.595804
2879.853290	50.067133
2881.151720	48.785315
2882.451483	44.735664
2883.749489	39.323077
2885.047283	30.539860
2886.343321	19.666434
2887.640692	14.251748
2888.936307	10.096503
2890.231711	5.306993
2891.526904	11.286713
2892.818800	18.128671
2894.113572	17.799301
2895.405047	13.995804
2896.697855	19.788112
2897.990453	20.966434
2899.279757	27.935664
2900.570393	30.869930
2901.859278	25.077622
2903.149495	28.634266
2904.436421	36.177622
2905.724679	32.469930
2907.011188	32.432867
2908.297489	36.158741
2909.583581	41.662238
2910.867925	41.699301
2912.155140	42.430070
2913.437529	40.771329
2914.721250	38.409790
2916.003225	33.763636
2917.284992	31.637063
2918.565015	32.306294
2919.847907	32.093007
2921.129054	27.654545
2922.406919	33.941958
2923.687653	40.230769
2924.965106	49.384615
2926.242353	45.877622
2927.517858	43.051049
2928.796231	38.347552
2930.069790	36.801399
2931.346216	35.113986
2932.620901	28.474825
2933.893845	22.442657
2935.168121	24.290210
2936.440657	22.879021
2937.712988	22.048951
2938.982047	20.309790
2940.253971	17.376923
2941.524157	16.193007
2942.794139	21.403497
2944.063918	24.031469
2945.331961	31.530769
2946.598267	28.755245
2947.864372	32.335664
2949.131806	40.080420
2950.397506	46.400000
2951.663003	43.290210
2952.928298	40.853846
2954.190328	38.632168
2955.453688	33.478322
2956.716847	27.530769
2957.978274	22.744056
2959.241030	20.907692
2960.502054	14.230070
2961.761348	6.266434
2963.020442	9.946154
2964.279335	14.069930
2965.538028	22.918881
2966.796521	21.237762
2968.053285	25.905594
2969.309849	30.457343
2970.564686	32.286014
2971.820851	32.464336
2973.073762	26.534266
2974.328002	16.944755
2975.582043	9.102098
2976.834358	0.776224
2978.086474	5.063636
2979.336866	11.934965
2980.590113	23.494406
2981.838583	22.328671
2983.089908	26.300699
2984.337983	35.910490
2985.585862	40.262238
2986.833543	41.072727
2988.081027	36.035664
2989.326790	38.067832
2990.572357	36.709091
2991.819251	30.655245
2993.062901	35.620979
2994.307879	31.926573
2995.549613	29.165035
2996.794199	16.285315
2998.037066	13.032168
2999.276692	13.248252
3000.519168	12.686014
3001.758404	18.580420
3002.998968	22.351748
3004.237816	28.453147
3005.476468	30.185315
3006.713406	25.834266
3007.951670	28.986014
3009.188219	30.860839
3010.424575	25.523077
3011.660737	22.256643
3012.895185	27.167832
3014.129441	27.358042
3015.363503	30.752448
3016.595853	37.331469
3017.826491	37.444056
3019.059975	36.930070
3020.291747	40.387413
3021.521809	39.932168
3022.751679	44.523077
3023.979839	37.286713
3025.209325	27.506294
3026.437102	25.960140
3027.664688	22.951049
3028.893601	17.055944
3030.117771	10.979720
3031.344784	13.304196
3032.568573	8.482517
3033.793689	9.949650
3035.017098	19.706993
3036.240317	24.602797
3037.461831	22.401399
3038.686186	13.824476
3039.905806	14.672727
3041.126752	10.693706
3042.347509	10.634965
3043.566562	4.539860
3044.786940	0.600000
3046.004102	2.248951
3047.222590	-0.210490
3048.439375	5.981818
3049.655973	18.221678
3050.872382	17.532867
3052.085579	28.089510
3053.301613	29.059441
3054.514435	31.179720
3055.730094	31.118881
3056.941030	37.547552
3058.153291	26.644056
3059.365366	25.032867
3060.577253	16.943357
3061.787444	15.462238
3062.997448	14.971678
3064.207266	16.835664
3065.415388	16.918531
3066.623325	30.389510
3067.829566	25.634615
3069.037132	29.797203
3070.243003	30.752098
3071.448690	33.642657
3072.654191	29.726923
3073.857999	32.208392
3075.063131	29.515734
3076.266570	29.306294
3077.468318	23.649301
3078.669881	21.232867
3079.871261	24.472727
3081.072457	30.634965
3082.271963	28.144056
3083.471286	28.891608
3084.671932	25.676923
3085.870888	27.816783
3087.066650	27.047552
3088.265241	24.905594
3089.460638	24.171329
3090.657358	20.611888
3091.850886	21.136364
3093.047242	24.811189
3094.241912	30.940559
3095.433391	38.072028
3096.629201	35.174126
3097.820318	32.434965
3099.012757	25.541259
3100.202009	25.922378
3101.394086	25.800699
3102.584480	27.400699
3103.771688	31.667832
3104.960219	36.285315
3106.150071	39.580420
3107.336740	46.972028
3108.523228	47.207692
3109.709538	47.205594
3110.897169	35.773427
3112.081618	30.056643
3113.264388	22.802098
3114.449980	24.300699
3115.633893	22.414685
3116.816127	25.114685
3117.998182	27.488112
3119.180059	29.699301
3120.361758	30.892308
3121.541780	32.038462
3122.720125	28.546154
3123.901290	28.739860
3125.079280	21.304196
3126.257094	21.529371
3127.434730	20.610490
3128.610691	16.953846
3129.786475	16.153846
3130.963581	15.580420
3132.139012	17.102797
3133.312770	19.309091
3134.484855	14.108392
3135.658262	14.197902
3136.831492	19.144056
3138.003051	20.042657
3139.175930	22.024476
3140.345642	23.249650
3141.516675	22.674126
3142.686038	24.934266
3143.853730	29.373427
3145.024238	32.883916
3146.190088	39.504895
3147.360246	41.250350
3148.525748	37.912587
3149.691075	36.739161
3150.856229	38.095105
3152.021210	28.993706
3153.187510	28.392308
3154.349158	20.395804
3155.512125	15.424476
3156.674920	19.141259
3157.837542	17.035664
3158.998499	23.813287
3160.159283	21.258042
3161.319895	18.420280
3162.478843	19.781818
3163.637620	14.265035
3164.796225	18.106294
3165.954657	21.783217
3167.112919	22.504196
3168.269518	21.225175
3169.424456	22.606294
3170.580713	25.660839
3171.735309	22.836364
3172.889735	23.007692
3174.042501	16.160140
3175.195096	13.448951
3176.347522	12.188811
3177.499778	8.074825
3178.651863	14.826573
3179.800803	18.955944
3180.952549	15.531469
3182.102637	22.195804
3183.251069	24.933566
3184.399331	25.814685
3185.547425	28.035664
3186.695350	30.537762
3187.841619	33.894406
3188.987720	31.031469
3190.132167	28.171329
3191.276446	25.125175
3192.420557	28.187413
3193.565985	26.348951
3194.708275	30.147552
3195.850398	32.768531
3196.992353	29.770629
3198.134141	28.748951
3199.275762	30.997203
3200.414248	32.488811
3201.554051	31.588112
3202.695172	25.235664
3203.833158	20.618182
3204.969495	17.046154
3206.105666	16.231469
3207.243154	15.803497
3208.378994	12.584615
3209.516151	9.180420
3210.648695	11.451049
3211.785521	13.616084
3212.917735	16.300699
3214.051266	18.199301
3215.184633	21.689510
3216.314872	28.066434
3217.447909	35.666434
3218.577820	39.048252
3219.709047	42.927273
3220.837150	42.925874
3221.968049	40.918182
3223.097304	42.725175
3224.224916	41.308392
3225.349405	37.195804
3226.478170	30.074126
3227.603813	24.916084
3228.729294	15.256643
3229.853133	17.525874
3230.979766	15.230769
3232.101802	15.813986
3233.225154	14.784615
3234.348344	8.883916
3235.471372	11.123077
3236.592760	16.637762
3237.713986	17.016783
3238.833575	17.390909
3239.953002	16.989510
3241.070791	22.721678
3242.191372	18.061538
3243.308840	27.668531
3244.426147	32.669231
3245.543294	41.261538
3246.658805	36.772028
3247.775630	31.346853
3248.889346	28.908392
3250.005851	26.352448
3251.120722	18.995105
3252.232484	16.562238
3253.344086	13.139161
3254.457004	13.353147
3255.569762	11.085315
3256.679414	13.548252
3257.790381	21.404196
3258.901189	31.982517
3260.010365	28.057343
3261.117911	29.670629
3262.226770	30.790210
3263.335472	30.000000
3264.441071	29.811888
3265.547984	32.758741
3266.653268	24.211888
3267.759866	25.664336
3268.863364	21.844056
3269.968177	17.634266
3271.072832	22.039161
3272.174388	19.202797
3273.275788	14.308392
3274.378502	17.737762
3275.481060	17.718182
3276.580521	18.699301
3277.682766	18.641259
3278.781915	19.810490
3279.879440	17.893706
3280.976809	23.742657
3282.076960	22.922378
3283.174019	28.181818
3284.270922	29.370629
3285.367670	30.302098
3286.459860	36.779720
3287.556298	39.609091
3288.651114	39.158042
3289.745776	37.572028
3290.838816	35.283217
3291.931701	36.703497
3293.022967	34.155245
3294.115544	31.100000
3295.206502	24.324476
3296.295840	21.069930
3297.385025	15.618182
3298.475523	17.090909
3299.562936	15.256643
3300.650196	11.216783
3301.738769	8.356643
3302.827190	6.989510
3303.911063	7.061538
3304.999178	12.805594
3306.084211	14.981818
3307.167629	14.515385
3308.252359	13.212587
3309.335473	13.727273
3310.419900	20.354545
3311.501248	19.432168
3312.583908	17.149650
3313.664954	17.616783
3314.745849	19.469930
3315.825130	20.781119
3316.904261	23.928671
3317.984704	26.183916
3319.062072	25.987413
3320.140752	24.034266
3321.217820	22.246853
3322.294739	19.713986
3323.370046	24.842657
3324.445204	19.495804
3325.521673	24.240559
3326.595072	20.396503
3327.668322	20.738462
3328.742882	24.586713
3329.815834	23.048252
3330.887177	24.717483
3331.959831	23.745455
3333.029419	25.799301
3334.100317	23.790210
3335.169608	20.911189
3336.240210	23.665734
3337.309205	24.650350
3338.376594	22.868531
3339.442378	10.997203
3340.512388	6.135664
3341.579335	3.572028
3342.643220	-4.929371
3343.709873	3.658741
3344.774921	1.004196
3345.838366	7.790210
3346.901665	8.746853
3347.964817	10.582517
3349.027823	17.014685
3350.090683	22.199301
3351.151941	18.820280
3352.210142	16.766434
3353.272563	12.665734
3354.331929	14.616084
3355.391149	14.051049
3356.451679	17.094406
3357.507699	10.437762
3358.566483	8.586014
3359.620760	9.073427
3360.677801	10.259441
3361.733243	16.746154
3362.789995	20.115385
3363.845148	19.967832
3364.898704	21.842657
3365.950664	22.518182
3367.005385	24.795105
3368.057057	28.453147
3369.108586	24.674126
3370.161423	25.967832
3371.211213	21.233566
3372.262312	23.038462
3373.310365	24.716084
3374.361177	25.829371
3375.408945	31.296503
3376.456570	30.354545
3377.504052	30.811888
3378.549942	25.557343
3379.597140	27.352448
3380.641296	24.641259
3381.688210	25.317483
3382.733532	29.113287
3383.775813	25.531469
3384.817954	28.809091
3385.861402	28.439860
3386.904709	28.715385
3387.946427	34.171329
3388.988003	27.976224
3390.029438	23.365035
3391.069285	18.936364
3392.107543	21.211189
3393.147109	14.197902
3394.186535	17.153147
3395.224373	14.332168
3396.260624	15.915385
3397.296736	18.218182
3398.334155	19.426573
3399.368541	23.572727
3400.404234	28.606993
3401.439788	24.389510
3402.472311	22.081119
3403.507587	21.328671
3404.539832	21.360839
3405.571939	19.419580
3406.602462	17.822378
3407.634292	12.894406
3408.665984	12.071329
3409.694648	11.508392
3410.723175	14.434266
3411.753008	22.434266
3412.782704	30.848951
3413.809374	29.383217
3414.837351	27.274825
3415.862303	25.504196
3416.890005	28.123776
3417.914684	25.108392
3418.940669	21.239860
3419.965074	13.287413
3420.989343	8.380420
3422.012033	7.131469
3423.034587	7.523776
3424.058447	13.999301
3425.079287	12.787413
3426.099991	10.843856
3427.122002	8.706069
3428.140994	6.771429
3429.159850	5.437313
3430.180013	5.101099
3431.197159	6.160165
