-118.059454	-6.355769
-115.389854	-4.901099
-112.723189	-2.808541
-110.057276	-0.304496
-107.394295	2.384640
-104.729885	5.032468
-102.068405	7.412587
-99.405496	7.725874
-96.747693	10.765734
-94.088461	8.919580
-91.429977	7.451049
-88.774417	7.693007
-86.117429	2.761538
-83.465539	0.885315
-80.812218	-0.230769
-78.161818	-0.535664
-75.509988	0.097902
-72.863249	4.790909
-70.215081	5.856643
-67.567655	8.100000
-64.923143	10.241259
-62.277203	12.202797
-59.636344	14.870629
-56.994056	17.377622
-54.354677	15.492308
-51.713868	18.005594
-49.073800	16.952448
-46.438804	14.758741
-43.802380	13.551049
-41.168858	14.084615
-38.533908	11.903497
-35.904023	13.539161
-33.270546	16.355245
-30.642131	20.626573
-28.014450	23.883217
-25.385340	10.925175
-22.761287	-50.193007
-20.133645	-272.213287
-17.511056	-730.153147
-14.889199	-1165.953147
-12.268072	606.020979
-9.647675	3859.231469
-7.030167	6544.153147
-4.411230	8429.455245
-1.795178	9500.237063
0.820145	9757.511189
3.434741	9199.768531
6.046454	7837.048252
8.659596	5720.153147
11.267704	3002.305594
13.879394	200.298601
16.486053	-1619.427273
19.094140	-1040.713287
21.701503	-76.172727
24.303841	26.612587
26.909757	28.654545
29.510651	25.548951
32.112973	22.569930
34.710278	15.158741
37.311158	11.786014
39.907023	10.104196
42.504317	11.768531
45.100891	10.490909
47.692456	10.044755
50.285449	8.982517
52.875581	9.504196
55.467141	7.445455
58.055841	5.102098
60.645968	4.293007
63.231096	2.303497
65.817652	1.883217
68.403494	2.439161
70.986482	6.393706
73.570896	7.938462
76.148182	6.418182
78.729034	8.560839
81.307037	9.990210
83.884330	8.861538
86.463049	6.923776
89.036786	6.532168
91.611951	8.773427
94.184272	9.051049
96.755885	9.618881
99.324658	8.888112
101.894858	10.827273
104.462220	6.388112
107.031007	4.537762
109.596958	7.169930
112.160074	9.234965
114.726746	8.837063
117.284197	10.231469
119.847333	13.957343
122.405509	19.244755
124.967240	25.937762
127.524014	39.283916
130.082215	59.431469
132.635462	82.753147
135.188012	109.844056
137.744112	140.960140
140.295264	170.881119
142.845719	198.247552
145.395476	222.351748
147.942414	238.038462
150.488657	252.001399
153.036325	258.041259
155.583297	260.177622
158.125334	263.000699
160.666677	263.186014
163.207327	260.358042
165.749403	258.103497
168.288667	256.916084
170.825123	250.283916
173.360887	246.123776
175.898077	242.929371
178.434576	239.861538
180.968269	244.195804
183.499158	246.763636
186.029360	248.964336
188.560986	253.106993
191.089811	252.313986
193.615837	250.894406
196.141177	251.316783
198.667942	251.005594
201.191911	246.089510
203.715195	243.341259
206.237794	241.239161
208.757600	241.459441
211.276723	244.320979
213.795163	246.304895
216.315027	248.172727
218.827890	251.716783
221.344284	248.276224
223.859996	249.660839
226.370818	253.200000
228.883065	256.441958
231.392530	255.979720
233.901316	254.723776
236.409423	251.491608
238.918955	252.022378
241.423606	251.887413
243.927581	252.341259
246.432980	250.979720
248.933504	252.185315
251.437552	250.067133
253.934628	253.874126
256.435228	260.667832
258.933056	266.862937
261.430211	269.490909
263.926693	272.833566
266.418312	275.999301
268.913451	281.119580
271.405823	285.990210
273.897525	284.537762
276.386464	282.557343
278.876827	280.649650
281.364427	277.481818
283.849268	277.116084
286.337624	276.288112
288.819040	275.836364
291.303970	278.097203
293.784055	279.699301
296.267652	282.469930
298.746406	285.869930
301.226584	291.144755
303.704009	291.284615
306.180771	298.170629
308.656870	307.061538
311.130220	324.248951
313.602908	342.344755
316.074935	358.509091
318.546301	369.758042
321.014922	376.038462
323.482885	373.731469
325.952269	369.647552
328.416831	359.297203
330.884897	344.920280
333.348143	330.869930
335.810731	321.076923
338.272663	313.408392
340.733938	314.852448
343.192479	316.267133
345.652442	315.656643
348.109672	316.147552
350.566248	315.314685
353.022170	310.325874
355.475362	310.751748
357.929977	307.681119
360.379790	305.566434
362.833099	306.727273
365.281610	306.820280
367.729469	306.490909
370.178751	307.064336
372.623239	313.472028
375.069149	315.997203
377.514409	320.132168
379.956951	316.011189
382.398845	314.151748
384.840092	316.672727
387.278623	318.804895
389.718576	318.368531
392.155815	315.315385
394.590342	312.513986
397.028357	312.712587
399.461595	313.490210
401.896254	319.225874
404.326141	318.114685
406.759513	318.683916
409.188115	318.041958
411.616075	318.895804
414.045457	320.425175
416.470073	319.634965
418.896111	315.094406
421.321508	313.388112
423.746265	311.409790
426.166264	312.997902
428.587684	313.348252
431.006407	315.307692
433.426551	316.613287
435.844000	318.706294
438.262869	321.388112
440.679045	320.746853
443.090473	323.195804
445.505379	322.699301
447.917594	325.048951
450.329175	326.193706
452.740122	324.405594
455.148383	321.845455
457.556011	316.930769
459.963007	314.945455
462.369372	311.326573
464.773054	306.766434
467.176106	304.683916
469.578528	300.365734
471.980320	299.372028
474.379435	300.025175
476.779969	302.650350
479.179874	305.284615
481.575056	306.169930
483.973705	305.610490
486.367634	306.537063
488.760937	305.263636
491.153614	298.576923
493.545666	290.735664
495.939136	280.537063
498.327894	270.728671
500.713986	258.899301
503.101498	248.346853
505.488387	238.643357
507.872612	229.400000
510.258255	217.302098
512.641237	208.782517
515.021558	203.015385
517.403298	194.917483
519.782379	186.286713
522.162879	183.259441
524.540721	180.337063
526.915908	178.297203
529.290477	175.513986
531.666464	175.420979
534.039799	171.423077
536.414551	168.355245
538.784618	165.258042
541.154069	165.090210
543.524938	165.502098
545.891127	164.659441
548.258734	166.115385
550.623695	168.654545
552.988043	171.415385
555.351778	172.858042
557.716931	173.215385
560.077412	170.648252
562.439311	164.958042
564.798569	160.674126
567.155190	156.184615
569.515255	154.901399
571.868629	152.337762
574.225448	150.970629
576.579632	151.876923
578.933208	153.918881
581.286175	156.676923
583.636510	159.779720
585.988263	161.107692
588.333339	162.054545
590.683879	162.013287
593.027745	159.732168
595.377073	158.555245
597.721752	160.881818
600.063807	158.840559
602.407279	156.618881
604.748128	155.737762
607.088375	155.810490
609.426001	154.510490
611.767062	154.104895
614.103485	152.553147
616.441325	150.576923
618.776548	146.021678
621.109155	142.008392
623.443178	138.747552
625.774587	141.007692
628.105398	138.793706
630.435612	137.247552
632.765227	138.086713
635.090220	138.081119
637.420653	135.278322
639.746466	133.332168
642.069671	132.348252
644.394293	133.295105
646.716309	131.503497
649.037731	130.818881
651.356551	131.718182
653.676786	134.145455
655.996428	132.717483
658.313469	131.629371
660.629918	130.616084
662.943769	132.637762
665.259036	132.116084
667.571706	133.739860
669.885791	133.465035
672.195276	134.506294
674.506177	135.074126
676.814485	133.772727
679.122205	131.518182
681.431339	129.353846
683.735881	128.621678
686.039837	125.448951
688.343207	123.209790
690.647991	126.181818
692.948189	125.373427
695.249801	124.032867
697.550829	120.923776
699.847274	121.064336
702.145135	121.985315
704.442412	120.104196
706.739106	118.870629
709.031224	117.945455
711.326753	117.481818
713.617708	116.402098
715.910078	115.906294
718.199873	117.703497
720.489087	117.988112
722.777722	120.786713
725.063784	120.544056
727.351261	123.441259
729.636166	124.837063
731.920494	125.937762
734.202253	126.823776
736.485426	127.303497
738.768022	127.516084
741.046062	126.928671
743.325517	124.155245
745.604395	126.376224
747.882699	128.518182
750.156453	132.286014
752.431620	131.296503
754.706214	132.804895
756.978249	130.774126
759.251697	130.040559
761.522587	129.197203
763.790921	127.603497
766.060668	126.562238
768.327861	124.081119
770.594483	123.474126
772.860535	127.542657
775.124036	129.118881
777.388950	132.077622
779.653294	132.048951
781.913109	136.348252
784.174336	134.599301
786.434996	135.665734
788.693110	136.337762
790.948679	138.414685
793.207639	141.930070
795.460100	141.297203
797.717927	141.014685
799.971236	140.358042
802.222005	135.062937
804.474186	134.095804
806.723828	131.211189
808.974883	133.210490
811.221426	131.582517
813.469381	132.087413
815.714802	128.855944
817.961634	129.093007
820.207905	130.364336
822.449671	130.972727
824.694821	127.788811
826.933498	123.276923
829.175557	121.699301
831.413118	124.497203
833.652091	126.176224
835.888537	127.439860
838.126394	128.764336
840.361726	130.230070
842.594535	124.813986
844.828755	124.000699
847.060452	124.783217
849.291595	125.393706
851.522183	121.590909
853.752217	119.755944
855.981697	121.615385
858.206695	119.212587
860.435068	116.212587
862.658961	115.611189
864.884266	115.646853
867.105095	117.567133
869.329296	115.276923
871.549024	112.730070
873.770162	109.302797
875.990750	117.008392
878.208829	118.697203
880.428317	120.574825
882.643339	121.584615
884.857814	118.497902
887.071740	120.513287
889.285120	123.025175
891.497952	123.006294
893.710238	120.979720
895.920021	123.913986
898.129259	118.948252
900.337952	109.432168
902.544146	114.040559
904.751749	111.218881
906.956854	108.065734
909.161416	103.364336
911.363483	104.925175
913.566959	106.076224
915.767941	104.030769
917.968381	109.998601
920.170230	111.802797
922.365688	126.186014
924.564505	128.320979
926.758883	124.340559
928.956619	128.116084
931.149919	128.215385
933.344628	126.509091
935.536851	123.156643
937.728535	122.379720
939.919682	119.077622
942.108346	114.753846
944.296474	115.646853
946.482121	125.560839
948.671120	138.722378
950.855696	132.008392
953.039737	128.683217
955.227128	126.786713
957.406215	119.456643
959.588653	116.761538
961.770557	121.300000
963.949986	124.006993
966.126943	120.171329
968.305308	121.180420
970.485080	129.132867
972.658503	144.295105
974.835272	153.641259
977.007634	154.434266
979.181404	161.943357
981.350770	158.609790
983.523480	151.096503
985.693725	155.475524
987.863441	164.677622
990.032628	163.383916
992.197418	163.360839
994.365549	163.696503
996.529286	161.933566
998.694429	172.475524
1000.857113	184.293007
1003.019272	191.870629
1005.178974	194.052448
1007.338151	174.418881
1009.498735	169.257343
1011.656865	170.558042
1013.814470	171.920280
1015.971552	173.918881
1018.128110	186.517483
1020.280289	196.727273
1022.433875	206.232867
1024.586939	216.086713
1026.737554	220.360140
1028.889576	218.488112
1031.037224	205.962937
1033.188204	172.786014
1035.334813	173.032867
1037.480903	165.739860
1039.626475	148.338462
1041.773452	146.637762
1043.914140	153.253147
1046.058158	149.369930
1048.199735	145.962937
1050.340796	134.827273
1052.483261	148.494406
1054.619447	162.732168
1056.758958	171.102797
1058.894115	188.927273
1061.032596	208.708392
1063.166723	215.628671
1065.300337	202.786014
1067.435356	213.764336
1069.566025	214.129371
1071.698099	190.371329
1073.827744	180.428671
1075.956877	169.289510
1078.085498	177.788112
1080.213608	175.881119
1082.339292	182.479021
1084.464466	197.766434
1086.591044	182.223776
1088.713284	175.156643
1090.836929	168.731469
1092.956239	184.703497
1095.080779	179.753147
1097.199073	157.254545
1099.318772	154.418182
1101.436052	143.379720
1103.552826	142.869930
1105.669093	142.240559
1107.782944	155.783217
1109.898200	156.851049
1112.009132	160.485315
1114.123377	156.340559
1116.233301	159.118881
1118.344629	155.304895
1120.455452	152.310490
1122.561959	148.692308
1124.671776	148.303497
1126.777278	138.355245
1128.884183	148.210490
1130.984873	161.090909
1133.090775	163.358042
1135.192368	164.749650
1137.295364	171.069930
1139.397859	163.439860
1141.494147	157.611888
1143.595643	148.158741
1145.692835	145.882517
1147.789530	135.195105
1149.885726	129.310490
1151.981425	122.962937
1154.076625	122.976923
1156.169429	124.819580
1158.263636	117.278322
1160.351651	122.973427
1162.444864	129.146154
1164.531889	148.283217
1166.622213	147.793706
1168.708250	147.637063
1170.797584	141.643357
1172.880737	140.635664
1174.965292	139.481818
1177.051249	134.876224
1179.132924	134.074126
1181.216001	130.476923
1183.296692	127.356643
1185.376891	133.790210
1187.456599	134.053846
1189.535816	138.977622
1191.612651	137.541958
1193.687105	133.539161
1195.764850	131.693007
1197.838326	129.000000
1199.913202	122.123077
1201.983811	124.259441
1204.055821	120.161538
1206.125456	118.409790
1208.196491	120.069231
1210.267038	125.787413
1212.333324	119.646853
1214.401011	121.646853
1216.466326	122.200699
1218.533041	114.848252
1220.595500	117.088112
1222.661244	119.206993
1224.722734	114.753147
1226.785625	116.058741
1228.846148	106.097203
1230.906187	105.199301
1232.965744	104.979720
1235.022935	104.572727
1237.079645	103.051049
1239.133991	102.546154
1241.191619	96.820280
1243.246884	100.720280
1245.297908	102.765734
1247.350332	112.786713
1249.402276	109.432867
1251.451862	108.221678
1253.500969	104.274126
1255.549598	110.552448
1257.597748	112.637063
1259.645419	115.416084
1261.688860	116.403497
1263.735577	109.372727
1265.779940	105.835664
1267.823827	103.008392
1269.865362	95.160839
1271.904548	98.253846
1273.947007	93.137762
1275.985243	90.937762
1278.024878	93.806294
1280.064038	94.129371
1282.098979	96.879720
1284.135319	103.223077
1286.169315	100.342657
1288.204708	95.777622
1290.235889	98.346853
1292.268467	99.122378
1294.300574	112.073427
1296.330340	122.881818
1298.361504	122.266434
1300.388460	119.953846
1302.416814	114.594406
1304.440963	110.065734
1306.468378	112.479021
1308.491590	107.953147
1310.516200	103.756643
1312.538476	99.749650
1314.562149	104.758741
1316.583489	114.739161
1318.604361	123.893007
1320.624766	124.337063
1322.640978	114.223776
1324.658587	109.765734
1326.673868	107.272028
1328.692408	106.783916
1330.706759	108.656643
1332.718784	114.388112
1334.734066	118.683217
1336.745163	120.918881
1338.757657	124.965734
1340.765968	133.053147
1342.777534	132.567832
1344.783062	132.158042
1346.791845	124.350350
1348.796450	117.474126
1350.804309	113.048252
1352.811706	102.896503
1354.813072	101.008392
1356.815834	99.047552
1358.818137	95.033566
1360.819980	92.834965
1362.821363	91.425874
1364.820433	99.658741
1366.819044	103.534965
1368.817197	105.814685
1370.814891	107.976923
1372.808423	109.453147
1374.803351	110.948252
1376.797821	108.628671
1378.791835	111.088112
1380.783542	108.781818
1382.774794	108.353846
1384.763740	102.002797
1386.754081	95.686713
1388.743967	97.144056
1390.731549	95.989510
1392.718678	99.715385
1394.703505	107.458042
1396.689727	115.965035
1398.673649	120.344056
1400.657118	123.800000
1402.640134	120.579021
1404.620853	119.109790
1406.602966	116.743357
1408.582783	107.158741
1410.562148	98.298601
1412.537375	102.837063
1414.515840	99.771329
1416.492012	103.286713
1418.467735	107.743357
1420.443008	114.795105
1422.415990	118.345455
1424.388524	125.453846
1426.360610	129.877622
1428.332249	133.423077
1430.299759	133.444755
1432.272343	132.013287
1434.237122	133.063636
1436.206972	132.553846
1438.172699	122.193706
1440.139818	121.690909
1442.104654	115.677622
1444.065370	114.832168
1446.031154	113.274126
1447.990983	120.523077
1449.952206	116.376923
1451.914821	115.194406
1453.873321	117.665734
1455.831378	124.500000
1457.788994	129.209790
1459.746167	128.135664
1461.701065	131.032168
1463.657356	134.529371
1465.611372	132.162238
1467.564947	136.102797
1469.516250	137.278322
1471.468946	133.862937
1473.419369	126.062238
1475.369354	129.648252
1477.318900	127.227972
1479.266177	129.933566
1481.211186	125.444755
1483.157588	124.960839
1485.103552	118.799301
1487.049079	118.125874
1488.992340	117.358042
1490.935166	119.047552
1492.875728	115.672028
1494.817681	113.325175
1496.757372	119.530070
1498.696629	130.516783
1500.635450	129.584615
1502.572012	126.790909
1504.509965	124.788112
1506.445659	125.019580
1508.380920	116.099301
1510.313925	123.167832
1512.246497	120.070629
1514.178637	115.906993
1516.110345	109.998601
1518.039799	122.650350
1519.970644	125.123077
1521.901057	134.237063
1523.827398	123.218881
1525.755130	115.495804
1527.680611	113.923077
1529.605663	109.118182
1531.530286	113.223776
1533.454480	124.427972
1535.376426	129.030070
1537.299763	126.914685
1539.220853	130.973427
1541.139700	144.315385
1543.059935	145.999301
1544.977928	147.524476
1546.895494	144.416783
1548.810818	147.411888
1550.727532	153.339161
1552.640191	158.798601
1554.556054	177.617483
1556.469677	192.304895
1558.381062	207.120280
1560.293837	218.323077
1562.202562	242.863636
1564.112676	273.556643
1566.022367	314.270629
1567.931635	374.265734
1569.838669	462.978322
1571.743470	575.920979
1573.649660	699.863636
1575.553618	813.708392
1577.457155	899.944056
1579.360272	949.379720
1581.261159	957.728671
1583.163435	909.930769
1585.063483	823.901399
1586.964918	716.466434
1588.862320	593.846853
1590.759303	478.520979
1592.655868	378.680420
1594.553821	305.334965
1596.445939	260.314685
1598.341250	222.216783
1600.236144	188.181818
1602.128816	172.549650
1604.021071	156.175524
1605.911107	150.534965
1607.800727	150.930769
1609.689932	153.521678
1611.578722	146.313986
1613.465294	142.105594
1615.353254	140.024476
1617.237197	136.821678
1619.122527	138.925175
1621.007444	139.513986
1622.890147	133.095804
1624.774237	125.427972
1626.654315	129.025175
1628.535781	149.381818
1630.415036	146.124476
1632.295677	141.665035
1634.170514	138.076923
1636.050332	126.828671
1637.926146	132.104196
1639.801549	115.893706
1641.678338	112.768531
1643.549331	112.009091
1645.423505	100.666434
1647.293680	84.496503
1649.167037	92.493007
1651.038190	101.390210
1652.907141	105.415385
1654.777477	113.290210
1656.643821	126.252448
1658.511550	130.074825
1660.377080	144.783217
1662.243996	134.087413
1664.106923	134.689510
1665.971235	121.404196
1667.833351	113.161538
1669.695062	92.434965
1671.558159	85.413986
1673.419060	82.041958
1675.277769	90.888112
1677.136074	107.517483
1678.995764	123.195804
1680.849686	129.143357
1682.706782	140.532867
1684.563475	138.395105
1686.416191	128.283217
1688.272079	107.699301
1690.123993	110.141259
1691.975506	110.460140
1693.826618	92.619580
1695.677330	82.853846
1697.527641	93.002098
1699.375767	82.857343
1701.225278	67.358741
1703.069040	71.583916
1704.917751	90.350350
1706.760716	84.041259
1708.606848	88.681119
1710.449017	80.760140
1712.294352	100.086713
1714.133946	112.562238
1715.974924	106.497902
1717.817285	109.937762
1719.655690	112.878322
1721.495478	101.422378
1723.333091	107.913287
1725.170308	120.404196
1727.005352	138.019580
1728.841779	141.144755
1730.676034	135.302797
1732.509894	128.204196
1734.343360	117.641958
1736.172881	121.496503
1738.005560	108.192308
1739.834295	108.144755
1741.666187	112.693706
1743.494137	114.313986
1745.321696	113.311189
1747.148862	118.175524
1748.975637	120.554545
1750.802020	110.677622
1752.624467	95.631469
1754.450069	105.174126
1756.271736	95.951748
1758.094785	103.111888
1759.915672	86.310490
1761.736171	92.811888
1763.558051	96.084615
1765.374231	94.199301
1767.193563	99.330070
1769.008968	99.524476
1770.827523	89.982517
1772.642153	87.870629
1774.456396	94.555944
1776.270253	103.366434
1778.083723	111.182517
1779.895040	109.876923
1781.707737	101.899301
1783.520049	111.814685
1785.328443	109.586014
1787.138217	107.510490
1788.944077	105.436364
1790.753082	99.094406
1792.558174	97.239161
1794.364647	92.326573
1796.170736	87.910490
1797.972914	85.644755
1799.778237	80.227273
1801.579651	78.999301
1803.382445	70.581119
1805.181333	82.955245
1806.981602	73.403497
1808.781489	80.300699
1810.579234	90.436364
1812.376599	99.699301
1814.173584	106.649650
1815.970188	117.865734
1817.764653	128.732867
1819.560497	136.128671
1821.350686	139.365035
1823.145772	146.186713
1824.935206	145.123077
1826.727776	152.526573
1828.518211	154.396503
1830.306512	154.472727
1832.097948	136.488112
1833.883738	127.165035
1835.670908	110.571329
1837.455946	99.157343
1839.244118	91.296503
1841.028404	88.850350
1842.810560	91.561538
1844.594096	95.279720
1846.375503	107.457343
1848.158289	110.236364
1849.937194	124.034965
1851.717479	128.262937
1853.495637	117.600699
1855.275174	130.284615
1857.052586	126.937063
1858.827874	126.132867
1860.604540	133.872727
1862.379084	143.219580
1864.155006	145.239161
1865.925307	137.895105
1867.698736	128.125874
1869.470045	116.716783
1871.240983	109.554545
1873.013299	109.412587
1874.780001	99.108392
1876.549829	98.612587
1878.315793	106.552448
1880.084880	110.142657
1881.850106	123.253147
1883.614964	131.884615
1885.381199	130.254545
1887.143575	128.611189
1888.905584	129.386014
1890.667225	130.774126
1892.428500	128.660839
1894.189407	133.360839
1895.949948	128.514685
1897.708379	127.934266
1899.466444	141.188112
1901.222402	135.783916
1902.979736	141.681119
1904.736705	142.101399
1906.491567	127.562238
1908.244325	125.352448
1909.996718	118.547552
1911.750488	114.985315
1913.502154	113.489510
1915.251718	110.606993
1917.002657	106.612587
1918.753234	110.415385
1920.499971	115.636364
1922.248085	112.800000
1923.994099	113.717483
1925.741488	118.620280
1927.486780	105.355944
1929.229974	108.022378
1930.974543	93.150350
1932.717017	91.746154
1934.459130	92.106993
1936.200883	95.310140
1937.942276	103.751748
1939.681576	115.080769
1941.420517	116.387413
1943.159099	114.937413
1944.895590	109.066434
1946.631723	111.320629
1948.369230	93.339860
1950.102915	87.361888
1951.837975	79.867133
1953.570946	82.511538
1955.303561	85.990909
1957.035820	87.710839
1958.767722	93.377622
1960.497538	100.438462
1962.225269	100.948252
1963.954375	106.791608
1965.683126	103.859441
1967.409793	101.828671
1969.136106	95.223776
1970.863792	103.886014
1972.585942	109.021678
1974.311193	103.980420
1976.032637	98.790210
1977.757182	98.633566
1979.479646	99.897902
1981.198308	104.337762
1982.920068	103.410490
1984.638026	108.537063
1986.357357	109.964336
1988.072889	110.184615
1989.793241	115.858042
1991.509795	117.730769
1993.222552	120.424476
1994.938405	120.658741
1996.652186	120.597203
1998.365617	122.455245
2000.076977	116.687413
2001.789709	117.508392
2003.498651	111.746853
2005.210685	114.563636
2006.917211	108.427972
2008.626828	105.575524
2010.334379	115.460140
2012.041581	111.932168
2013.746718	117.792308
2015.451509	115.479720
2017.157671	110.958042
2018.860051	107.798601
2020.563802	108.472028
2022.265491	114.466434
2023.966835	115.268531
2025.667833	116.808392
2027.366770	112.039860
2029.067079	112.479021
2030.763613	117.423077
2032.461518	112.093706
2034.157364	117.023077
2035.856296	113.614685
2037.549742	116.500000
2039.244559	117.173427
2040.939034	117.013287
2042.629740	121.125874
2044.323530	121.796503
2046.013553	113.413986
2047.704947	105.447552
2049.394288	98.888112
2051.084999	95.797203
2052.771947	95.926573
2054.458556	105.595105
2056.146534	110.861538
2057.830753	120.592308
2059.516343	120.657343
2061.201593	117.732867
2062.884794	112.739860
2064.569366	109.117483
2066.248475	100.173427
2067.932369	100.876224
2069.610802	98.969231
2071.292313	99.013986
2072.970072	102.493007
2074.647495	113.500000
2076.326287	114.250350
2078.003037	115.141259
2079.677745	108.615385
2081.353822	103.105594
2083.027859	90.369231
2084.701560	90.034965
2086.374926	88.998601
2088.046253	92.054545
2089.717246	86.502098
2091.387905	88.477622
2093.058230	87.797902
2094.728221	92.562238
2096.396176	92.946853
2098.063798	99.797203
2099.729385	98.591608
2101.396341	97.187413
2103.061264	98.553147
2104.725855	106.304196
2106.388414	109.274825
2108.052341	106.538462
2109.714237	100.631469
2111.375803	96.635664
2113.037037	91.792308
2114.696243	97.388112
2116.355118	96.906294
2118.013664	98.456643
2119.671880	94.539161
2121.326372	97.598601
2122.983929	106.220979
2124.641157	111.281119
2126.294663	114.287413
2127.949537	121.978322
2129.600692	122.439161
2131.254910	118.744056
2132.905411	115.299301
2134.557278	114.204895
2136.203737	108.715385
2137.854951	110.553846
2139.502451	108.167832
2141.151318	110.554545
2142.798166	115.425175
2144.444689	124.281818
2146.090886	131.486014
2147.733375	137.773427
2149.378922	133.753846
2151.020762	128.306294
2152.665659	117.411189
2154.306850	107.218182
2155.947719	112.306993
2157.588263	113.709091
2159.226795	110.093706
2160.866693	113.357343
2162.502891	116.738462
2164.140455	120.378322
2165.777697	112.515385
2167.412929	104.190909
2169.047840	104.720280
2170.682428	99.743357
2172.316696	91.261538
2173.947270	96.311888
2175.580896	109.071329
2177.210830	113.169231
2178.842129	111.733566
2180.471423	110.337762
2182.100398	107.252448
2183.729053	109.690909
2185.357389	103.241958
2186.983723	103.269231
2188.609738	98.193706
2190.233751	90.686713
2191.859130	90.572028
2193.482508	103.358042
2195.107251	101.432867
2196.728313	104.148252
2198.349058	99.406294
2199.971168	94.849650
2201.591280	93.483217
2203.209395	103.537762
2204.827195	101.986014
2206.444680	99.513287
2208.061849	100.092308
2209.678703	97.629371
2211.295241	101.033566
2212.909787	110.027972
2214.522340	107.889510
2216.136257	113.862238
2217.748183	111.173427
2219.361472	102.848252
2220.972771	92.627972
2222.582080	92.454545
2224.192753	85.657343
2225.801437	96.229371
2227.409808	101.897902
2229.016193	95.273427
2230.623941	101.352448
2232.229702	105.142657
2233.835152	109.928671
2235.438617	116.972028
2237.043445	112.892308
2238.646289	107.970629
2240.247150	96.896503
2241.849374	102.150350
2243.449616	102.865734
2245.051220	115.586014
2246.649171	113.462238
2248.248485	107.254545
2249.845819	104.025874
2251.442845	103.262238
2253.041233	106.000699
2254.635972	103.042657
2256.228734	102.346853
2257.822859	103.269930
2259.418345	100.430769
2261.010186	104.685315
2262.601721	103.179720
2264.194618	118.859441
2265.782205	118.909790
2267.374488	114.120280
2268.961465	112.979021
2270.551469	116.074126
2272.136169	120.830070
2273.725563	122.643357
2275.309655	132.372727
2276.895107	128.392308
2278.478591	117.876224
2280.065100	104.420979
2281.647976	116.056643
2283.230549	129.658741
2284.812818	126.556643
2286.391457	124.559441
2287.973121	112.465734
2289.551156	99.160839
2291.132214	100.767832
2292.709645	93.625874
2294.285113	101.104895
2295.863603	82.563636
2297.438469	74.963636
2299.013034	75.477622
2300.587299	98.658741
2302.161263	120.449650
2303.734926	140.572028
2305.308290	137.473427
2306.878035	133.794406
2308.447481	139.883916
2310.019945	141.539860
2311.587135	131.906294
2313.157343	132.839161
2314.723936	119.168531
2316.291889	113.637063
2317.857886	107.323776
2319.423586	115.235664
2320.988988	122.934965
2322.552437	125.660839
2324.117245	124.190210
2325.678445	137.691608
2327.242659	157.326573
2328.801611	155.344755
2330.363578	151.100699
2331.923593	145.664336
2333.483314	132.031469
2335.041085	109.382517
2336.598561	107.466434
2338.155743	116.734266
2339.710977	111.962937
2341.265918	112.290909
2342.820564	119.850350
2344.374917	133.955245
2345.928977	146.467133
2347.482742	136.913986
2349.034564	133.884615
2350.584442	116.117483
2352.137328	90.954545
2353.684972	72.323776
2355.235623	75.836364
2356.782683	68.663636
2358.331101	70.700000
2359.879228	69.192308
2361.423766	73.749650
2362.969662	83.921678
2364.513620	89.544755
2366.058935	95.292308
2367.600665	108.324476
2369.143752	94.825175
2370.684903	88.506993
2372.225765	83.155245
2373.766338	76.569231
2375.306622	64.093706
2376.846617	70.054545
2378.383034	67.710490
2379.922452	70.320280
2381.458293	62.808392
2382.995490	59.683217
2384.529112	70.939161
2386.065734	74.047552
2387.600426	74.069231
2389.133188	84.885315
2390.665663	87.575524
2392.196210	88.513287
2393.729755	100.552448
2395.258089	100.865035
2396.787780	107.655944
2398.317184	100.759441
2399.846304	93.067832
2401.375139	91.801399
2402.898768	94.739860
2404.427033	101.132168
2405.950096	100.449650
2407.477792	98.384615
2408.998649	102.268531
2410.524139	93.499301
2412.046068	106.020280
2413.569353	87.860140
2415.090716	88.841259
2416.610160	73.421678
2418.130959	78.822378
2419.649840	79.422378
2421.168438	95.279021
2422.685119	113.936364
2424.203154	104.734266
2425.720908	108.884615
2427.235111	122.519580
2428.749033	127.532867
2430.262675	147.016084
2431.777672	142.159441
2433.289120	139.418881
2434.801923	119.751049
2436.312812	125.660839
2437.823423	144.321678
2439.332122	156.276923
2440.843807	140.647552
2442.351949	128.128671
2443.859813	137.134965
2445.367399	148.650350
2446.871444	155.632168
2448.378474	157.837762
2449.883597	150.160839
2451.388441	138.985315
2452.891379	132.529371
2454.394041	131.186713
2455.896426	137.683217
2457.396906	118.469231
2458.898739	105.299301
2460.398667	98.035664
2461.898320	100.039161
2463.397698	114.590909
2464.895173	119.554545
2466.390746	124.765035
2467.889299	123.420280
2469.384324	128.429371
2470.880701	128.304196
2472.373552	120.662238
2473.867756	135.169930
2475.361686	135.505594
2476.852092	133.491608
2478.345476	132.101399
2479.836962	137.069930
2481.326551	161.069930
2482.815868	163.114685
2484.303289	155.676923
2485.793686	141.960140
2487.280565	127.510490
2488.768795	120.355245
2490.253508	116.136364
2491.737952	118.530769
2493.223746	128.880420
2494.707649	117.332168
2496.192902	102.916084
2497.673022	115.668531
2499.156115	130.157343
2500.637317	116.365035
2502.118250	109.717483
2503.597294	98.102797
2505.076069	83.887413
2506.554576	81.253846
2508.032815	73.578322
2509.510785	83.911888
2510.985250	102.235664
2512.462685	89.880420
2513.936616	100.942657
2515.411897	134.202098
2516.886911	128.554545
2518.358425	138.950350
2519.831288	151.101399
2521.302269	143.952448
2522.774600	128.537762
2524.241817	119.887413
2525.712001	115.128671
2527.180304	115.223776
2528.648342	114.696503
2530.116115	109.631469
2531.583623	110.750350
2533.050866	102.910490
2534.514617	91.869231
2535.979718	107.987413
2537.442942	105.556643
2538.907516	115.081818
2540.368600	114.389510
2541.831034	112.723776
2543.293205	114.039860
2544.751890	112.980420
2546.215147	125.126573
2547.673307	117.447552
2549.132816	114.086014
2550.587231	114.901399
2552.046217	109.662238
2553.503331	115.509790
2554.958574	121.983916
2556.413555	125.703497
2557.866668	113.933566
2559.321129	103.786713
2560.773720	105.958042
2562.226052	107.437063
2563.676517	112.613986
2565.129937	110.854545
2566.578275	115.546154
2568.029569	118.989510
2569.478996	116.203497
2570.924951	119.683916
2572.373861	121.226573
2573.819301	115.371329
2575.266088	109.113986
2576.711013	100.825874
2578.155679	99.835664
2579.601693	97.007692
2581.044241	104.504895
2582.488136	109.307692
2583.928566	112.959441
2585.370343	123.034965
2586.810261	131.462238
2588.251526	138.906993
2589.689329	143.741958
2591.130082	147.739860
2592.565773	132.974126
2594.004413	120.904895
2595.441195	109.994406
2596.876122	105.868531
2598.313996	112.673427
2599.746813	110.076224
2601.180977	118.380420
2602.613287	118.367133
2604.046943	114.930070
2605.478746	119.132867
2606.910295	134.300699
2608.341592	139.957343
2609.771036	142.860839
2611.200228	144.583217
2612.627570	141.951049
2614.056257	144.185315
2615.484693	145.290909
2616.909681	150.644755
2618.336016	144.791608
2619.760502	129.828671
2621.186334	125.068531
2622.608722	127.983916
2624.032456	132.581119
2625.454343	125.140559
2626.875981	132.541958
2628.295773	109.062238
2629.716911	100.412587
2631.137799	97.518182
2632.555249	91.746154
2633.975638	103.909091
2635.392590	104.654545
2636.809293	120.127273
2638.225748	134.420979
2639.641955	141.948951
2641.057914	142.731469
2642.472032	151.941259
2643.885902	159.714685
2645.297934	143.510490
2646.711309	144.925175
2648.121255	149.132867
2649.534137	144.353846
2650.943590	160.693007
2652.352797	172.113986
2653.760168	180.431469
2655.170473	192.923776
2656.578943	195.828671
2657.985577	193.597902
2659.391966	201.283916
2660.796521	193.544056
2662.202420	181.872727
2663.606486	176.288811
2665.010307	165.696503
2666.413884	164.513287
2667.815630	169.691608
2669.218719	168.550350
2670.618390	174.985315
2672.019405	186.154545
2673.417004	198.079720
2674.817533	200.606993
2676.214646	206.930070
2677.613103	215.377622
2679.009733	215.619580
2680.406120	226.858042
2681.802265	223.976224
2683.196585	233.728671
2684.592246	227.139161
2685.984499	236.562937
2687.378094	239.344056
2688.769865	226.677622
2690.162979	228.153147
2691.554269	227.016783
2692.943736	231.072028
2694.332963	231.818182
2695.721951	232.548252
2697.112280	248.680420
2698.497626	252.728671
2699.885895	253.197203
2701.272344	257.495804
2702.658554	278.090210
2704.044525	274.210490
2705.427098	270.952448
2706.811013	290.739161
2708.194690	291.828671
2709.578128	297.558042
2710.958172	303.683916
2712.339556	311.422378
2713.719126	321.768531
2715.100036	332.078322
2716.479132	328.355245
2717.856414	334.618182
2719.235037	348.989510
2720.611847	340.016783
2721.988420	339.326573
2723.364758	332.640559
2724.739285	313.790210
2726.115152	313.181818
2727.487632	299.642657
2728.863028	280.398601
2730.233464	268.067832
2731.605241	263.282517
2732.976783	245.170629
2734.346517	238.460839
2735.717592	233.307692
2737.086858	212.549650
2738.455891	213.716783
2739.823118	196.226573
2741.190112	181.314685
2742.556872	165.456643
2743.923401	153.587413
2745.288124	149.907692
2746.652615	144.635664
2748.016875	159.504196
2749.380902	167.292308
2750.744698	170.541259
2752.105120	163.002797
2753.468452	155.406294
2754.826842	155.136364
2756.188142	148.779720
2757.546072	138.672727
2758.906910	133.193007
2760.265949	122.195804
2761.621619	107.900000
2762.980197	99.055245
2764.335408	103.117483
2765.690390	103.434266
2767.043576	96.411189
2768.399668	102.602098
2769.752395	105.720280
2771.104895	117.788112
2772.457166	133.829371
2773.810776	137.062238
2775.161024	135.896503
2776.509478	121.348951
2777.860838	110.551748
2779.208838	113.800699
2780.558176	110.411888
2781.905722	106.890909
2783.253042	106.483217
2784.600135	108.820979
2785.945437	105.557343
2787.290512	114.539860
2788.635362	115.730769
2789.979986	102.704895
2791.321258	95.148951
2792.663868	93.724476
2794.006252	87.576224
2795.348411	96.214685
2796.687221	99.739161
2798.028931	96.780420
2799.367293	104.546154
2800.706991	97.569231
2802.044905	91.446853
2803.381034	91.916084
2804.716939	81.512587
2806.054182	67.742657
2807.389641	66.342657
2808.724877	58.843357
2810.058330	58.125874
2811.393120	68.262937
2812.724570	82.633566
2814.058915	83.707692
2815.388362	102.108392
2816.719146	99.784615
2818.049708	95.762937
2819.378491	106.570629
2820.708610	106.501399
2822.036951	112.151049
2823.365071	102.292308
2824.691413	101.811888
2826.019092	102.997902
2827.343437	96.930769
2828.669119	102.910490
2829.993025	96.163636
2831.316712	111.066434
2832.641734	109.425175
2833.963426	107.402098
2835.284900	104.942657
2836.606155	93.377622
2837.927191	88.362238
2839.246454	76.556643
2840.567053	83.066434
2841.885881	73.060140
2843.204490	70.940559
2844.521328	74.803497
2845.837949	81.837063
2847.154353	91.084615
2848.468987	89.174825
2849.784957	84.590909
2851.097606	76.012587
2852.411590	76.167832
2853.725358	80.897203
2855.038909	80.988112
2856.350694	85.627972
2857.660712	87.133566
2858.972065	95.997203
2860.280103	104.188811
2861.589475	116.713986
2862.898633	111.754545
2864.207575	120.018182
2865.514753	108.962238
2866.820169	105.892308
2868.126919	113.820979
2869.431906	107.531469
2870.736680	102.945455
2872.039692	106.917483
2873.345585	100.965035
2874.646624	97.576224
2875.948997	90.808392
2877.249610	94.931469
2878.551557	94.655944
2879.853290	88.120280
2881.151720	79.562238
2882.451483	89.737762
2883.749489	96.470629
2885.047283	91.453846
2886.343321	100.374825
2887.640692	102.345455
2888.936307	90.139860
2890.231711	101.150350
2891.526904	89.235664
2892.818800	93.705594
2894.113572	85.769930
2895.405047	73.302098
2896.697855	74.304895
2897.990453	62.188112
2899.279757	54.250350
2900.570393	45.011888
2901.859278	51.244755
2903.149495	59.030070
2904.436421	74.904895
2905.724679	95.438462
2907.011188	83.829371
2908.297489	94.782517
2909.583581	99.820979
2910.867925	92.655944
2912.155140	82.185315
2913.437529	73.700699
2914.721250	74.074825
2916.003225	73.801399
2917.284992	85.484615
2918.565015	97.468531
2919.847907	115.853846
2921.129054	116.405594
2922.406919	108.521678
2923.687653	103.170629
2924.965106	94.119580
2926.242353	76.231469
2927.517858	60.819580
2928.796231	60.593007
2930.069790	61.382517
2931.346216	60.675524
2932.620901	68.245455
2933.893845	84.412587
2935.168121	94.797902
2936.440657	101.548252
2937.712988	105.992308
2938.982047	111.628671
2940.253971	100.742657
2941.524157	99.487413
2942.794139	86.771329
2944.063918	92.048951
2945.331961	85.139161
2946.598267	80.847552
2947.864372	89.284615
2949.131806	84.085315
2950.397506	76.574825
2951.663003	79.109091
2952.928298	78.571329
2954.190328	75.486713
2955.453688	73.532867
2956.716847	86.408392
2957.978274	92.009790
2959.241030	111.792308
2960.502054	112.046853
2961.761348	120.707692
2963.020442	121.017483
2964.279335	111.165035
2965.538028	98.319580
2966.796521	91.908392
2968.053285	76.834965
2969.309849	67.758741
2970.564686	72.349650
2971.820851	77.004895
2973.073762	77.236364
2974.328002	84.039161
2975.582043	78.505594
2976.834358	75.874126
2978.086474	76.552448
2979.336866	74.586014
2980.590113	65.839860
2981.838583	67.732168
2983.089908	64.036364
2984.337983	82.600000
2985.585862	96.885315
2986.833543	106.152448
2988.081027	109.203497
2989.326790	119.918182
2990.572357	118.144056
2991.819251	121.584615
2993.062901	120.367133
2994.307879	114.248252
2995.549613	100.307692
2996.794199	92.245455
2998.037066	82.887413
2999.276692	90.095105
3000.519168	85.886014
3001.758404	80.490210
3002.998968	90.763636
3004.237816	90.856643
3005.476468	89.918881
3006.713406	99.046154
3007.951670	105.262238
3009.188219	112.816783
3010.424575	99.616783
3011.660737	95.145455
3012.895185	78.421678
3014.129441	82.080420
3015.363503	74.420280
3016.595853	65.458741
3017.826491	69.938462
3019.059975	56.158042
3020.291747	54.900699
3021.521809	61.034965
3022.751679	71.302098
3023.979839	76.536364
3025.209325	67.253147
3026.437102	75.125175
3027.664688	73.806993
3028.893601	81.662238
3030.117771	84.328671
3031.344784	83.539161
3032.568573	84.274825
3033.793689	92.088811
3035.017098	93.250350
3036.240317	101.190909
3037.461831	95.320280
3038.686186	89.524476
3039.905806	81.368531
3041.126752	88.576224
3042.347509	82.727972
3043.566562	81.261538
3044.786940	83.020280
3046.004102	82.297902
3047.222590	83.330070
3048.439375	91.276224
3049.655973	86.078322
3050.872382	88.735664
3052.085579	79.787413
3053.301613	71.188811
3054.514435	62.520979
3055.730094	62.793007
3056.941030	61.237063
3058.153291	63.593007
3059.365366	66.253147
3060.577253	80.271329
3061.787444	86.146154
3062.997448	91.625874
3064.207266	99.093007
3065.415388	101.628671
3066.623325	101.686713
3067.829566	86.248252
3069.037132	79.781119
3070.243003	74.254545
3071.448690	70.744755
3072.654191	60.714685
3073.857999	58.600000
3075.063131	70.242657
3076.266570	70.083916
3077.468318	73.867832
3078.669881	80.097203
3079.871261	77.698601
3081.072457	76.403497
3082.271963	80.193706
3083.471286	93.948951
3084.671932	92.099301
3085.870888	88.790210
3087.066650	85.144056
3088.265241	90.063636
3089.460638	89.795804
3090.657358	79.695804
3091.850886	73.165734
3093.047242	69.360140
3094.241912	67.470629
3095.433391	70.980420
3096.629201	77.223077
3097.820318	81.032168
3099.012757	74.090909
3100.202009	73.099301
3101.394086	83.406294
3102.584480	80.965035
3103.771688	68.783217
3104.960219	60.644755
3106.150071	57.513287
3107.336740	52.380420
3108.523228	58.030070
3109.709538	67.086713
3110.897169	68.525874
3112.081618	80.199301
3113.264388	83.429371
3114.449980	92.155944
3115.633893	96.881818
3116.816127	89.287413
3117.998182	92.575524
3119.180059	89.376923
3120.361758	92.743357
3121.541780	79.477622
3122.720125	78.648252
3123.901290	89.030070
3125.079280	84.652448
3126.257094	82.293007
3127.434730	72.734266
3128.610691	67.525874
3129.786475	63.923776
3130.963581	60.286014
3132.139012	66.645455
3133.312770	62.738462
3134.484855	73.370629
3135.658262	71.246154
3136.831492	81.162937
3138.003051	92.176224
3139.175930	95.255245
3140.345642	90.816084
3141.516675	90.920979
3142.686038	88.700000
3143.853730	85.898601
3145.024238	74.567832
3146.190088	78.158741
3147.360246	67.132867
3148.525748	69.237063
3149.691075	71.413986
3150.856229	76.909790
3152.021210	73.939860
3153.187510	81.925874
3154.349158	81.467832
3155.512125	88.139161
3156.674920	89.768531
3157.837542	90.695105
3158.998499	87.308392
3160.159283	87.630769
3161.319895	70.562937
3162.478843	68.939860
3163.637620	58.556643
3164.796225	63.588811
3165.954657	60.787413
3167.112919	69.433566
3168.269518	73.213986
3169.424456	77.523776
3170.580713	76.406294
3171.735309	76.755944
3172.889735	69.253846
3174.042501	68.525874
3175.195096	68.197902
3176.347522	64.218182
3177.499778	66.171329
3178.651863	76.123776
3179.800803	75.667133
3180.952549	89.204196
3182.102637	92.803497
3183.251069	90.847552
3184.399331	84.432168
3185.547425	80.945455
3186.695350	72.059441
3187.841619	66.725874
3188.987720	56.246154
3190.132167	52.172028
3191.276446	53.623776
3192.420557	51.372727
3193.565985	59.054545
3194.708275	76.742657
3195.850398	80.348951
3196.992353	74.700699
3198.134141	67.204196
3199.275762	60.406993
3200.414248	51.520280
3201.554051	49.311888
3202.695172	50.498601
3203.833158	66.706993
3204.969495	68.773427
3206.105666	80.201399
3207.243154	91.346853
3208.378994	99.279021
3209.516151	89.970629
3210.648695	72.191608
3211.785521	63.653846
3212.917735	51.024476
3214.051266	37.352448
3215.184633	37.393007
3216.314872	35.002797
3217.447909	41.132867
3218.577820	35.109091
3219.709047	50.358741
3220.837150	59.997203
3221.968049	65.295804
3223.097304	64.851748
3224.224916	64.654545
3225.349405	67.081119
3226.478170	71.490210
3227.603813	75.293007
3228.729294	79.283916
3229.853133	83.990210
3230.979766	84.689510
3232.101802	81.624476
3233.225154	84.106294
3234.348344	78.876923
3235.471372	75.561538
3236.592760	64.380420
3237.713986	69.166434
3238.833575	81.997203
3239.953002	90.616783
3241.070791	99.522378
3242.191372	110.097203
3243.308840	105.544056
3244.426147	103.201399
3245.543294	100.026573
3246.658805	84.882517
3247.775630	72.225874
3248.889346	69.986713
3250.005851	66.244056
3251.120722	75.027972
3252.232484	74.993706
3253.344086	71.856643
3254.457004	74.712587
3255.569762	71.474126
3256.679414	67.879021
3257.790381	68.421678
3258.901189	63.117483
3260.010365	60.727972
3261.117911	58.130070
3262.226770	68.351748
3263.335472	59.704196
3264.441071	47.684615
3265.547984	46.700000
3266.653268	47.692308
3267.759866	54.820979
3268.863364	56.759441
3269.968177	65.736364
3271.072832	65.988112
3272.174388	75.697203
3273.275788	84.174825
3274.378502	85.803497
3275.481060	88.286713
3276.580521	81.434965
3277.682766	73.936364
3278.781915	74.474825
3279.879440	75.055944
3280.976809	85.334266
3282.076960	74.989510
3283.174019	66.387413
3284.270922	62.672028
3285.367670	54.776923
3286.459860	47.867133
3287.556298	37.233566
3288.651114	35.095105
3289.745776	39.195804
3290.838816	40.965035
3291.931701	47.913986
3293.022967	52.246154
3294.115544	58.021678
3295.206502	58.664336
3296.295840	59.084615
3297.385025	63.048951
3298.475523	65.023776
3299.562936	66.755245
3300.650196	63.503497
3301.738769	63.472028
3302.827190	62.291608
3303.911063	68.660839
3304.999178	71.562937
3306.084211	58.536364
3307.167629	54.337063
3308.252359	50.979021
3309.335473	43.983217
3310.419900	44.280420
3311.501248	53.515385
3312.583908	57.514685
3313.664954	58.286713
3314.745849	57.690210
3315.825130	53.775524
3316.904261	67.023077
3317.984704	63.403497
3319.062072	59.619580
3320.140752	63.860839
3321.217820	62.805594
3322.294739	66.738462
3323.370046	68.005594
3324.445204	74.155245
3325.521673	73.570629
3326.595072	70.000699
3327.668322	66.295105
3328.742882	58.215385
3329.815834	56.995105
3330.887177	47.947552
3331.959831	56.213986
3333.029419	59.365734
3334.100317	66.523077
3335.169608	73.541958
3336.240210	67.704196
3337.309205	71.520979
3338.376594	73.305594
3339.442378	70.788112
3340.512388	58.079720
3341.579335	55.805594
3342.643220	40.106294
3343.709873	34.910490
3344.774921	37.951049
3345.838366	31.679720
3346.901665	37.434965
3347.964817	35.965035
3349.027823	31.030070
3350.090683	43.701399
3351.151941	51.249650
3352.210142	48.469930
3353.272563	46.072028
3354.331929	48.915385
3355.391149	44.758741
3356.451679	40.586014
3357.507699	44.620979
3358.566483	33.168531
3359.620760	35.442657
3360.677801	26.639860
3361.733243	30.526573
3362.789995	40.710490
3363.845148	43.759441
3364.898704	46.439860
3365.950664	56.955245
3367.005385	61.283916
3368.057057	65.003497
3369.108586	61.016783
3370.161423	67.125175
3371.211213	58.048951
3372.262312	58.450350
3373.310365	57.287413
3374.361177	63.833566
3375.408945	63.431469
3376.456570	66.133566
3377.504052	72.770629
3378.549942	78.952448
3379.597140	84.130769
3380.641296	89.700699
3381.688210	98.079720
3382.733532	96.976224
3383.775813	92.693007
3384.817954	95.330769
3385.861402	90.789510
3386.904709	82.069930
3387.946427	71.374825
3388.988003	61.802098
3390.029438	60.636364
3391.069285	63.906993
3392.107543	67.373427
3393.147109	72.096503
3394.186535	76.715385
3395.224373	73.694406
3396.260624	69.868531
3397.296736	73.069231
3398.334155	66.795105
3399.368541	71.687413
3400.404234	73.910490
3401.439788	74.398601
3402.472311	75.426573
3403.507587	75.816084
3404.539832	68.993007
3405.571939	62.779021
3406.602462	54.140559
3407.634292	49.627972
3408.665984	48.297203
3409.694648	51.241958
3410.723175	51.816084
3411.753008	69.383916
3412.782704	71.297902
3413.809374	74.117483
3414.837351	77.129371
3415.862303	82.536364
3416.890005	75.738462
3417.914684	71.299301
3418.940669	67.488112
3419.965074	73.273427
3420.989343	67.744056
3422.012033	57.132867
3423.034587	51.046853
3424.058447	47.510490
3425.079287	42.171329
3426.099991	44.060140
3427.122002	46.879296
3428.140994	49.666034
3429.159850	51.457592
3430.180013	51.291209
3431.197159	48.204121
