-118.059454	6.647802
-115.389854	0.352747
-112.723189	-2.183417
-110.057276	-1.771528
-107.394295	0.777572
-104.729885	4.653047
-102.068405	9.044056
-99.405496	11.399301
-96.747693	14.071329
-94.088461	12.146154
-91.429977	11.707692
-88.774417	9.327273
-86.117429	8.737063
-83.465539	4.305594
-80.812218	6.113986
-78.161818	6.513287
-75.509988	5.167133
-72.863249	4.058741
-70.215081	7.200699
-67.567655	6.045455
-64.923143	5.304196
-62.277203	3.837762
-59.636344	8.111888
-56.994056	7.876923
-54.354677	12.132168
-51.713868	10.133566
-49.073800	16.683217
-46.438804	20.255944
-43.802380	23.388811
-41.168858	26.244755
-38.533908	29.626573
-35.904023	33.682517
-33.270546	38.899301
-30.642131	40.600000
-28.014450	46.528671
-25.385340	29.957343
-22.761287	-78.580420
-20.133645	-480.234965
-17.511056	-1215.806294
-14.889199	-1764.797902
-12.268072	1082.697902
-9.647675	6401.626573
-7.030167	10815.342657
-4.411230	13911.172727
-1.795178	15666.432168
0.820145	16067.316783
3.434741	15135.653147
6.046454	12879.792308
8.659596	9369.539860
11.267704	4884.213287
13.879394	336.369231
16.486053	-2560.288811
19.094140	-1743.311189
21.701503	-151.464336
24.303841	28.266434
26.909757	34.537063
29.510651	33.162937
32.112973	23.824476
34.710278	21.649650
37.311158	18.997203
39.907023	19.536364
42.504317	16.154545
45.100891	15.269231
47.692456	12.508392
50.285449	12.316084
52.875581	9.741958
55.467141	8.186713
58.055841	8.041259
60.645968	8.509091
63.231096	8.958741
65.817652	12.330070
68.403494	13.329371
70.986482	15.952448
73.570896	14.372727
76.148182	15.220280
78.729034	12.916084
81.307037	15.427273
83.884330	11.821678
86.463049	12.928671
89.036786	11.788811
91.611951	14.166434
94.184272	13.673427
96.755885	12.842657
99.324658	10.439161
101.894858	9.225175
104.462220	4.672727
107.031007	4.556643
109.596958	3.313287
112.160074	8.098601
114.726746	7.825874
117.284197	16.065734
119.847333	22.327273
122.405509	33.420979
124.967240	42.839860
127.524014	62.520280
130.082215	93.985315
132.635462	132.122378
135.188012	175.879720
137.744112	226.255245
140.295264	276.123077
142.845719	327.151748
145.395476	367.018881
147.942414	400.576224
150.488657	419.986713
153.036325	425.535664
155.583297	420.409790
158.125334	419.801399
160.666677	417.943357
163.207327	412.781119
165.749403	404.636364
168.288667	402.791608
170.825123	401.151748
173.360887	401.694406
175.898077	399.686014
178.434576	401.334266
180.968269	400.694406
183.499158	395.934965
186.029360	395.077622
188.560986	400.077622
191.089811	400.613986
193.615837	401.192308
196.141177	396.127972
198.667942	396.823776
201.191911	392.374825
203.715195	392.295804
206.237794	392.820979
208.757600	394.986014
211.276723	394.994406
213.795163	396.899301
216.315027	399.708392
218.827890	404.048951
221.344284	405.580420
223.859996	408.121678
226.370818	408.286713
228.883065	409.888112
231.392530	413.604895
233.901316	416.822378
236.409423	418.344056
238.918955	420.842657
241.423606	423.211888
243.927581	426.929371
246.432980	427.273427
248.933504	427.465035
251.437552	428.220979
253.934628	427.306993
256.435228	429.031469
258.933056	431.116783
261.430211	435.344056
263.926693	435.515385
266.418312	437.094406
268.913451	439.988112
271.405823	441.893007
273.897525	446.893007
276.386464	446.377622
278.876827	450.439161
281.364427	452.144056
283.849268	454.621678
286.337624	457.042657
288.819040	462.831469
291.303970	467.166434
293.784055	471.333566
296.267652	472.476224
298.746406	470.511888
301.226584	467.558042
303.704009	468.044056
306.180771	469.855245
308.656870	485.174126
311.130220	506.939860
313.602908	538.781818
316.074935	562.109790
318.546301	586.410490
321.014922	601.559441
323.482885	608.507692
325.952269	598.476923
328.416831	578.204895
330.884897	558.238462
333.348143	535.320280
335.810731	516.214685
338.272663	506.693706
340.733938	505.726573
343.192479	509.278322
345.652442	506.372727
348.109672	511.690210
350.566248	516.584615
353.022170	520.113986
355.475362	520.695804
357.929977	524.539161
360.379790	529.004895
362.833099	524.362238
365.281610	522.976923
367.729469	520.086713
370.178751	517.816783
372.623239	514.886713
375.069149	509.688112
377.514409	511.455944
379.956951	510.348951
382.398845	511.090909
384.840092	509.876224
387.278623	512.971329
389.718576	507.911888
392.155815	504.197203
394.590342	505.518182
397.028357	508.155245
399.461595	508.936364
401.896254	509.431469
404.326141	506.406993
406.759513	510.484615
409.188115	514.579021
411.616075	512.855944
414.045457	506.944056
416.470073	507.233566
418.896111	504.695105
421.321508	507.465734
423.746265	509.606993
426.166264	513.341259
428.587684	513.551049
431.006407	517.575524
433.426551	518.488811
435.844000	529.344755
438.262869	533.705594
440.679045	530.023077
443.090473	526.420979
445.505379	524.721678
447.917594	520.906294
450.329175	517.090210
452.740122	509.929371
455.148383	505.743357
457.556011	501.464336
459.963007	499.493007
462.369372	496.444056
464.773054	496.344755
467.176106	490.667832
469.578528	488.644056
471.980320	486.074126
474.379435	484.813287
476.779969	480.096503
479.179874	483.778322
481.575056	484.534266
483.973705	486.941259
486.367634	485.583916
488.760937	483.829371
491.153614	479.358042
493.545666	469.767133
495.939136	455.302797
498.327894	444.219580
500.713986	425.207692
503.101498	406.065734
505.488387	386.804895
507.872612	378.247552
510.258255	365.193706
512.641237	351.025874
515.021558	338.311888
517.403298	332.604196
519.782379	326.682517
522.162879	320.641259
524.540721	313.730769
526.915908	309.298601
529.290477	301.067832
531.666464	298.788811
534.039799	296.244056
536.414551	295.830070
538.784618	292.525874
541.154069	285.339161
543.524938	279.876923
545.891127	276.344755
548.258734	272.431469
550.623695	268.516783
552.988043	264.706294
555.351778	262.640559
557.716931	260.592308
560.077412	260.246154
562.439311	258.927972
564.798569	260.339161
567.155190	260.875524
569.515255	259.370629
571.868629	255.906993
574.225448	253.471329
576.579632	250.617483
578.933208	248.197203
581.286175	247.878322
583.636510	245.426573
585.988263	241.973427
588.333339	243.746154
590.683879	245.026573
593.027745	248.132168
595.377073	248.459441
597.721752	251.904895
600.063807	249.892308
602.407279	251.029371
604.748128	245.053846
607.088375	242.191608
609.426001	236.275524
611.767062	230.153147
614.103485	226.032867
616.441325	225.639860
618.776548	220.563636
621.109155	218.034965
623.443178	218.149650
625.774587	220.841259
628.105398	221.390909
630.435612	225.569231
632.765227	224.700699
635.090220	227.391608
637.420653	225.611189
639.746466	225.311888
642.069671	222.727273
644.394293	219.377622
646.716309	214.805594
649.037731	209.500000
651.356551	207.537762
653.676786	203.788811
655.996428	203.311189
658.313469	206.284615
660.629918	206.363636
662.943769	207.484615
665.259036	203.961538
667.571706	206.029371
669.885791	202.886014
672.195276	201.855944
674.506177	199.667832
676.814485	198.062937
679.122205	195.947552
681.431339	196.500000
683.735881	200.546154
686.039837	203.001399
688.343207	200.819580
690.647991	200.618881
692.948189	200.339860
695.249801	202.020280
697.550829	198.198601
699.847274	197.072727
702.145135	193.147552
704.442412	192.056643
706.739106	188.632168
709.031224	191.604895
711.326753	191.032168
713.617708	188.116783
715.910078	185.404196
718.199873	186.357343
720.489087	189.485315
722.777722	191.188811
725.063784	191.490210
727.351261	193.413986
729.636166	193.206294
731.920494	193.958741
734.202253	194.527972
736.485426	195.167832
738.768022	192.320979
741.046062	191.425874
743.325517	193.706294
745.604395	197.265734
747.882699	203.093007
750.156453	210.332168
752.431620	207.517483
754.706214	209.865734
756.978249	209.117483
759.251697	208.116783
761.522587	207.783916
763.790921	207.913287
766.060668	209.343357
768.327861	209.945455
770.594483	212.553147
772.860535	217.754545
775.124036	222.622378
777.388950	225.644056
779.653294	226.196503
781.913109	223.902797
784.174336	218.648252
786.434996	218.412587
788.693110	213.646154
790.948679	213.981119
793.207639	213.565035
795.460100	211.632168
797.717927	206.097902
799.971236	208.868531
802.222005	207.507692
804.474186	206.664336
806.723828	208.484615
808.974883	202.752448
811.221426	198.362937
813.469381	201.725175
815.714802	196.458741
817.961634	199.598601
820.207905	201.863636
822.449671	202.683217
824.694821	199.076923
826.933498	198.260839
829.175557	195.805594
831.413118	194.517483
833.652091	188.095105
835.888537	181.467133
838.126394	174.919580
840.361726	173.651049
842.594535	173.888112
844.828755	179.477622
847.060452	186.213287
849.291595	190.548951
851.522183	190.107692
853.752217	190.909790
855.981697	194.842657
858.206695	197.438462
860.435068	191.516783
862.658961	190.932168
864.884266	188.689510
867.105095	185.598601
869.329296	183.131469
871.549024	190.500699
873.770162	190.015385
875.990750	186.360140
878.208829	185.329371
880.428317	191.879021
882.643339	189.020280
884.857814	191.872028
887.071740	190.388112
889.285120	193.780420
891.497952	188.772028
893.710238	186.325175
895.920021	188.348252
898.129259	195.598601
900.337952	185.642657
902.544146	181.270629
904.751749	179.311888
906.956854	175.476923
909.161416	170.857343
911.363483	169.452448
913.566959	173.617483
915.767941	175.766434
917.968381	178.186713
920.170230	185.343357
922.365688	192.254545
924.564505	192.881119
926.758883	186.214685
928.956619	189.349650
931.149919	181.783217
933.344628	181.339161
935.536851	184.702098
937.728535	174.777622
939.919682	178.733566
942.108346	181.281818
944.296474	181.288112
946.482121	187.967133
948.671120	192.071329
950.855696	187.641958
953.039737	192.433566
955.227128	195.030769
957.406215	194.578322
959.588653	203.462937
961.770557	211.414685
963.949986	208.782517
966.126943	221.973427
968.305308	234.653846
970.485080	241.714685
972.658503	250.234965
974.835272	252.751049
977.007634	252.253846
979.181404	259.004196
981.350770	255.936364
983.523480	269.832168
985.693725	279.189510
987.863441	287.380420
990.032628	293.432168
992.197418	288.436364
994.365549	280.211888
996.529286	270.301399
998.694429	266.827273
1000.857113	258.260839
1003.019272	245.846853
1005.178974	238.172727
1007.338151	230.209091
1009.498735	244.192308
1011.656865	255.238462
1013.814470	266.546853
1015.971552	258.168531
1018.128110	267.501399
1020.280289	291.755944
1022.433875	318.825874
1024.586939	341.504895
1026.737554	349.137063
1028.889576	355.464336
1031.037224	352.055245
1033.188204	339.709091
1035.334813	350.365734
1037.480903	342.259441
1039.626475	328.906993
1041.773452	302.524476
1043.914140	313.541958
1046.058158	327.567832
1048.199735	322.762238
1050.340796	311.727972
1052.483261	304.068531
1054.619447	281.923776
1056.758958	272.916084
1058.894115	286.451049
1061.032596	280.095804
1063.166723	274.683217
1065.300337	287.888112
1067.435356	302.419580
1069.566025	307.142657
1071.698099	313.955245
1073.827744	306.802098
1075.956877	309.142657
1078.085498	311.781119
1080.213608	297.767133
1082.339292	312.062238
1084.464466	308.065035
1086.591044	276.293007
1088.713284	265.325874
1090.836929	278.296503
1092.956239	274.749650
1095.080779	260.829371
1097.199073	247.620280
1099.318772	241.000000
1101.436052	250.939860
1103.552826	254.919580
1105.669093	245.938462
1107.782944	240.471329
1109.898200	237.121678
1112.009132	228.242657
1114.123377	221.734266
1116.233301	236.423077
1118.344629	223.873427
1120.455452	223.764336
1122.561959	219.652448
1124.671776	222.955944
1126.777278	233.582517
1128.884183	226.990909
1130.984873	220.238462
1133.090775	211.637762
1135.192368	217.820979
1137.295364	207.937762
1139.397859	205.172028
1141.494147	201.348252
1143.595643	189.391608
1145.692835	197.124476
1147.789530	214.252448
1149.885726	220.567832
1151.981425	218.818881
1154.076625	226.765035
1156.169429	224.925874
1158.263636	217.017483
1160.351651	217.581119
1162.444864	205.753147
1164.531889	195.153147
1166.622213	191.052448
1168.708250	186.056643
1170.797584	186.952448
1172.880737	199.937762
1174.965292	199.153846
1177.051249	201.193706
1179.132924	213.269231
1181.216001	208.593007
1183.296692	205.646154
1185.376891	213.123776
1187.456599	204.393007
1189.535816	196.523077
1191.612651	199.025175
1193.687105	195.034965
1195.764850	196.955245
1197.838326	211.927273
1199.913202	209.109790
1201.983811	206.466434
1204.055821	212.681119
1206.125456	204.485315
1208.196491	205.417483
1210.267038	206.237063
1212.333324	204.710490
1214.401011	194.258042
1216.466326	199.635664
1218.533041	194.898601
1220.595500	194.460839
1222.661244	198.493706
1224.722734	192.387413
1226.785625	193.895804
1228.846148	196.726573
1230.906187	183.651049
1232.965744	184.283916
1235.022935	184.722378
1237.079645	188.160140
1239.133991	174.920979
1241.191619	173.689510
1243.246884	168.171329
1245.297908	167.740559
1247.350332	171.088112
1249.402276	178.219580
1251.451862	183.949650
1253.500969	183.984615
1255.549598	185.327273
1257.597748	193.135664
1259.645419	197.466434
1261.688860	185.499301
1263.735577	177.268531
1265.779940	173.843357
1267.823827	171.078322
1269.865362	164.667832
1271.904548	168.669231
1273.947007	176.339161
1275.985243	186.209790
1278.024878	194.371329
1280.064038	204.456643
1282.098979	208.562238
1284.135319	208.779021
1286.169315	198.737762
1288.204708	194.486014
1290.235889	178.741259
1292.268467	164.943357
1294.300574	154.304196
1296.330340	146.149650
1298.361504	142.588811
1300.388460	148.726573
1302.416814	150.492308
1304.440963	152.218182
1306.468378	158.443357
1308.491590	165.038462
1310.516200	160.637063
1312.538476	163.368531
1314.562149	159.385315
1316.583489	163.255944
1318.604361	172.049650
1320.624766	177.725874
1322.640978	180.222378
1324.658587	188.453846
1326.673868	182.296503
1328.692408	175.960839
1330.706759	178.765035
1332.718784	172.328671
1334.734066	160.534266
1336.745163	155.911189
1338.757657	152.406993
1340.765968	158.353147
1342.777534	164.926573
1344.783062	170.616084
1346.791845	165.601399
1348.796450	172.726573
1350.804309	162.737762
1352.811706	162.181818
1354.813072	168.673427
1356.815834	166.050350
1358.818137	164.737063
1360.819980	164.219580
1362.821363	173.351049
1364.820433	174.770629
1366.819044	175.223776
1368.817197	179.100000
1370.814891	175.844755
1372.808423	181.420280
1374.803351	181.516783
1376.797821	183.344755
1378.791835	187.376224
1380.783542	189.183217
1382.774794	190.827972
1384.763740	193.606993
1386.754081	194.156643
1388.743967	182.567832
1390.731549	177.035664
1392.718678	171.143357
1394.703505	166.030769
1396.689727	165.624476
1398.673649	168.695105
1400.657118	169.243357
1402.640134	171.225175
1404.620853	180.574825
1406.602966	182.820979
1408.582783	186.860839
1410.562148	178.518881
1412.537375	172.380420
1414.515840	166.935664
1416.492012	164.955245
1418.467735	158.041958
1420.443008	161.117483
1422.415990	167.451049
1424.388524	165.946853
1426.360610	166.988112
1428.332249	178.081818
1430.299759	176.739860
1432.272343	175.950350
1434.237122	168.256643
1436.206972	170.584615
1438.172699	173.149650
1440.139818	171.706993
1442.104654	169.280420
1444.065370	175.280420
1446.031154	176.413287
1447.990983	176.711189
1449.952206	170.132867
1451.914821	177.951049
1453.873321	173.314685
1455.831378	178.958741
1457.788994	173.051049
1459.746167	180.760140
1461.701065	178.805594
1463.657356	174.374126
1465.611372	174.660839
1467.564947	168.348951
1469.516250	169.771329
1471.468946	177.418881
1473.419369	176.457343
1475.369354	181.279021
1477.318900	185.779021
1479.266177	198.382517
1481.211186	194.449650
1483.157588	199.407692
1485.103552	195.276224
1487.049079	198.755245
1488.992340	192.622378
1490.935166	186.301399
1492.875728	180.686014
1494.817681	190.800000
1496.757372	189.827273
1498.696629	187.044755
1500.635450	190.045455
1502.572012	193.402797
1504.509965	193.372727
1506.445659	198.199301
1508.380920	197.292308
1510.313925	192.716084
1512.246497	190.078322
1514.178637	190.637063
1516.110345	186.607692
1518.039799	199.979720
1519.970644	200.968531
1521.901057	203.083916
1523.827398	207.013986
1525.755130	210.201399
1527.680611	215.738462
1529.605663	224.941259
1531.530286	220.677622
1533.454480	218.039860
1535.376426	215.167133
1537.299763	223.016084
1539.220853	229.724476
1541.139700	238.725874
1543.059935	239.658042
1544.977928	246.906294
1546.895494	255.079021
1548.810818	255.792308
1550.727532	271.051748
1552.640191	296.672727
1554.556054	304.249650
1556.469677	321.939860
1558.381062	338.771329
1560.293837	378.093706
1562.202562	408.497902
1564.112676	458.923077
1566.022367	532.600699
1567.931635	644.711888
1569.838669	789.376224
1571.743470	982.197902
1573.649660	1193.515385
1575.553618	1403.186014
1577.457155	1544.553147
1579.360272	1623.063636
1581.261159	1609.565734
1583.163435	1527.383217
1585.063483	1366.735664
1586.964918	1173.811888
1588.862320	953.838462
1590.759303	749.582517
1592.655868	598.604196
1594.553821	497.020979
1596.445939	440.138462
1598.341250	409.919580
1600.236144	371.383916
1602.128816	339.527273
1604.021071	313.889510
1605.911107	284.416783
1607.800727	258.827273
1609.689932	241.905594
1611.578722	211.048951
1613.465294	194.769930
1615.353254	197.306993
1617.237197	201.544755
1619.122527	225.229371
1621.007444	240.906993
1622.890147	240.164336
1624.774237	231.103497
1626.654315	220.459441
1628.535781	201.344755
1630.415036	207.023077
1632.295677	202.002797
1634.170514	191.923776
1636.050332	184.020979
1637.926146	196.115385
1639.801549	201.780420
1641.678338	221.379720
1643.549331	217.898601
1645.423505	211.500000
1647.293680	200.786014
1649.167037	179.897203
1651.038190	172.662937
1652.907141	179.303497
1654.777477	168.248252
1656.643821	165.276923
1658.511550	154.984615
1660.377080	173.217483
1662.243996	168.670629
1664.106923	171.200000
1665.971235	167.758741
1667.833351	178.416783
1669.695062	186.098601
1671.558159	170.125175
1673.419060	173.969231
1675.277769	181.552448
1677.136074	164.183217
1678.995764	159.820280
1680.849686	156.205594
1682.706782	170.487413
1684.563475	156.578322
1686.416191	159.449650
1688.272079	168.844755
1690.123993	173.951049
1691.975506	180.195804
1693.826618	185.418182
1695.677330	192.751748
1697.527641	201.826573
1699.375767	193.807692
1701.225278	195.472727
1703.069040	190.260140
1704.917751	191.330070
1706.760716	201.255245
1708.606848	187.161538
1710.449017	181.881119
1712.294352	187.661538
1714.133946	194.216084
1715.974924	211.470629
1717.817285	209.818182
1719.655690	213.157343
1721.495478	204.519580
1723.333091	197.920979
1725.170308	173.708392
1727.005352	162.607692
1728.841779	158.029371
1730.676034	121.715385
1732.509894	122.345455
1734.343360	136.667133
1736.172881	154.941259
1738.005560	173.544056
1739.834295	163.576224
1741.666187	183.519580
1743.494137	194.316783
1745.321696	190.223077
1747.148862	187.902098
1748.975637	176.390909
1750.802020	189.663636
1752.624467	172.572727
1754.450069	175.740559
1756.271736	200.334965
1758.094785	207.978322
1759.915672	200.006993
1761.736171	191.665035
1763.558051	210.686014
1765.374231	204.909790
1767.193563	194.406993
1769.008968	199.714685
1770.827523	177.215385
1772.642153	187.295105
1774.456396	186.141259
1776.270253	206.502098
1778.083723	221.022378
1779.895040	207.568531
1781.707737	215.034266
1783.520049	214.223776
1785.328443	220.190909
1787.138217	227.970629
1788.944077	217.678322
1790.753082	212.224476
1792.558174	216.667832
1794.364647	220.607692
1796.170736	225.413986
1797.972914	227.656643
1799.778237	206.642657
1801.579651	183.860839
1803.382445	186.153846
1805.181333	162.917483
1806.981602	161.119580
1808.781489	151.798601
1810.579234	129.648252
1812.376599	147.645455
1814.173584	167.780420
1815.970188	172.733566
1817.764653	191.986014
1819.560497	207.755245
1821.350686	193.225874
1823.145772	212.041259
1824.935206	231.897902
1826.727776	237.426573
1828.518211	233.714685
1830.306512	236.606294
1832.097948	232.251049
1833.883738	223.107692
1835.670908	222.527972
1837.455946	228.876224
1839.244118	221.990210
1841.028404	203.349650
1842.810560	171.116783
1844.594096	160.429371
1846.375503	150.586014
1848.158289	156.817483
1849.937194	153.245455
1851.717479	159.905594
1853.495637	151.788811
1855.275174	140.888811
1857.052586	157.291608
1858.827874	156.130769
1860.604540	160.534266
1862.379084	159.220979
1864.155006	134.616783
1865.925307	123.345455
1867.698736	128.676224
1869.470045	152.079720
1871.240983	151.255245
1873.013299	165.501399
1874.780001	184.054545
1876.549829	181.242657
1878.315793	186.972028
1880.084880	178.239161
1881.850106	191.609790
1883.614964	197.169930
1885.381199	187.963636
1887.143575	192.302797
1888.905584	184.336364
1890.667225	193.103497
1892.428500	191.481818
1894.189407	200.501399
1895.949948	203.041958
1897.708379	194.728671
1899.466444	182.431469
1901.222402	177.383217
1902.979736	184.409091
1904.736705	203.225874
1906.491567	196.865035
1908.244325	201.238462
1909.996718	196.518182
1911.750488	203.789510
1913.502154	213.401399
1915.251718	205.821678
1917.002657	207.509790
1918.753234	212.631469
1920.499971	198.432867
1922.248085	211.370629
1923.994099	212.289510
1925.741488	209.281119
1927.486780	196.711888
1929.229974	193.505594
1930.974543	186.664336
1932.717017	172.232867
1934.459130	165.439161
1936.200883	151.406294
1937.942276	152.980420
1939.681576	157.163636
1941.420517	150.487413
1943.159099	156.970629
1944.895590	166.223077
1946.631723	170.454545
1948.369230	179.793007
1950.102915	185.935664
1951.837975	186.772727
1953.570946	177.314685
1955.303561	176.422378
1957.035820	172.730769
1958.767722	160.696503
1960.497538	159.869930
1962.225269	147.776923
1963.954375	150.723077
1965.683126	152.215385
1967.409793	155.289510
1969.136106	162.766434
1970.863792	163.206993
1972.585942	159.532168
1974.311193	160.851049
1976.032637	170.477622
1977.757182	176.634965
1979.479646	171.417483
1981.198308	188.222378
1982.920068	186.478322
1984.638026	199.602098
1986.357357	195.813287
1988.072889	202.452448
1989.793241	203.053147
1991.509795	190.167832
1993.222552	182.530769
1994.938405	181.797203
1996.652186	174.116783
1998.365617	172.687413
2000.076977	166.200699
2001.789709	182.038462
2003.498651	186.076923
2005.210685	199.005594
2006.917211	196.398601
2008.626828	206.101399
2010.334379	206.809091
2012.041581	196.969231
2013.746718	189.414685
2015.451509	178.528671
2017.157671	163.272727
2018.860051	163.212587
2020.563802	156.583217
2022.265491	172.789510
2023.966835	167.548951
2025.667833	169.965035
2027.366770	164.176923
2029.067079	164.545455
2030.763613	156.535664
2032.461518	146.543357
2034.157364	143.207692
2035.856296	135.688811
2037.549742	140.288811
2039.244559	143.593706
2040.939034	148.816084
2042.629740	163.095105
2044.323530	152.374126
2046.013553	166.202797
2047.704947	172.753147
2049.394288	177.506993
2051.084999	179.397203
2052.771947	176.027972
2054.458556	171.723077
2056.146534	168.861538
2057.830753	175.745455
2059.516343	164.211189
2061.201593	159.775524
2062.884794	161.792308
2064.569366	152.236364
2066.248475	166.346853
2067.932369	169.843357
2069.610802	168.491608
2071.292313	162.318182
2072.970072	153.520280
2074.647495	144.858741
2076.326287	140.788112
2078.003037	145.739860
2079.677745	144.702098
2081.353822	142.181818
2083.027859	153.981818
2084.701560	152.832867
2086.374926	169.821678
2088.046253	175.760839
2089.717246	181.241958
2091.387905	177.596503
2093.058230	184.281818
2094.728221	189.000000
2096.396176	188.823077
2098.063798	201.256643
2099.729385	204.861538
2101.396341	192.734266
2103.061264	196.239161
2104.725855	190.733566
2106.388414	202.699301
2108.052341	199.172727
2109.714237	196.774126
2111.375803	179.162937
2113.037037	180.534965
2114.696243	170.879720
2116.355118	165.263636
2118.013664	169.941958
2119.671880	165.893007
2121.326372	162.926573
2122.983929	166.776224
2124.641157	173.086713
2126.294663	192.404196
2127.949537	191.379021
2129.600692	195.267133
2131.254910	182.041958
2132.905411	175.908392
2134.557278	167.096503
2136.203737	169.272028
2137.854951	167.919580
2139.502451	172.646154
2141.151318	172.946154
2142.798166	177.476224
2144.444689	186.481818
2146.090886	200.183916
2147.733375	207.104196
2149.378922	210.846853
2151.020762	201.905594
2152.665659	195.736364
2154.306850	186.779021
2155.947719	182.581818
2157.588263	177.320280
2159.226795	176.060140
2160.866693	172.712587
2162.502891	171.324476
2164.140455	166.923077
2165.777697	176.130769
2167.412929	178.331469
2169.047840	178.998601
2170.682428	177.566434
2172.316696	183.008392
2173.947270	179.243357
2175.580896	191.993706
2177.210830	190.313287
2178.842129	192.175524
2180.471423	193.316783
2182.100398	173.595105
2183.729053	161.206993
2185.357389	160.313986
2186.983723	163.651748
2188.609738	157.830070
2190.233751	162.555944
2191.859130	170.703497
2193.482508	170.761538
2195.107251	172.769930
2196.728313	168.093007
2198.349058	172.388112
2199.971168	170.650350
2201.591280	163.031469
2203.209395	158.436364
2204.827195	163.076224
2206.444680	160.195105
2208.061849	157.129371
2209.678703	169.860140
2211.295241	164.460140
2212.909787	167.653147
2214.522340	165.451748
2216.136257	164.163636
2217.748183	171.897902
2219.361472	171.259441
2220.972771	172.000699
2222.582080	159.686014
2224.192753	151.559441
2225.801437	138.165035
2227.409808	151.533566
2229.016193	151.942657
2230.623941	144.329371
2232.229702	148.823077
2233.835152	148.199301
2235.438617	144.688811
2237.043445	153.361538
2238.646289	158.109790
2240.247150	156.341259
2241.849374	150.748252
2243.449616	139.289510
2245.051220	136.185315
2246.649171	150.184615
2248.248485	152.515385
2249.845819	162.737762
2251.442845	164.542657
2253.041233	170.287413
2254.635972	179.148951
2256.228734	191.248951
2257.822859	189.298601
2259.418345	175.717483
2261.010186	177.007692
2262.601721	160.906993
2264.194618	156.074126
2265.782205	159.149650
2267.374488	165.762238
2268.961465	164.085315
2270.551469	149.079720
2272.136169	157.456643
2273.725563	160.262937
2275.309655	165.022378
2276.895107	157.039860
2278.478591	157.476923
2280.065100	172.501399
2281.647976	168.718182
2283.230549	175.469930
2284.812818	185.474825
2286.391457	182.879021
2287.973121	185.713986
2289.551156	174.930769
2291.132214	188.758741
2292.709645	179.839860
2294.285113	172.288112
2295.863603	167.230769
2297.438469	175.723776
2299.013034	161.269231
2300.587299	158.457343
2302.161263	175.552448
2303.734926	188.108392
2305.308290	190.679720
2306.878035	197.072727
2308.447481	177.829371
2310.019945	178.553147
2311.587135	160.401399
2313.157343	141.364336
2314.723936	139.760140
2316.291889	141.776923
2317.857886	126.620280
2319.423586	137.513986
2320.988988	165.597902
2322.552437	187.543357
2324.117245	195.115385
2325.678445	188.969231
2327.242659	193.414685
2328.801611	186.487413
2330.363578	175.290909
2331.923593	144.959441
2333.483314	137.443357
2335.041085	134.579021
2336.598561	140.130070
2338.155743	132.490909
2339.710977	149.713287
2341.265918	151.892308
2342.820564	153.925175
2344.374917	158.462937
2345.928977	182.619580
2347.482742	172.204196
2349.034564	165.247552
2350.584442	149.374825
2352.137328	151.921678
2353.684972	156.827273
2355.235623	156.903497
2356.782683	142.473427
2358.331101	144.776224
2359.879228	132.773427
2361.423766	130.720280
2362.969662	151.465035
2364.513620	169.973427
2366.058935	176.851748
2367.600665	195.446853
2369.143752	210.378322
2370.684903	217.874126
2372.225765	221.571329
2373.766338	206.748252
2375.306622	207.206294
2376.846617	196.063636
2378.383034	173.442657
2379.922452	154.441958
2381.458293	171.565035
2382.995490	152.695105
2384.529112	148.244056
2386.065734	152.832168
2387.600426	147.099301
2389.133188	145.618182
2390.665663	152.825175
2392.196210	159.225874
2393.729755	168.540559
2395.258089	178.327972
2396.787780	179.029371
2398.317184	183.874126
2399.846304	201.438462
2401.375139	174.081119
2402.898768	171.770629
2404.427033	169.079720
2405.950096	159.585315
2407.477792	154.666434
2408.998649	154.423776
2410.524139	145.260140
2412.046068	144.104895
2413.569353	165.537762
2415.090716	163.777622
2416.610160	201.017483
2418.130959	218.857343
2419.649840	231.709091
2421.168438	238.522378
2422.685119	247.993706
2424.203154	240.182517
2425.720908	237.476224
2427.235111	215.220979
2428.749033	222.743357
2430.262675	227.400000
2431.777672	220.585315
2433.289120	230.599301
2434.801923	249.297902
2436.312812	239.936364
2437.823423	245.764336
2439.332122	238.871329
2440.843807	249.252448
2442.351949	240.751748
2443.859813	242.547552
2445.367399	233.850350
2446.871444	244.204895
2448.378474	226.890210
2449.883597	220.718182
2451.388441	226.899301
2452.891379	210.483916
2454.394041	202.743357
2455.896426	205.185315
2457.396906	212.478322
2458.898739	213.774825
2460.398667	216.646154
2461.898320	211.243357
2463.397698	194.591608
2464.895173	173.623077
2466.390746	170.599301
2467.889299	167.492308
2469.384324	180.653846
2470.880701	176.057343
2472.373552	190.313986
2473.867756	196.380420
2475.361686	208.838462
2476.852092	212.558741
2478.345476	217.233566
2479.836962	212.426573
2481.326551	204.281818
2482.815868	209.522378
2484.303289	206.573427
2485.793686	206.364336
2487.280565	232.480420
2488.768795	229.660839
2490.253508	233.501399
2491.737952	217.672028
2493.223746	214.903497
2494.707649	188.148252
2496.192902	183.197902
2497.673022	176.284615
2499.156115	182.608392
2500.637317	161.268531
2502.118250	154.897203
2503.597294	166.782517
2505.076069	191.986014
2506.554576	186.839860
2508.032815	182.713287
2509.510785	177.209790
2510.985250	179.372727
2512.462685	164.365734
2513.936616	179.039860
2515.411897	159.343357
2516.886911	154.210490
2518.358425	120.765035
2519.831288	123.109790
2521.302269	126.922378
2522.774600	140.129371
2524.241817	130.184615
2525.712001	133.372028
2527.180304	146.600699
2528.648342	157.334965
2530.116115	161.981119
2531.583623	151.329371
2533.050866	135.491608
2534.514617	145.333566
2535.979718	144.562937
2537.442942	155.379720
2538.907516	174.604196
2540.368600	185.025175
2541.831034	193.369231
2543.293205	195.951748
2544.751890	203.927972
2546.215147	207.272727
2547.673307	195.834965
2549.132816	168.677622
2550.587231	159.357343
2552.046217	167.353147
2553.503331	175.268531
2554.958574	179.868531
2556.413555	183.561538
2557.866668	189.759441
2559.321129	202.739860
2560.773720	202.488112
2562.226052	206.014685
2563.676517	215.167133
2565.129937	197.590210
2566.578275	195.526573
2568.029569	188.896503
2569.478996	194.827273
2570.924951	180.025874
2572.373861	160.264336
2573.819301	144.667832
2575.266088	145.979021
2576.711013	149.260839
2578.155679	138.479021
2579.601693	130.225874
2581.044241	125.733566
2582.488136	114.084615
2583.928566	137.709091
2585.370343	161.279021
2586.810261	169.313287
2588.251526	181.959441
2589.689329	191.971329
2591.130082	202.191608
2592.565773	218.177622
2594.004413	228.238462
2595.441195	218.106294
2596.876122	210.700699
2598.313996	212.056643
2599.746813	207.423077
2601.180977	217.229371
2602.613287	226.365035
2604.046943	222.525175
2605.478746	228.945455
2606.910295	221.036364
2608.341592	214.458042
2609.771036	204.708392
2611.200228	202.793706
2612.627570	194.315385
2614.056257	193.826573
2615.484693	201.889510
2616.909681	198.836364
2618.336016	193.864336
2619.760502	207.749650
2621.186334	207.775524
2622.608722	211.541259
2624.032456	220.106993
2625.454343	220.204196
2626.875981	218.399301
2628.295773	221.144056
2629.716911	227.845455
2631.137799	234.477622
2632.555249	245.674825
2633.975638	244.027273
2635.392590	237.372727
2636.809293	245.211189
2638.225748	227.223077
2639.641955	217.486713
2641.057914	207.180420
2642.472032	207.747552
2643.885902	203.901399
2645.297934	198.176923
2646.711309	227.186014
2648.121255	230.997902
2649.534137	237.863636
2650.943590	228.313287
2652.352797	236.151049
2653.760168	243.979021
2655.170473	251.338462
2656.578943	254.567133
2657.985577	274.083916
2659.391966	294.876224
2660.796521	314.216783
2662.202420	331.125874
2663.606486	348.324476
2665.010307	335.861538
2666.413884	336.379720
2667.815630	310.465035
2669.218719	322.179720
2670.618390	322.806294
2672.019405	333.018881
2673.417004	332.125874
2674.817533	334.883916
2676.214646	342.213287
2677.613103	336.349650
2679.009733	328.795804
2680.406120	318.427273
2681.802265	322.380420
2683.196585	334.212587
2684.592246	325.565734
2685.984499	350.775524
2687.378094	359.182517
2688.769865	349.930769
2690.162979	344.932168
2691.554269	337.872727
2692.943736	349.888112
2694.332963	356.620979
2695.721951	358.671329
2697.112280	370.230769
2698.497626	398.477622
2699.885895	425.935664
2701.272344	439.223776
2702.658554	455.069231
2704.044525	467.435664
2705.427098	455.874126
2706.811013	462.260140
2708.194690	479.206294
2709.578128	515.558042
2710.958172	540.365734
2712.339556	544.448951
2713.719126	553.435664
2715.100036	563.405594
2716.479132	571.058741
2717.856414	562.604895
2719.235037	539.947552
2720.611847	520.958042
2721.988420	485.060140
2723.364758	465.041259
2724.739285	455.092308
2726.115152	444.004196
2727.487632	419.981119
2728.863028	404.732168
2730.233464	396.297203
2731.605241	394.591608
2732.976783	394.340559
2734.346517	383.207692
2735.717592	369.530769
2737.086858	364.382517
2738.455891	351.534965
2739.823118	342.952448
2741.190112	322.418182
2742.556872	299.280420
2743.923401	280.433566
2745.288124	284.624476
2746.652615	282.432867
2748.016875	265.899301
2749.380902	245.337063
2750.744698	239.899301
2752.105120	236.243357
2753.468452	237.023776
2754.826842	232.993706
2756.188142	234.720280
2757.546072	220.330769
2758.906910	223.010490
2760.265949	232.949650
2761.621619	243.004895
2762.980197	220.091608
2764.335408	192.752448
2765.690390	175.276923
2767.043576	161.285315
2768.399668	159.757343
2769.752395	159.646853
2771.104895	151.127273
2772.457166	147.475524
2773.810776	123.771329
2775.161024	126.101399
2776.509478	126.358741
2777.860838	124.398601
2779.208838	107.367832
2780.558176	106.255245
2781.905722	117.565734
2783.253042	128.679720
2784.600135	152.397203
2785.945437	158.700699
2787.290512	168.857343
2788.635362	168.019580
2789.979986	168.155944
2791.321258	170.223776
2792.663868	173.024476
2794.006252	163.513287
2795.348411	163.370629
2796.687221	166.167133
2798.028931	165.227972
2799.367293	156.592308
2800.706991	158.112587
2802.044905	147.483217
2803.381034	147.010490
2804.716939	151.995105
2806.054182	176.518881
2807.389641	187.427273
2808.724877	204.984615
2810.058330	204.304895
2811.393120	221.657343
2812.724570	206.481119
2814.058915	191.213986
2815.388362	172.246853
2816.719146	165.190909
2818.049708	144.650350
2819.378491	143.765035
2820.708610	154.806993
2822.036951	169.243357
2823.365071	175.031469
2824.691413	178.175524
2826.019092	169.190210
2827.343437	179.287413
2828.669119	166.136364
2829.993025	161.002098
2831.316712	150.897203
2832.641734	159.666434
2833.963426	151.113287
2835.284900	153.120280
2836.606155	157.437762
2837.927191	155.732867
2839.246454	145.458741
2840.567053	150.497902
2841.885881	146.895105
2843.204490	162.392308
2844.521328	147.126573
2845.837949	134.128671
2847.154353	131.205594
2848.468987	132.202797
2849.784957	121.673427
2851.097606	132.923776
2852.411590	136.918182
2853.725358	130.600000
2855.038909	118.525874
2856.350694	137.621678
2857.660712	144.671329
2858.972065	161.060140
2860.280103	146.332867
2861.589475	148.357343
2862.898633	162.700000
2864.207575	160.036364
2865.514753	173.327972
2866.820169	180.988112
2868.126919	179.018182
2869.431906	159.441259
2870.736680	145.749650
2872.039692	148.404196
2873.345585	139.628671
2874.646624	147.539161
2875.948997	141.606294
2877.249610	145.497902
2878.551557	137.439860
2879.853290	130.650350
2881.151720	138.358741
2882.451483	146.899301
2883.749489	131.294406
2885.047283	126.360140
2886.343321	122.057343
2887.640692	103.109790
2888.936307	91.214685
2890.231711	103.820979
2891.526904	108.127972
2892.818800	115.320979
2894.113572	108.925874
2895.405047	114.859441
2896.697855	130.278322
2897.990453	130.192308
2899.279757	114.097203
2900.570393	133.628671
2901.859278	118.587413
2903.149495	97.156643
2904.436421	105.908392
2905.724679	129.690909
2907.011188	152.875524
2908.297489	182.241958
2909.583581	193.188112
2910.867925	190.593007
2912.155140	185.695804
2913.437529	177.007692
2914.721250	167.237762
2916.003225	156.095804
2917.284992	137.092308
2918.565015	128.095804
2919.847907	141.780420
2921.129054	152.665035
2922.406919	157.696503
2923.687653	177.894406
2924.965106	194.891608
2926.242353	183.650350
2927.517858	174.234965
2928.796231	169.316084
2930.069790	167.351748
2931.346216	168.681119
2932.620901	166.683916
2933.893845	165.266434
2935.168121	157.855944
2936.440657	148.959441
2937.712988	140.147552
2938.982047	154.623077
2940.253971	163.369930
2941.524157	156.811888
2942.794139	148.151049
2944.063918	154.491608
2945.331961	169.693007
2946.598267	172.876923
2947.864372	164.346154
2949.131806	160.225175
2950.397506	144.948951
2951.663003	135.760839
2952.928298	131.018182
2954.190328	130.575524
2955.453688	129.655245
2956.716847	128.948252
2957.978274	119.755944
2959.241030	120.308392
2960.502054	123.981818
2961.761348	114.732168
2963.020442	108.920280
2964.279335	124.862238
2965.538028	124.488112
2966.796521	123.633566
2968.053285	127.631469
2969.309849	140.181119
2970.564686	137.562937
2971.820851	143.396503
2973.073762	129.394406
2974.328002	133.171329
2975.582043	141.704895
2976.834358	143.296503
2978.086474	153.539161
2979.336866	161.597203
2980.590113	164.653147
2981.838583	163.284615
2983.089908	159.725175
2984.337983	160.259441
2985.585862	137.619580
2986.833543	143.616084
2988.081027	137.597203
2989.326790	129.355944
2990.572357	135.927972
2991.819251	133.840559
2993.062901	138.946154
2994.307879	135.417483
2995.549613	148.633566
2996.794199	142.423776
2998.037066	136.990909
2999.276692	138.238462
3000.519168	134.554545
3001.758404	146.962937
3002.998968	154.748951
3004.237816	139.154545
3005.476468	137.208392
3006.713406	117.203497
3007.951670	112.941259
3009.188219	105.844056
3010.424575	97.837063
3011.660737	92.514685
3012.895185	99.411888
3014.129441	115.037063
3015.363503	116.624476
3016.595853	125.662937
3017.826491	149.930070
3019.059975	143.656643
3020.291747	126.945455
3021.521809	116.497203
3022.751679	112.672727
3023.979839	114.132867
3025.209325	102.069930
3026.437102	110.300699
3027.664688	120.023077
3028.893601	132.755944
3030.117771	136.029371
3031.344784	152.086014
3032.568573	159.046853
3033.793689	147.154545
3035.017098	141.168531
3036.240317	142.269930
3037.461831	132.148252
3038.686186	127.725175
3039.905806	114.658741
3041.126752	123.705594
3042.347509	126.688811
3043.566562	137.948252
3044.786940	143.620280
3046.004102	137.322378
3047.222590	137.511888
3048.439375	141.323077
3049.655973	141.066434
3050.872382	132.684615
3052.085579	131.276224
3053.301613	132.663636
3054.514435	120.823077
3055.730094	118.862937
3056.941030	116.370629
3058.153291	123.353147
3059.365366	115.000000
3060.577253	109.770629
3061.787444	114.623776
3062.997448	108.907343
3064.207266	108.067832
3065.415388	118.796154
3066.623325	138.819580
3067.829566	143.391259
3069.037132	141.841958
3070.243003	135.650699
3071.448690	138.187413
3072.654191	143.860490
3073.857999	139.239161
3075.063131	137.575874
3076.266570	126.555245
3077.468318	122.701748
3078.669881	117.716783
3079.871261	125.911189
3081.072457	133.022378
3082.271963	142.071329
3083.471286	140.739161
3084.671932	133.934965
3085.870888	145.976224
3087.066650	159.748951
3088.265241	154.498601
3089.460638	145.094406
3090.657358	130.830070
3091.850886	132.379021
3093.047242	127.190210
3094.241912	131.504895
3095.433391	125.912587
3096.629201	117.840559
3097.820318	105.230769
3099.012757	109.791608
3100.202009	110.397902
3101.394086	102.041259
3102.584480	83.304196
3103.771688	68.983916
3104.960219	64.399301
3106.150071	79.246154
3107.336740	88.450350
3108.523228	92.541259
3109.709538	91.749650
3110.897169	98.194406
3112.081618	109.139860
3113.264388	124.550350
3114.449980	118.671329
3115.633893	113.095105
3116.816127	106.179021
3117.998182	99.172028
3119.180059	97.453846
3120.361758	105.043357
3121.541780	112.445455
3122.720125	109.741958
3123.901290	112.097902
3125.079280	116.781818
3126.257094	118.558741
3127.434730	125.566434
3128.610691	127.051049
3129.786475	134.513986
3130.963581	131.047552
3132.139012	131.874126
3133.312770	137.750350
3134.484855	142.686713
3135.658262	145.158042
3136.831492	129.066434
3138.003051	125.879720
3139.175930	114.174825
3140.345642	108.204196
3141.516675	108.844056
3142.686038	114.330769
3143.853730	128.016084
3145.024238	126.610490
3146.190088	139.368531
3147.360246	151.867832
3148.525748	160.694406
3149.691075	158.296503
3150.856229	147.039161
3152.021210	153.723077
3153.187510	141.948951
3154.349158	139.624476
3155.512125	133.446853
3156.674920	128.227972
3157.837542	133.605594
3158.998499	124.955245
3160.159283	123.807692
3161.319895	118.282517
3162.478843	126.597902
3163.637620	123.977622
3164.796225	127.965734
3165.954657	132.666434
3167.112919	127.815385
3168.269518	128.273427
3169.424456	112.248951
3170.580713	101.721678
3171.735309	103.148951
3172.889735	101.881119
3174.042501	103.715385
3175.195096	103.392308
3176.347522	108.931469
3177.499778	109.971329
3178.651863	105.994406
3179.800803	101.722378
3180.952549	103.974825
3182.102637	110.122378
3183.251069	102.657343
3184.399331	104.621678
3185.547425	109.805594
3186.695350	111.400000
3187.841619	108.738462
3188.987720	88.168531
3190.132167	66.862937
3191.276446	66.158042
3192.420557	54.375524
3193.565985	52.742657
3194.708275	56.197203
3195.850398	59.293706
3196.992353	67.757343
3198.134141	75.388811
3199.275762	87.772028
3200.414248	97.928671
3201.554051	113.695804
3202.695172	109.254545
3203.833158	100.581818
3204.969495	112.280420
3206.105666	102.025175
3207.243154	90.978322
3208.378994	80.316084
3209.516151	79.992308
3210.648695	88.853147
3211.785521	92.590210
3212.917735	107.113287
3214.051266	118.341958
3215.184633	133.844056
3216.314872	123.584615
3217.447909	123.295804
3218.577820	119.805594
3219.709047	107.487413
3220.837150	107.575524
3221.968049	97.770629
3223.097304	97.324476
3224.224916	88.662238
3225.349405	91.929371
3226.478170	99.772028
3227.603813	105.553846
3228.729294	100.666434
3229.853133	99.191608
3230.979766	111.231469
3232.101802	100.484615
3233.225154	104.707692
3234.348344	114.609091
3235.471372	106.977622
3236.592760	101.107692
3237.713986	97.352448
3238.833575	108.525175
3239.953002	112.092308
3241.070791	117.412587
3242.191372	122.483217
3243.308840	128.532168
3244.426147	137.563636
3245.543294	138.307692
3246.658805	156.129371
3247.775630	168.825874
3248.889346	157.088811
3250.005851	133.842657
3251.120722	126.754545
3252.232484	125.466434
3253.344086	113.602098
3254.457004	112.153846
3255.569762	116.453147
3256.679414	102.825175
3257.790381	115.437063
3258.901189	120.047552
3260.010365	121.036364
3261.117911	115.486713
3262.226770	103.826573
3263.335472	94.253846
3264.441071	103.778322
3265.547984	104.275524
3266.653268	97.446853
3267.759866	98.762937
3268.863364	103.441259
3269.968177	95.428671
3271.072832	113.603497
3272.174388	108.662238
3273.275788	94.166434
3274.378502	92.285315
3275.481060	103.060839
3276.580521	101.418182
3277.682766	99.656643
3278.781915	93.813287
3279.879440	98.574825
3280.976809	93.900000
3282.076960	91.675524
3283.174019	78.942657
3284.270922	88.498601
3285.367670	77.486014
3286.459860	74.656643
3287.556298	92.737762
3288.651114	102.130070
3289.745776	104.566434
3290.838816	100.316783
3291.931701	107.026573
3293.022967	110.430769
3294.115544	105.808392
3295.206502	105.167133
3296.295840	93.956643
3297.385025	77.788811
3298.475523	66.139161
3299.562936	75.105594
3300.650196	84.820979
3301.738769	84.820979
3302.827190	76.425175
3303.911063	76.273427
3304.999178	74.469930
3306.084211	75.390210
3307.167629	85.016783
3308.252359	86.660839
3309.335473	83.981119
3310.419900	78.907692
3311.501248	94.622378
3312.583908	115.591608
3313.664954	117.315385
3314.745849	117.119580
3315.825130	115.190210
3316.904261	118.880420
3317.984704	116.534965
3319.062072	111.062937
3320.140752	113.102098
3321.217820	111.102797
3322.294739	114.903497
3323.370046	119.534266
3324.445204	126.876923
3325.521673	120.560839
3326.595072	107.083217
3327.668322	95.341259
3328.742882	97.118881
3329.815834	98.143357
3330.887177	102.553147
3331.959831	101.920280
3333.029419	108.831469
3334.100317	106.555944
3335.169608	104.375524
3336.240210	110.008392
3337.309205	111.585315
3338.376594	102.815385
3339.442378	86.718881
3340.512388	69.758741
3341.579335	72.267133
3342.643220	78.985315
3343.709873	77.886014
3344.774921	76.441259
3345.838366	69.531469
3346.901665	76.525175
3347.964817	77.526573
3349.027823	80.739161
3350.090683	85.771329
3351.151941	89.020280
3352.210142	84.213986
3353.272563	78.293007
3354.331929	94.006294
3355.391149	106.048252
3356.451679	107.401399
3357.507699	111.474825
3358.566483	113.365734
3359.620760	109.478322
3360.677801	94.583217
3361.733243	74.011189
3362.789995	60.748252
3363.845148	53.444056
3364.898704	48.951049
3365.950664	41.861538
3367.005385	55.019580
3368.057057	72.209790
3369.108586	84.255245
3370.161423	109.491608
3371.211213	118.692308
3372.262312	121.641958
3373.310365	131.735664
3374.361177	124.206294
3375.408945	115.544755
3376.456570	106.596503
3377.504052	95.102098
3378.549942	82.765035
3379.597140	73.606294
3380.641296	69.862238
3381.688210	65.998601
3382.733532	64.162937
3383.775813	55.395105
3384.817954	61.890909
3385.861402	67.963636
3386.904709	85.317483
3387.946427	94.320280
3388.988003	98.106993
3390.029438	108.330769
3391.069285	116.522378
3392.107543	114.333566
3393.147109	115.977622
3394.186535	109.951049
3395.224373	96.737063
3396.260624	94.727972
3397.296736	87.303497
3398.334155	78.602098
3399.368541	82.693706
3400.404234	69.838462
3401.439788	66.970629
3402.472311	74.711888
3403.507587	85.521678
3404.539832	82.184615
3405.571939	88.491608
3406.602462	94.748252
3407.634292	105.144755
3408.665984	108.506993
3409.694648	100.986014
3410.723175	101.696503
3411.753008	98.337063
3412.782704	100.708392
3413.809374	104.251748
3414.837351	104.193007
3415.862303	115.935664
3416.890005	118.880420
3417.914684	121.682517
3418.940669	121.437063
3419.965074	108.793706
3420.989343	103.933566
3422.012033	100.593007
3423.034587	102.751748
3424.058447	98.819580
3425.079287	96.353846
3426.099991	90.942458
3427.122002	86.277597
3428.140994	83.262937
3429.159850	82.802148
3430.180013	85.798901
3431.197159	93.156868
