-118.059454	-6.710714
-115.389854	-6.462637
-112.723189	-5.830420
-110.057276	-4.934865
-107.394295	-3.896778
-104.729885	-2.836963
-102.068405	-1.876224
-99.405496	-1.979720
-96.747693	-3.469231
-94.088461	-1.381119
-91.429977	-0.046154
-88.774417	-1.244056
-86.117429	-2.209091
-83.465539	-0.773427
-80.812218	-1.671329
-78.161818	-3.055944
-75.509988	-0.171329
-72.863249	0.839161
-70.215081	3.089510
-67.567655	4.001399
-64.923143	4.942657
-62.277203	6.436364
-59.636344	7.487413
-56.994056	5.801399
-54.354677	3.041259
-51.713868	2.925874
-49.073800	1.724476
-46.438804	1.942657
-43.802380	3.336364
-41.168858	3.616084
-38.533908	3.130769
-35.904023	4.296503
-33.270546	5.097203
-30.642131	6.732867
-28.014450	7.376224
-25.385340	7.200000
-22.761287	-0.831469
-20.133645	-15.893007
-17.511056	-49.600699
-14.889199	-85.601399
-12.268072	42.123077
-9.647675	307.906993
-7.030167	526.083916
-4.411230	683.731469
-1.795178	773.123776
0.820145	795.980420
3.434741	753.276224
6.046454	643.118182
8.659596	472.130070
11.267704	255.748951
13.879394	25.722378
16.486053	-129.265035
19.094140	-93.557343
21.701503	-8.894406
24.303841	-0.760839
26.909757	1.425874
29.510651	-1.686713
32.112973	-5.016084
34.710278	-5.329371
37.311158	-7.644056
39.907023	-6.866434
42.504317	-7.922378
45.100891	-8.277622
47.692456	-6.097902
50.285449	-4.116084
52.875581	-3.439161
55.467141	0.219580
58.055841	-0.763636
60.645968	-1.006294
63.231096	0.962238
65.817652	3.386014
68.403494	3.286713
70.986482	3.303497
73.570896	2.564336
76.148182	3.099301
78.729034	2.060140
81.307037	0.856643
83.884330	1.236364
86.463049	1.779720
89.036786	-0.934965
91.611951	1.015385
94.184272	4.860839
96.755885	5.124476
99.324658	6.448951
101.894858	7.738462
104.462220	5.856643
107.031007	4.038462
109.596958	0.865035
112.160074	-1.591608
114.726746	-1.860140
117.284197	-3.211888
119.847333	-3.170629
122.405509	-2.723077
124.967240	0.859441
127.524014	3.366434
130.082215	6.279021
132.635462	9.732867
135.188012	11.416783
137.744112	13.138462
140.295264	14.800000
142.845719	16.504196
145.395476	18.970629
147.942414	21.467133
150.488657	23.124476
153.036325	22.027273
155.583297	23.137063
158.125334	23.197902
160.666677	22.894406
163.207327	22.639860
165.749403	20.781119
168.288667	19.793706
170.825123	19.181119
173.360887	18.886713
175.898077	20.400000
178.434576	21.668531
180.968269	21.646154
183.499158	20.162238
186.029360	20.500000
188.560986	20.242657
191.089811	18.588811
193.615837	17.788112
196.141177	17.481119
198.667942	19.056643
201.191911	19.321678
203.715195	19.854545
206.237794	23.458042
208.757600	22.746154
211.276723	22.488112
213.795163	21.343357
216.315027	23.373427
218.827890	24.969930
221.344284	22.945455
223.859996	22.282517
226.370818	22.247552
228.883065	22.165734
231.392530	19.520979
233.901316	20.536364
236.409423	22.317483
238.918955	21.539860
241.423606	23.585315
243.927581	25.919580
246.432980	28.941259
248.933504	30.206993
251.437552	28.500000
253.934628	28.168531
256.435228	26.582517
258.933056	24.166434
261.430211	19.991608
263.926693	18.881818
266.418312	17.872727
268.913451	18.935664
271.405823	19.049650
273.897525	20.353147
276.386464	19.413287
278.876827	23.019580
281.364427	27.379720
283.849268	28.417483
286.337624	29.002098
288.819040	28.954545
291.303970	28.241259
293.784055	27.006294
296.267652	25.700699
298.746406	24.620280
301.226584	23.953846
303.704009	24.095804
306.180771	23.285315
308.656870	26.586713
311.130220	28.045455
313.602908	27.143357
316.074935	29.940559
318.546301	31.271329
321.014922	33.930070
323.482885	34.009790
325.952269	32.822378
328.416831	32.842657
330.884897	32.862238
333.348143	29.644056
335.810731	29.179021
338.272663	25.987413
340.733938	23.273427
343.192479	20.746853
345.652442	19.334266
348.109672	20.755245
350.566248	22.841259
353.022170	25.605594
355.475362	27.793706
357.929977	30.269231
360.379790	31.723776
362.833099	31.011888
365.281610	35.725874
367.729469	33.072028
370.178751	32.083916
372.623239	30.853846
375.069149	27.326573
377.514409	27.925175
379.956951	27.464336
382.398845	27.141958
384.840092	26.704196
387.278623	25.369930
389.718576	22.727972
392.155815	22.442657
394.590342	27.104895
397.028357	28.363636
399.461595	30.721678
401.896254	33.343357
404.326141	32.062238
406.759513	33.507692
409.188115	31.326573
411.616075	29.776224
414.045457	29.106993
416.470073	28.018182
418.896111	24.832867
421.321508	24.349650
423.746265	24.760140
426.166264	27.011888
428.587684	26.432168
431.006407	26.659441
433.426551	26.967133
435.844000	28.418182
438.262869	26.095105
440.679045	28.734965
443.090473	30.468531
445.505379	31.025175
447.917594	28.066434
450.329175	28.795105
452.740122	29.926573
455.148383	31.600699
457.556011	29.390909
459.963007	27.545455
462.369372	26.920280
464.773054	24.484615
467.176106	24.706993
469.578528	25.616084
471.980320	23.375524
474.379435	21.416084
476.779969	21.677622
479.179874	24.923077
481.575056	29.593007
483.973705	32.488112
486.367634	33.372028
488.760937	33.594406
491.153614	34.322378
493.545666	31.979021
495.939136	33.121678
498.327894	30.043357
500.713986	28.481119
503.101498	25.500000
505.488387	23.530769
507.872612	22.000000
510.258255	23.159441
512.641237	23.051049
515.021558	21.929371
517.403298	21.029371
519.782379	20.533566
522.162879	16.595105
524.540721	18.451748
526.915908	16.713287
529.290477	17.145455
531.666464	14.076224
534.039799	13.225874
536.414551	14.610490
538.784618	14.398601
541.154069	15.514685
543.524938	16.174126
545.891127	16.036364
548.258734	18.573427
550.623695	18.501399
552.988043	18.955245
555.351778	16.034266
557.716931	15.887413
560.077412	17.979021
562.439311	20.127972
564.798569	19.181818
567.155190	17.098601
569.515255	15.953846
571.868629	12.188811
574.225448	10.990210
576.579632	11.349650
578.933208	9.120979
581.286175	7.645455
583.636510	6.981119
585.988263	9.049650
588.333339	13.976923
590.683879	13.929371
593.027745	15.080420
595.377073	16.374825
597.721752	18.432168
600.063807	16.525874
602.407279	17.608392
604.748128	16.041958
607.088375	15.339161
609.426001	13.601399
611.767062	11.626573
614.103485	12.457343
616.441325	13.972727
618.776548	12.230070
621.109155	15.175524
623.443178	12.398601
625.774587	14.694406
628.105398	14.356643
630.435612	14.176923
632.765227	11.823077
635.090220	9.600699
637.420653	8.885315
639.746466	8.314685
642.069671	9.359441
644.394293	9.685315
646.716309	7.972727
649.037731	8.818881
651.356551	6.438462
653.676786	9.932867
655.996428	12.738462
658.313469	11.109790
660.629918	10.198601
662.943769	8.697902
665.259036	10.634266
667.571706	7.186713
669.885791	7.651049
672.195276	6.305594
674.506177	4.343357
676.814485	4.991608
679.122205	4.487413
681.431339	8.397902
683.735881	10.984615
686.039837	12.743357
688.343207	13.835664
690.647991	13.793706
692.948189	14.199301
695.249801	13.134266
697.550829	14.679021
699.847274	12.788112
702.145135	7.797902
704.442412	7.357343
706.739106	7.025874
709.031224	9.527273
711.326753	9.867133
713.617708	10.332867
715.910078	11.566434
718.199873	11.564336
720.489087	11.386713
722.777722	13.097902
725.063784	14.053147
727.351261	13.052448
729.636166	9.805594
731.920494	12.751049
734.202253	13.060140
736.485426	12.931469
738.768022	13.413986
741.046062	13.301399
743.325517	13.820979
745.604395	12.635664
747.882699	11.420979
750.156453	9.837762
752.431620	7.720979
754.706214	5.917483
756.978249	4.895105
759.251697	5.691608
761.522587	5.505594
763.790921	6.392308
766.060668	6.892308
768.327861	8.192308
770.594483	10.713986
772.860535	14.102098
775.124036	15.402098
777.388950	15.833566
779.653294	16.413986
781.913109	17.009790
784.174336	15.789510
786.434996	15.342657
788.693110	14.753846
790.948679	13.188112
793.207639	11.398601
795.460100	11.818881
797.717927	12.839860
799.971236	12.772028
802.222005	12.655944
804.474186	11.772028
806.723828	11.197203
808.974883	10.297902
811.221426	9.986713
813.469381	9.590909
815.714802	9.122378
817.961634	8.139860
820.207905	7.552448
822.449671	9.683916
824.694821	13.713287
826.933498	15.319580
829.175557	16.419580
831.413118	17.315385
833.652091	19.590909
835.888537	21.394406
838.126394	22.117483
840.361726	18.767832
842.594535	15.693706
844.828755	16.544755
847.060452	16.055944
849.291595	16.156643
851.522183	15.453846
853.752217	14.453846
855.981697	12.005594
858.206695	10.893706
860.435068	12.115385
862.658961	9.695804
864.884266	3.955944
867.105095	-1.286014
869.329296	-2.904196
871.549024	0.045455
873.770162	2.570629
875.990750	4.016084
878.208829	4.643357
880.428317	7.799301
882.643339	10.384615
884.857814	11.986014
887.071740	12.817483
889.285120	11.754545
891.497952	6.636364
893.710238	6.719580
895.920021	8.088112
898.129259	8.871329
900.337952	14.332867
902.544146	14.155944
904.751749	13.672727
906.956854	13.997902
909.161416	15.113287
911.363483	9.880420
913.566959	8.568531
915.767941	8.728671
917.968381	4.465734
920.170230	4.009790
922.365688	4.737762
924.564505	5.304895
926.758883	8.776923
928.956619	10.228671
931.149919	8.905594
933.344628	9.644755
935.536851	12.711888
937.728535	10.437063
939.919682	13.562238
942.108346	11.878322
944.296474	8.730769
946.482121	8.302098
948.671120	8.621678
950.855696	8.585315
953.039737	10.766434
955.227128	12.347552
957.406215	12.009091
959.588653	14.295804
961.770557	17.092308
963.949986	18.145455
966.126943	17.539161
968.305308	14.279021
970.485080	12.346154
972.658503	13.637762
974.835272	14.133566
977.007634	13.920280
979.181404	19.006294
981.350770	20.024476
983.523480	21.913986
985.693725	23.152448
987.863441	26.313287
990.032628	27.861538
992.197418	28.352448
994.365549	24.123077
996.529286	22.202098
998.694429	20.780420
1000.857113	20.055944
1003.019272	16.029371
1005.178974	19.104895
1007.338151	18.442657
1009.498735	18.760140
1011.656865	19.890210
1013.814470	19.620979
1015.971552	21.653846
1018.128110	24.272028
1020.280289	19.157343
1022.433875	20.408392
1024.586939	19.968531
1026.737554	18.680420
1028.889576	16.220979
1031.037224	23.495804
1033.188204	21.700000
1035.334813	18.786713
1037.480903	14.813287
1039.626475	7.804196
1041.773452	11.337063
1043.914140	9.632867
1046.058158	7.465734
1048.199735	13.483916
1050.340796	18.648252
1052.483261	18.574825
1054.619447	19.195105
1056.758958	23.479021
1058.894115	19.712587
1061.032596	17.751748
1063.166723	15.261538
1065.300337	14.065734
1067.435356	17.817483
1069.566025	18.291608
1071.698099	21.296503
1073.827744	23.177622
1075.956877	25.125874
1078.085498	15.766434
1080.213608	10.955245
1082.339292	8.683217
1084.464466	5.928671
1086.591044	4.793706
1088.713284	5.783916
1090.836929	9.011189
1092.956239	10.994406
1095.080779	16.402797
1097.199073	18.335664
1099.318772	16.762238
1101.436052	17.666434
1103.552826	12.416783
1105.669093	11.723776
1107.782944	9.697902
1109.898200	5.908392
1112.009132	6.879021
1114.123377	9.605594
1116.233301	9.631469
1118.344629	11.310490
1120.455452	10.372727
1122.561959	13.642657
1124.671776	13.815385
1126.777278	10.955245
1128.884183	13.614685
1130.984873	10.065734
1133.090775	10.431469
1135.192368	10.779021
1137.295364	16.530070
1139.397859	20.927972
1141.494147	18.269231
1143.595643	18.027972
1145.692835	16.027972
1147.789530	18.417483
1149.885726	17.500699
1151.981425	14.375524
1154.076625	14.950350
1156.169429	9.817483
1158.263636	10.391608
1160.351651	10.613986
1162.444864	11.482517
1164.531889	12.358741
1166.622213	7.786713
1168.708250	7.478322
1170.797584	9.647552
1172.880737	11.027273
1174.965292	15.039161
1177.051249	13.752448
1179.132924	13.294406
1181.216001	11.642657
1183.296692	11.166434
1185.376891	8.788811
1187.456599	10.045455
1189.535816	8.226573
1191.612651	5.094406
1193.687105	6.027972
1195.764850	6.590210
1197.838326	6.204895
1199.913202	7.643357
1201.983811	8.397902
1204.055821	11.188112
1206.125456	12.228671
1208.196491	11.484615
1210.267038	11.972727
1212.333324	13.028671
1214.401011	12.211189
1216.466326	11.858042
1218.533041	12.618182
1220.595500	12.503497
1222.661244	9.420979
1224.722734	10.562238
1226.785625	10.940559
1228.846148	7.565035
1230.906187	5.772727
1232.965744	3.510490
1235.022935	2.766434
1237.079645	1.211888
1239.133991	6.119580
1241.191619	8.275524
1243.246884	12.213986
1245.297908	12.774825
1247.350332	14.161538
1249.402276	17.060140
1251.451862	16.126573
1253.500969	12.574825
1255.549598	11.567832
1257.597748	11.099301
1259.645419	9.241259
1261.688860	11.808392
1263.735577	13.746154
1265.779940	13.658741
1267.823827	15.452448
1269.865362	13.492308
1271.904548	13.416084
1273.947007	12.447552
1275.985243	10.137762
1278.024878	9.179720
1280.064038	9.019580
1282.098979	8.453147
1284.135319	7.504196
1286.169315	11.093706
1288.204708	9.185315
1290.235889	6.237063
1292.268467	5.718182
1294.300574	2.798601
1296.330340	0.337762
1298.361504	-2.376923
1300.388460	-0.039161
1302.416814	2.792308
1304.440963	7.245455
1306.468378	11.752448
1308.491590	15.344755
1310.516200	18.281818
1312.538476	18.161538
1314.562149	16.058042
1316.583489	18.585315
1318.604361	18.037063
1320.624766	17.030070
1322.640978	15.359441
1324.658587	16.155245
1326.673868	15.265035
1328.692408	18.745455
1330.706759	18.232168
1332.718784	16.076224
1334.734066	15.086713
1336.745163	13.726573
1338.757657	11.108392
1340.765968	10.127273
1342.777534	7.405594
1344.783062	8.658741
1346.791845	7.367832
1348.796450	6.404196
1350.804309	8.711888
1352.811706	9.993007
1354.813072	11.359441
1356.815834	13.244056
1358.818137	14.556643
1360.819980	12.737063
1362.821363	11.619580
1364.820433	9.051748
1366.819044	7.291608
1368.817197	5.839860
1370.814891	3.921678
1372.808423	7.476923
1374.803351	8.511888
1376.797821	9.241958
1378.791835	11.850350
1380.783542	12.080420
1382.774794	14.236364
1384.763740	13.552448
1386.754081	13.709790
1388.743967	9.872028
1390.731549	10.528671
1392.718678	8.986014
1394.703505	9.913287
1396.689727	12.742657
1398.673649	10.359441
1400.657118	10.543357
1402.640134	11.075524
1404.620853	11.885315
1406.602966	11.256643
1408.582783	9.755245
1410.562148	7.830070
1412.537375	8.361538
1414.515840	9.951049
1416.492012	10.498601
1418.467735	10.568531
1420.443008	12.026573
1422.415990	14.085315
1424.388524	15.472028
1426.360610	15.551049
1428.332249	18.562238
1430.299759	18.744056
1432.272343	18.353147
1434.237122	16.050350
1436.206972	15.700000
1438.172699	11.213287
1440.139818	10.731469
1442.104654	7.160839
1444.065370	7.322378
1446.031154	5.945455
1447.990983	6.149650
1449.952206	6.443357
1451.914821	11.752448
1453.873321	9.217483
1455.831378	9.387413
1457.788994	9.222378
1459.746167	9.134266
1461.701065	9.172028
1463.657356	10.562238
1465.611372	8.851049
1467.564947	9.622378
1469.516250	8.932867
1471.468946	9.220979
1473.419369	10.597902
1475.369354	13.609091
1477.318900	11.282517
1479.266177	12.971329
1481.211186	12.054545
1483.157588	11.317483
1485.103552	13.396503
1487.049079	13.622378
1488.992340	9.923077
1490.935166	6.502098
1492.875728	3.916783
1494.817681	1.044755
1496.757372	5.602098
1498.696629	9.093706
1500.635450	9.377622
1502.572012	11.279021
1504.509965	11.783217
1506.445659	15.118881
1508.380920	17.652448
1510.313925	19.265734
1512.246497	13.955245
1514.178637	11.472028
1516.110345	12.385315
1518.039799	13.741958
1519.970644	19.587413
1521.901057	20.882517
1523.827398	19.081818
1525.755130	18.836364
1527.680611	19.420979
1529.605663	20.781818
1531.530286	18.411189
1533.454480	18.113986
1535.376426	13.811888
1537.299763	13.613986
1539.220853	14.167133
1541.139700	15.603497
1543.059935	16.008392
1544.977928	14.464336
1546.895494	13.987413
1548.810818	10.780420
1550.727532	14.302098
1552.640191	14.377622
1554.556054	14.836364
1556.469677	19.455944
1558.381062	23.581119
1560.293837	23.319580
1562.202562	25.122378
1564.112676	28.933566
1566.022367	31.465734
1567.931635	35.827972
1569.838669	44.910490
1571.743470	50.852448
1573.649660	68.699301
1575.553618	76.327972
1577.457155	82.992308
1579.360272	89.381818
1581.261159	86.274126
1583.163435	79.662937
1585.063483	71.469930
1586.964918	63.242657
1588.862320	48.926573
1590.759303	38.018182
1592.655868	31.686713
1594.553821	25.346853
1596.445939	25.755245
1598.341250	20.032168
1600.236144	18.400699
1602.128816	17.154545
1604.021071	14.809091
1605.911107	18.074126
1607.800727	17.713986
1609.689932	20.262238
1611.578722	16.704196
1613.465294	17.030070
1615.353254	17.448951
1617.237197	16.893007
1619.122527	16.323077
1621.007444	14.418182
1622.890147	15.530769
1624.774237	14.529371
1626.654315	14.149650
1628.535781	12.572727
1630.415036	10.445455
1632.295677	9.830769
1634.170514	7.800699
1636.050332	7.723776
1637.926146	9.731469
1639.801549	11.827972
1641.678338	11.263636
1643.549331	11.802098
1645.423505	15.355944
1647.293680	19.490210
1649.167037	23.643357
1651.038190	22.503497
1652.907141	23.252448
1654.777477	21.930070
1656.643821	19.242657
1658.511550	18.904895
1660.377080	17.996503
1662.243996	15.655944
1664.106923	10.531469
1665.971235	8.816084
1667.833351	9.367832
1669.695062	10.651748
1671.558159	7.116084
1673.419060	5.840559
1675.277769	1.117483
1677.136074	1.665734
1678.995764	2.198601
1680.849686	6.649650
1682.706782	8.215385
1684.563475	3.350350
1686.416191	4.683217
1688.272079	6.502098
1690.123993	9.127972
1691.975506	7.934965
1693.826618	5.177622
1695.677330	7.562238
1697.527641	4.658042
1699.375767	9.842657
1701.225278	11.797902
1703.069040	15.659441
1704.917751	16.847552
1706.760716	6.893706
1708.606848	5.918881
1710.449017	-1.876923
1712.294352	-0.972727
1714.133946	-9.096503
1715.974924	-7.847552
1717.817285	-1.643357
1719.655690	0.587413
1721.495478	6.541958
1723.333091	11.524476
1725.170308	16.011888
1727.005352	20.520280
1728.841779	16.780420
1730.676034	15.193007
1732.509894	10.229371
1734.343360	10.755245
1736.172881	4.985315
1738.005560	8.787413
1739.834295	12.122378
1741.666187	6.739161
1743.494137	5.099301
1745.321696	4.720979
1747.148862	9.245455
1748.975637	14.372727
1750.802020	12.681119
1752.624467	13.304196
1754.450069	11.275524
1756.271736	13.247552
1758.094785	14.637063
1759.915672	13.602797
1761.736171	11.757343
1763.558051	7.069930
1765.374231	8.242657
1767.193563	12.144755
1769.008968	13.289510
1770.827523	13.515385
1772.642153	10.092308
1774.456396	7.606993
1776.270253	5.870629
1778.083723	9.647552
1779.895040	8.316783
1781.707737	5.829371
1783.520049	7.191608
1785.328443	7.341259
1787.138217	10.135664
1788.944077	4.948951
1790.753082	2.676224
1792.558174	9.334266
1794.364647	7.132168
1796.170736	3.145455
1797.972914	1.833566
1799.778237	5.288112
1801.579651	4.553147
1803.382445	4.590909
1805.181333	8.571329
1806.981602	7.219580
1808.781489	2.562238
1810.579234	-1.892308
1812.376599	2.960140
1814.173584	8.721678
1815.970188	6.692308
1817.764653	7.479720
1819.560497	9.385315
1821.350686	10.810490
1823.145772	11.040559
1824.935206	14.553147
1826.727776	18.373427
1828.518211	12.673427
1830.306512	8.837063
1832.097948	8.458741
1833.883738	6.746853
1835.670908	5.350350
1837.455946	4.257343
1839.244118	5.279021
1841.028404	1.922378
1842.810560	0.277622
1844.594096	6.978322
1846.375503	14.202098
1848.158289	16.360140
1849.937194	12.286014
1851.717479	11.469231
1853.495637	9.688112
1855.275174	10.229371
1857.052586	11.834266
1858.827874	12.802098
1860.604540	13.058042
1862.379084	11.032168
1864.155006	12.166434
1865.925307	13.560140
1867.698736	11.407692
1869.470045	7.916084
1871.240983	6.439161
1873.013299	1.976923
1874.780001	3.313287
1876.549829	6.247552
1878.315793	12.165734
1880.084880	16.295105
1881.850106	16.941958
1883.614964	17.359441
1885.381199	16.812587
1887.143575	17.240559
1888.905584	13.300699
1890.667225	13.741259
1892.428500	11.059441
1894.189407	5.300000
1895.949948	6.871329
1897.708379	8.175524
1899.466444	10.898601
1901.222402	13.279021
1902.979736	11.684615
1904.736705	16.330070
1906.491567	18.693007
1908.244325	23.002797
1909.996718	18.726573
1911.750488	17.146853
1913.502154	13.138462
1915.251718	12.170629
1917.002657	12.323077
1918.753234	9.678322
1920.499971	9.600699
1922.248085	9.716783
1923.994099	11.009790
1925.741488	16.842657
1927.486780	18.636364
1929.229974	22.520280
1930.974543	18.824476
1932.717017	14.694406
1934.459130	12.991608
1936.200883	9.691608
1937.942276	6.239161
1939.681576	3.272727
1941.420517	4.027972
1943.159099	2.552448
1944.895590	2.275524
1946.631723	2.688112
1948.369230	5.080420
1950.102915	8.619580
1951.837975	10.609790
1953.570946	8.078322
1955.303561	10.626573
1957.035820	12.353147
1958.767722	12.694406
1960.497538	13.536364
1962.225269	17.116084
1963.954375	18.241958
1965.683126	15.025874
1967.409793	15.065734
1969.136106	15.640559
1970.863792	16.722378
1972.585942	14.888112
1974.311193	10.653846
1976.032637	8.890210
1977.757182	6.343357
1979.479646	3.851748
1981.198308	3.951748
1982.920068	7.992308
1984.638026	11.223077
1986.357357	9.271329
1988.072889	11.340559
1989.793241	13.723776
1991.509795	13.662937
1993.222552	18.463636
1994.938405	21.355245
1996.652186	21.699301
1998.365617	19.286014
2000.076977	19.104895
2001.789709	20.502797
2003.498651	19.930070
2005.210685	19.416783
2006.917211	17.276923
2008.626828	16.745455
2010.334379	14.724476
2012.041581	13.463636
2013.746718	18.137063
2015.451509	15.790909
2017.157671	14.755944
2018.860051	12.844755
2020.563802	12.202797
2022.265491	13.192308
2023.966835	12.941958
2025.667833	15.279720
2027.366770	13.420979
2029.067079	8.299301
2030.763613	4.423776
2032.461518	3.095804
2034.157364	2.486713
2035.856296	-1.337063
2037.549742	-1.475524
2039.244559	0.470629
2040.939034	-1.895804
2042.629740	-0.966434
2044.323530	2.095804
2046.013553	6.706294
2047.704947	8.106294
2049.394288	8.733566
2051.084999	12.083916
2052.771947	15.743357
2054.458556	16.758042
2056.146534	13.406993
2057.830753	14.213287
2059.516343	14.286713
2061.201593	12.065035
2062.884794	11.669930
2064.569366	12.855245
2066.248475	17.420280
2067.932369	19.251748
2069.610802	21.018881
2071.292313	23.033566
2072.970072	22.293706
2074.647495	19.276224
2076.326287	14.628671
2078.003037	12.221678
2079.677745	10.360839
2081.353822	8.587413
2083.027859	3.968531
2084.701560	1.076923
2086.374926	4.460140
2088.046253	7.580420
2089.717246	11.004895
2091.387905	11.332168
2093.058230	10.390210
2094.728221	10.510490
2096.396176	11.250350
2098.063798	11.860839
2099.729385	10.162937
2101.396341	8.649650
2103.061264	5.931469
2104.725855	6.386014
2106.388414	11.268531
2108.052341	13.852448
2109.714237	16.879720
2111.375803	15.099301
2113.037037	15.069231
2114.696243	15.332168
2116.355118	15.969930
2118.013664	15.348951
2119.671880	14.981818
2121.326372	15.257343
2122.983929	15.275524
2124.641157	16.648252
2126.294663	15.515385
2127.949537	14.536364
2129.600692	14.886713
2131.254910	10.244056
2132.905411	7.554545
2134.557278	3.971329
2136.203737	4.972727
2137.854951	6.772727
2139.502451	8.695804
2141.151318	7.344755
2142.798166	10.263636
2144.444689	10.079021
2146.090886	8.478322
2147.733375	8.637762
2149.378922	6.798601
2151.020762	3.688811
2152.665659	0.665035
2154.306850	-1.495105
2155.947719	1.294406
2157.588263	3.169930
2159.226795	5.411888
2160.866693	6.479021
2162.502891	10.369930
2164.140455	11.919580
2165.777697	12.410490
2167.412929	12.393007
2169.047840	11.027972
2170.682428	10.691608
2172.316696	7.467133
2173.947270	6.406993
2175.580896	7.415385
2177.210830	7.861538
2178.842129	7.109091
2180.471423	10.476923
2182.100398	13.853846
2183.729053	13.704196
2185.357389	14.574126
2186.983723	12.399301
2188.609738	9.913986
2190.233751	12.128671
2191.859130	7.574825
2193.482508	10.822378
2195.107251	10.269231
2196.728313	9.002797
2198.349058	9.344056
2199.971168	11.274126
2201.591280	9.025175
2203.209395	8.837063
2204.827195	12.013287
2206.444680	9.139860
2208.061849	11.096503
2209.678703	13.953846
2211.295241	11.620280
2212.909787	19.085315
2214.522340	17.909091
2216.136257	18.289510
2217.748183	18.897203
2219.361472	15.672028
2220.972771	12.904196
2222.582080	14.125874
2224.192753	14.030769
2225.801437	13.958741
2227.409808	14.217483
2229.016193	14.256643
2230.623941	14.660839
2232.229702	13.977622
2233.835152	12.790210
2235.438617	13.013287
2237.043445	10.441958
2238.646289	11.527972
2240.247150	11.439860
2241.849374	11.608392
2243.449616	15.472028
2245.051220	16.334965
2246.649171	16.157343
2248.248485	14.191608
2249.845819	11.099301
2251.442845	7.409091
2253.041233	4.705594
2254.635972	0.958741
2256.228734	-5.879021
2257.822859	-1.933566
2259.418345	-0.911189
2261.010186	0.780420
2262.601721	5.669231
2264.194618	11.239860
2265.782205	15.118881
2267.374488	14.744755
2268.961465	18.379720
2270.551469	18.352448
2272.136169	16.311888
2273.725563	18.646853
2275.309655	14.096503
2276.895107	15.620979
2278.478591	10.167832
2280.065100	7.437762
2281.647976	5.265035
2283.230549	4.381119
2284.812818	-0.872028
2286.391457	-3.037762
2287.973121	-2.437063
2289.551156	-2.946154
2291.132214	-0.076923
2292.709645	3.027972
2294.285113	5.465734
2295.863603	9.281818
2297.438469	10.728671
2299.013034	14.699301
2300.587299	14.271329
2302.161263	12.696503
2303.734926	13.172028
2305.308290	15.027972
2306.878035	18.400699
2308.447481	20.257343
2310.019945	18.524476
2311.587135	17.995804
2313.157343	20.505594
2314.723936	19.219580
2316.291889	20.862238
2317.857886	20.302797
2319.423586	20.013287
2320.988988	20.021678
2322.552437	21.093706
2324.117245	22.885315
2325.678445	24.300699
2327.242659	23.079021
2328.801611	16.480420
2330.363578	14.383916
2331.923593	10.187413
2333.483314	4.844755
2335.041085	4.810490
2336.598561	-0.615385
2338.155743	1.172028
2339.710977	1.793007
2341.265918	4.979720
2342.820564	8.096503
2344.374917	12.495105
2345.928977	15.495804
2347.482742	14.648252
2349.034564	16.706294
2350.584442	16.235664
2352.137328	14.995804
2353.684972	11.157343
2355.235623	3.151049
2356.782683	1.418881
2358.331101	0.060839
2359.879228	1.789510
2361.423766	1.905594
2362.969662	4.024476
2364.513620	4.383916
2366.058935	8.813287
2367.600665	11.869231
2369.143752	12.225175
2370.684903	13.408392
2372.225765	11.103497
2373.766338	6.574126
2375.306622	3.297203
2376.846617	0.930070
2378.383034	0.060140
2379.922452	0.930070
2381.458293	1.571329
2382.995490	2.160839
2384.529112	3.471329
2386.065734	6.652448
2387.600426	11.109790
2389.133188	17.337762
2390.665663	17.669231
2392.196210	15.462937
2393.729755	11.218881
2395.258089	11.716084
2396.787780	15.321678
2398.317184	18.029371
2399.846304	14.636364
2401.375139	12.738462
2402.898768	13.881818
2404.427033	18.287413
2405.950096	19.291608
2407.477792	18.730769
2408.998649	11.230070
2410.524139	4.967832
2412.046068	-0.281818
2413.569353	1.614685
2415.090716	4.925175
2416.610160	8.453147
2418.130959	10.629371
2419.649840	15.462937
2421.168438	19.302797
2422.685119	17.946154
2424.203154	19.587413
2425.720908	21.652448
2427.235111	16.634965
2428.749033	9.258042
2430.262675	9.827972
2431.777672	6.946154
2433.289120	8.907692
2434.801923	12.142657
2436.312812	14.851049
2437.823423	13.224476
2439.332122	13.154545
2440.843807	10.706294
2442.351949	17.152448
2443.859813	22.267832
2445.367399	20.216783
2446.871444	12.725874
2448.378474	9.588112
2449.883597	3.167133
2451.388441	1.923776
2452.891379	0.709790
2454.394041	0.392308
2455.896426	2.281818
2457.396906	3.751049
2458.898739	2.184615
2460.398667	8.800699
2461.898320	11.034266
2463.397698	13.691608
2464.895173	10.348951
2466.390746	9.976923
2467.889299	13.159441
2469.384324	13.338462
2470.880701	14.217483
2472.373552	16.221678
2473.867756	16.774126
2475.361686	14.279021
2476.852092	11.418182
2478.345476	15.709091
2479.836962	16.914685
2481.326551	17.609790
2482.815868	12.628671
2484.303289	14.590909
2485.793686	13.886713
2487.280565	11.699301
2488.768795	11.518881
2490.253508	8.037063
2491.737952	8.066434
2493.223746	10.804196
2494.707649	10.693007
2496.192902	13.249650
2497.673022	12.260140
2499.156115	11.377622
2500.637317	12.697203
2502.118250	15.769930
2503.597294	17.215385
2505.076069	17.741958
2506.554576	13.551748
2508.032815	15.202797
2509.510785	17.953147
2510.985250	14.214685
2512.462685	9.676224
2513.936616	8.546853
2515.411897	6.021678
2516.886911	5.157343
2518.358425	4.458741
2519.831288	8.519580
2521.302269	12.558741
2522.774600	9.186713
2524.241817	5.453846
2525.712001	10.232168
2527.180304	5.813986
2528.648342	0.255944
2530.116115	0.209790
2531.583623	1.810490
2533.050866	-0.697902
2534.514617	-0.755944
2535.979718	-0.166434
2537.442942	6.916084
2538.907516	9.516084
2540.368600	7.630769
2541.831034	6.054545
2543.293205	8.295105
2544.751890	7.890210
2546.215147	12.361538
2547.673307	14.542657
2549.132816	16.573427
2550.587231	9.331469
2552.046217	8.152448
2553.503331	8.160839
2554.958574	11.458042
2556.413555	11.288112
2557.866668	9.718182
2559.321129	7.162937
2560.773720	9.990909
2562.226052	14.925874
2563.676517	17.176923
2565.129937	15.060140
2566.578275	12.217483
2568.029569	8.312587
2569.478996	9.816783
2570.924951	10.677622
2572.373861	14.022378
2573.819301	14.793007
2575.266088	13.416783
2576.711013	11.025874
2578.155679	12.995105
2579.601693	14.732867
2581.044241	12.950350
2582.488136	13.216084
2583.928566	15.290909
2585.370343	15.514685
2586.810261	16.561538
2588.251526	14.672727
2589.689329	15.701399
2591.130082	12.653147
2592.565773	10.802098
2594.004413	8.900000
2595.441195	12.948252
2596.876122	11.395105
2598.313996	8.404895
2599.746813	9.043357
2601.180977	8.223776
2602.613287	6.067133
2604.046943	10.381119
2605.478746	3.808392
2606.910295	-1.919580
2608.341592	-0.872028
2609.771036	3.111189
2611.200228	1.237762
2612.627570	3.379021
2614.056257	3.960839
2615.484693	0.232168
2616.909681	2.395105
2618.336016	3.118881
2619.760502	10.780420
2621.186334	12.544755
2622.608722	6.493007
2624.032456	7.645455
2625.454343	15.495105
2626.875981	19.483916
2628.295773	14.619580
2629.716911	15.532867
2631.137799	15.082517
2632.555249	10.272028
2633.975638	10.704196
2635.392590	10.600699
2636.809293	14.495105
2638.225748	8.926573
2639.641955	9.853147
2641.057914	15.032867
2642.472032	17.500000
2643.885902	16.792308
2645.297934	14.300000
2646.711309	17.496503
2648.121255	15.979720
2649.534137	19.267133
2650.943590	17.009790
2652.352797	18.759441
2653.760168	18.681818
2655.170473	12.413287
2656.578943	18.818881
2657.985577	18.072028
2659.391966	14.708392
2660.796521	10.925874
2662.202420	11.391608
2663.606486	15.014685
2665.010307	15.476224
2666.413884	20.094406
2667.815630	18.874825
2669.218719	22.586014
2670.618390	17.772727
2672.019405	14.578322
2673.417004	16.544056
2674.817533	15.260839
2676.214646	12.261538
2677.613103	10.228671
2679.009733	10.997203
2680.406120	12.831469
2681.802265	14.560839
2683.196585	18.147552
2684.592246	21.564336
2685.984499	22.523776
2687.378094	18.897203
2688.769865	19.439161
2690.162979	17.120280
2691.554269	20.330769
2692.943736	19.425874
2694.332963	17.537063
2695.721951	16.686014
2697.112280	17.042657
2698.497626	19.225175
2699.885895	18.021678
2701.272344	18.612587
2702.658554	14.664336
2704.044525	12.283916
2705.427098	16.885315
2706.811013	18.435664
2708.194690	20.513986
2709.578128	24.561538
2710.958172	26.403497
2712.339556	27.421678
2713.719126	30.729371
2715.100036	31.393007
2716.479132	27.795105
2717.856414	29.727273
2719.235037	26.985315
2720.611847	24.383916
2721.988420	23.379021
2723.364758	18.851049
2724.739285	11.465734
2726.115152	12.525874
2727.487632	10.876923
2728.863028	10.706294
2730.233464	10.194406
2731.605241	11.070629
2732.976783	13.651748
2734.346517	24.424476
2735.717592	28.806993
2737.086858	29.037063
2738.455891	31.858042
2739.823118	26.467832
2741.190112	21.451748
2742.556872	20.921678
2743.923401	16.671329
2745.288124	13.132168
2746.652615	10.173427
2748.016875	6.990909
2749.380902	6.968531
2750.744698	10.509091
2752.105120	10.907692
2753.468452	14.081119
2754.826842	17.754545
2756.188142	11.924476
2757.546072	9.817483
2758.906910	7.846154
2760.265949	9.201399
2761.621619	9.113986
2762.980197	9.988811
2764.335408	6.132168
2765.690390	5.522378
2767.043576	3.968531
2768.399668	4.222378
2769.752395	8.227273
2771.104895	7.263636
2772.457166	9.032867
2773.810776	10.091608
2775.161024	10.669231
2776.509478	12.597203
2777.860838	12.273427
2779.208838	11.492308
2780.558176	14.286713
2781.905722	13.372727
2783.253042	12.295804
2784.600135	9.681818
2785.945437	9.653147
2787.290512	11.306993
2788.635362	15.887413
2789.979986	12.753846
2791.321258	6.504895
2792.663868	4.181818
2794.006252	7.199301
2795.348411	3.236364
2796.687221	6.060839
2798.028931	5.700000
2799.367293	2.440559
2800.706991	-0.328671
2802.044905	3.842657
2803.381034	3.897902
2804.716939	5.225175
2806.054182	3.915385
2807.389641	4.241958
2808.724877	7.027273
2810.058330	9.987413
2811.393120	4.878322
2812.724570	11.806294
2814.058915	10.781119
2815.388362	9.348951
2816.719146	9.372028
2818.049708	9.394406
2819.378491	4.818182
2820.708610	10.086014
2822.036951	11.140559
2823.365071	8.778322
2824.691413	2.117483
2826.019092	1.060839
2827.343437	-2.840559
2828.669119	0.541259
2829.993025	0.515385
2831.316712	3.362238
2832.641734	6.739860
2833.963426	9.997203
2835.284900	12.135664
2836.606155	15.267133
2837.927191	12.494406
2839.246454	7.846853
2840.567053	3.843357
2841.885881	6.352448
2843.204490	5.090210
2844.521328	4.079021
2845.837949	5.590909
2847.154353	5.106993
2848.468987	6.506993
2849.784957	6.091608
2851.097606	5.978322
2852.411590	4.147552
2853.725358	4.381119
2855.038909	6.041958
2856.350694	7.411888
2857.660712	9.865734
2858.972065	13.478322
2860.280103	15.125874
2861.589475	16.173427
2862.898633	14.897203
2864.207575	14.925874
2865.514753	15.699301
2866.820169	14.028671
2868.126919	12.024476
2869.431906	13.746853
2870.736680	8.182517
2872.039692	5.910490
2873.345585	7.023077
2874.646624	8.762937
2875.948997	5.605594
2877.249610	5.267133
2878.551557	4.230769
2879.853290	7.615385
2881.151720	8.041958
2882.451483	4.906294
2883.749489	8.582517
2885.047283	12.790210
2886.343321	9.821678
2887.640692	14.025175
2888.936307	15.546154
2890.231711	11.896503
2891.526904	7.469231
2892.818800	12.013986
2894.113572	11.208392
2895.405047	15.566434
2896.697855	16.267832
2897.990453	16.534266
2899.279757	18.446154
2900.570393	21.925175
2901.859278	20.926573
2903.149495	21.816783
2904.436421	17.836364
2905.724679	11.824476
2907.011188	8.416084
2908.297489	5.867133
2909.583581	2.703497
2910.867925	1.641958
2912.155140	-0.581119
2913.437529	1.437762
2914.721250	2.129371
2916.003225	9.786713
2917.284992	10.828671
2918.565015	13.074825
2919.847907	13.406294
2921.129054	17.725175
2922.406919	14.381818
2923.687653	11.607692
2924.965106	8.876224
2926.242353	5.446154
2927.517858	0.781818
2928.796231	1.660140
2930.069790	2.041259
2931.346216	4.834965
2932.620901	0.810490
2933.893845	-0.548252
2935.168121	4.718182
2936.440657	10.360839
2937.712988	10.893007
2938.982047	15.582517
2940.253971	16.711189
2941.524157	19.510490
2942.794139	19.553147
2944.063918	25.794406
2945.331961	27.527972
2946.598267	24.601399
2947.864372	17.172028
2949.131806	12.634965
2950.397506	12.523776
2951.663003	10.593007
2952.928298	6.549650
2954.190328	0.987413
2955.453688	-2.246853
2956.716847	-0.376923
2957.978274	1.004895
2959.241030	2.447552
2960.502054	2.944755
2961.761348	4.041259
2963.020442	5.732168
2964.279335	10.091608
2965.538028	12.666434
2966.796521	12.103497
2968.053285	11.364336
2969.309849	11.025874
2970.564686	8.397203
2971.820851	7.083217
2973.073762	2.630070
2974.328002	-3.761538
2975.582043	-3.339860
2976.834358	-4.343357
2978.086474	-0.323776
2979.336866	2.822378
2980.590113	3.234965
2981.838583	4.161538
2983.089908	6.346154
2984.337983	6.673427
2985.585862	4.101399
2986.833543	5.786713
2988.081027	8.960839
2989.326790	10.661538
2990.572357	13.375524
2991.819251	12.836364
2993.062901	20.804196
2994.307879	23.372727
2995.549613	22.676923
2996.794199	21.394406
2998.037066	17.801399
2999.276692	13.879720
3000.519168	8.930070
3001.758404	7.719580
3002.998968	9.660839
3004.237816	6.931469
3005.476468	5.444755
3006.713406	5.432168
3007.951670	7.020280
3009.188219	7.293706
3010.424575	6.007692
3011.660737	7.059441
3012.895185	7.001399
3014.129441	6.641958
3015.363503	2.472028
3016.595853	5.423077
3017.826491	5.099301
3019.059975	6.639161
3020.291747	9.769231
3021.521809	13.135664
3022.751679	14.193007
3023.979839	15.579021
3025.209325	15.940559
3026.437102	15.602797
3027.664688	12.608392
3028.893601	11.764336
3030.117771	7.769930
3031.344784	8.297902
3032.568573	6.259441
3033.793689	8.383916
3035.017098	9.483217
3036.240317	11.092308
3037.461831	14.929371
3038.686186	16.523077
3039.905806	16.651748
3041.126752	13.775524
3042.347509	10.489510
3043.566562	12.079021
3044.786940	9.682517
3046.004102	10.530769
3047.222590	12.113986
3048.439375	10.851748
3049.655973	12.103497
3050.872382	12.780420
3052.085579	19.695804
3053.301613	21.605594
3054.514435	20.520280
3055.730094	18.972028
3056.941030	15.789510
3058.153291	13.104895
3059.365366	11.995804
3060.577253	14.141259
3061.787444	12.757343
3062.997448	9.716783
3064.207266	7.583217
3065.415388	3.479021
3066.623325	2.794406
3067.829566	3.339860
3069.037132	2.232168
3070.243003	0.382517
3071.448690	-1.497203
3072.654191	1.888811
3073.857999	10.616783
3075.063131	13.917483
3076.266570	14.796503
3077.468318	15.595105
3078.669881	15.529371
3079.871261	15.200000
3081.072457	16.921678
3082.271963	18.825874
3083.471286	15.876224
3084.671932	12.260140
3085.870888	10.867133
3087.066650	10.578322
3088.265241	11.044056
3089.460638	6.256643
3090.657358	1.991608
3091.850886	4.088112
3093.047242	5.951748
3094.241912	8.858741
3095.433391	11.663636
3096.629201	11.463636
3097.820318	12.017483
3099.012757	11.034266
3100.202009	10.925175
3101.394086	10.691608
3102.584480	10.187413
3103.771688	5.720979
3104.960219	4.390909
3106.150071	6.337762
3107.336740	5.081818
3108.523228	5.843357
3109.709538	6.992308
3110.897169	7.051748
3112.081618	8.372727
3113.264388	9.061538
3114.449980	12.530769
3115.633893	14.420280
3116.816127	10.684615
3117.998182	5.727972
3119.180059	2.493706
3120.361758	0.949650
3121.541780	-2.616084
3122.720125	-0.742657
3123.901290	1.884615
3125.079280	2.976224
3126.257094	6.342657
3127.434730	12.784615
3128.610691	15.855245
3129.786475	16.893706
3130.963581	14.874126
3132.139012	12.367133
3133.312770	9.692308
3134.484855	7.618881
3135.658262	3.521678
3136.831492	0.116783
3138.003051	-2.747552
3139.175930	-6.832867
3140.345642	-5.439860
3141.516675	-2.251748
3142.686038	-2.375524
3143.853730	2.240559
3145.024238	5.961538
3146.190088	9.211888
3147.360246	9.180420
3148.525748	9.809790
3149.691075	11.575524
3150.856229	10.439860
3152.021210	10.117483
3153.187510	10.754545
3154.349158	12.996503
3155.512125	13.532867
3156.674920	13.225175
3157.837542	11.902098
3158.998499	10.514685
3160.159283	10.495804
3161.319895	4.722378
3162.478843	6.589510
3163.637620	9.825175
3164.796225	10.865035
3165.954657	11.216783
3167.112919	13.484615
3168.269518	15.218182
3169.424456	17.052448
3170.580713	15.793706
3171.735309	9.844755
3172.889735	12.781818
3174.042501	10.676224
3175.195096	3.713287
3176.347522	3.858042
3177.499778	1.679720
3178.651863	-2.495105
3179.800803	-6.292308
3180.952549	-3.004196
3182.102637	-0.642657
3183.251069	0.232867
3184.399331	1.061538
3185.547425	1.865035
3186.695350	5.894406
3187.841619	6.870629
3188.987720	5.291608
3190.132167	5.246154
3191.276446	3.165734
3192.420557	-0.722378
3193.565985	-0.665035
3194.708275	3.032867
3195.850398	0.584615
3196.992353	-0.230769
3198.134141	2.326573
3199.275762	1.829371
3200.414248	1.558042
3201.554051	4.818881
3202.695172	4.578322
3203.833158	6.058741
3204.969495	4.169930
3206.105666	4.840559
3207.243154	4.817483
3208.378994	2.922378
3209.516151	2.693706
3210.648695	3.191608
3211.785521	4.552448
3212.917735	6.918182
3214.051266	8.427972
3215.184633	12.754545
3216.314872	16.271329
3217.447909	14.732867
3218.577820	14.860839
3219.709047	13.798601
3220.837150	12.382517
3221.968049	11.025874
3223.097304	9.981818
3224.224916	8.622378
3225.349405	8.009790
3226.478170	6.998601
3227.603813	5.893007
3228.729294	9.475524
3229.853133	7.486713
3230.979766	4.958741
3232.101802	6.431469
3233.225154	3.209790
3234.348344	7.230769
3235.471372	8.115385
3236.592760	6.709790
3237.713986	8.845455
3238.833575	8.482517
3239.953002	8.388112
3241.070791	8.452448
3242.191372	10.261538
3243.308840	7.811189
3244.426147	7.000000
3245.543294	5.767133
3246.658805	3.980420
3247.775630	6.283916
3248.889346	6.354545
3250.005851	7.565734
3251.120722	11.339860
3252.232484	12.974126
3253.344086	13.793007
3254.457004	14.604196
3255.569762	15.016783
3256.679414	12.548951
3257.790381	11.160839
3258.901189	11.216084
3260.010365	8.897902
3261.117911	10.765734
3262.226770	9.139161
3263.335472	6.969930
3264.441071	4.739860
3265.547984	4.103497
3266.653268	0.930070
3267.759866	2.171329
3268.863364	3.741958
3269.968177	5.667832
3271.072832	10.518881
3272.174388	14.606993
3273.275788	14.995804
3274.378502	18.750350
3275.481060	15.897902
3276.580521	14.064336
3277.682766	13.055245
3278.781915	9.400000
3279.879440	5.162937
3280.976809	6.266434
3282.076960	6.707692
3283.174019	7.034266
3284.270922	7.926573
3285.367670	10.873427
3286.459860	12.044755
3287.556298	15.372727
3288.651114	13.767133
3289.745776	14.178322
3290.838816	10.007692
3291.931701	8.169930
3293.022967	10.084615
3294.115544	11.010490
3295.206502	7.248252
3296.295840	8.972727
3297.385025	9.472028
3298.475523	10.477622
3299.562936	10.234965
3300.650196	9.127273
3301.738769	7.090909
3302.827190	4.881119
3303.911063	2.740559
3304.999178	2.419580
3306.084211	5.559441
3307.167629	2.569231
3308.252359	0.966434
3309.335473	3.444056
3310.419900	1.245455
3311.501248	0.689510
3312.583908	3.240559
3313.664954	4.750350
3314.745849	8.271329
3315.825130	9.931469
3316.904261	11.247552
3317.984704	10.909091
3319.062072	11.516084
3320.140752	8.323077
3321.217820	7.657343
3322.294739	4.586014
3323.370046	0.390909
3324.445204	-1.741958
3325.521673	-1.795105
3326.595072	0.974825
3327.668322	3.284615
3328.742882	4.981818
3329.815834	6.917483
3330.887177	5.259441
3331.959831	4.777622
3333.029419	5.537762
3334.100317	3.154545
3335.169608	2.580420
3336.240210	1.027273
3337.309205	0.468531
3338.376594	2.938462
3339.442378	2.471329
3340.512388	4.360140
3341.579335	5.344056
3342.643220	8.444755
3343.709873	5.485315
3344.774921	6.472727
3345.838366	6.925874
3346.901665	5.968531
3347.964817	7.776923
3349.027823	5.670629
3350.090683	3.364336
3351.151941	2.131469
3352.210142	0.569930
3353.272563	0.579021
3354.331929	2.890909
3355.391149	7.064336
3356.451679	4.000699
3357.507699	2.706294
3358.566483	6.286713
3359.620760	8.206993
3360.677801	8.979720
3361.733243	10.310490
3362.789995	10.160140
3363.845148	11.340559
3364.898704	7.734266
3365.950664	2.881119
3367.005385	3.158741
3368.057057	2.507692
3369.108586	0.156643
3370.161423	-2.737762
3371.211213	2.639860
3372.262312	6.081818
3373.310365	7.461538
3374.361177	10.600699
3375.408945	10.520280
3376.456570	8.911189
3377.504052	2.741259
3378.549942	0.234266
3379.597140	-0.512587
3380.641296	1.337063
3381.688210	3.130070
3382.733532	3.459441
3383.775813	6.786713
3384.817954	6.423776
3385.861402	4.895804
3386.904709	7.311888
3387.946427	7.374825
3388.988003	3.016084
3390.029438	-0.093706
3391.069285	-0.342657
3392.107543	0.198601
3393.147109	1.640559
3394.186535	2.537762
3395.224373	4.358741
3396.260624	3.630070
3397.296736	4.781818
3398.334155	5.796503
3399.368541	10.228671
3400.404234	9.713986
3401.439788	9.267832
3402.472311	7.837762
3403.507587	9.469930
3404.539832	11.280420
3405.571939	11.520280
3406.602462	6.504196
3407.634292	6.496503
3408.665984	6.325874
3409.694648	3.432867
3410.723175	3.637762
3411.753008	5.987413
3412.782704	5.237762
3413.809374	6.527273
3414.837351	5.845455
3415.862303	9.622378
3416.890005	11.404895
3417.914684	14.196503
3418.940669	9.810490
3419.965074	9.417483
3420.989343	5.611189
3422.012033	2.958042
3423.034587	4.039860
3424.058447	2.879720
3425.079287	1.887413
3426.099991	2.847652
3427.122002	3.719855
3428.140994	4.071329
3429.159850	3.469381
3430.180013	1.481319
3431.197159	-2.325549
