-118.155753	-4.647253
-115.486152	-11.967033
-112.819487	-14.862138
-110.153575	-14.280120
-107.490594	-11.168531
-104.826183	-6.474925
-102.164703	-1.146853
-99.501794	3.497902
-96.843992	5.482517
-94.184759	2.433566
-91.526275	0.960839
-88.870716	-3.499301
-86.213728	-3.302098
-83.561837	-0.288112
-80.908517	-1.040559
-78.258117	0.408392
-75.606287	1.973427
-72.959548	10.001399
-70.311379	10.215385
-67.663954	12.530070
-65.019442	9.444755
-62.373501	4.416783
-59.732643	1.897902
-57.090354	0.960839
-54.450975	1.683916
-51.810167	0.745455
-49.170098	-1.951049
-46.535103	-0.688112
-43.898678	-2.774825
-41.265157	1.490909
-38.630206	3.711888
-36.000322	5.062937
-33.366844	1.579021
-30.738429	1.384615
-28.110748	-4.025175
-25.481639	-10.295105
-22.857586	-23.103497
-20.229944	-64.202797
-17.607355	-135.815385
-14.985497	-108.004196
-12.364370	161.008392
-9.743974	599.457343
-7.126465	963.148252
-4.507528	1210.402797
-1.891477	1342.141259
0.723846	1359.132867
3.338442	1258.158042
5.950156	1048.897902
8.563297	736.521678
11.171405	351.194406
13.783095	-13.608392
16.389754	-185.360839
18.997841	-128.365035
21.605204	-13.583217
24.207542	3.118881
26.813458	3.879720
29.414353	4.695105
32.016675	-0.142657
34.613979	-1.723077
37.214859	-1.064336
39.810725	-3.496503
42.408018	-2.626573
45.004592	-2.051748
47.596157	-0.388811
50.189150	-2.636364
52.779282	-2.876923
55.370842	-4.685315
57.959542	-2.731469
60.549670	-3.546853
63.134798	-4.717483
65.721354	-3.169231
68.307195	-3.458741
70.890183	-3.226573
73.474598	0.223776
76.051883	3.521678
78.632735	4.296503
81.210738	-0.386014
83.788031	-1.500699
86.366750	-3.048951
88.940488	-5.205594
91.515652	-6.493706
94.087973	-2.671329
96.659587	-1.909091
99.228360	-2.981818
101.798560	2.720280
104.365921	5.611189
106.934709	8.794406
109.500659	6.142657
112.063775	8.144056
114.630448	7.938462
117.187898	3.370629
119.751034	-1.027972
122.309211	-1.538462
124.870942	3.665734
127.427716	13.774825
129.985916	29.127273
132.539164	52.145455
135.091713	76.613986
137.647814	107.033566
140.198966	134.068531
142.749420	166.267133
145.299178	185.910490
147.846116	200.647552
150.392358	210.304895
152.940027	214.928671
155.486999	216.972028
158.029035	220.358042
160.570378	219.128671
163.111029	217.377622
165.653104	217.078322
168.192369	212.369231
170.728824	209.700699
173.264589	216.507692
175.801779	217.440559
178.338277	214.770629
180.871971	212.759441
183.402860	206.865734
185.933061	207.507692
188.464687	210.039161
190.993513	210.934266
193.519539	212.111888
196.044879	213.545455
198.571644	212.695105
201.095613	217.903497
203.618896	220.871329
206.141495	216.717483
208.661301	212.879720
211.180424	211.023776
213.698864	205.981818
216.218728	208.678322
218.731591	210.622378
221.247985	210.264336
223.763698	210.025175
226.274520	214.667133
228.786767	218.314685
231.296231	218.844755
233.805017	216.836364
236.313125	215.723077
238.822657	218.209790
241.327308	219.360839
243.831283	218.019580
246.336682	220.194406
248.837206	222.297902
251.341253	220.020979
253.838330	223.314685
256.338929	228.261538
258.836757	230.888112
261.333912	231.510490
263.830394	234.250350
266.322014	233.892308
268.817152	236.138462
271.309525	234.990210
273.801227	232.646154
276.290166	234.307692
278.780528	235.239161
281.268129	233.281119
283.752970	234.351049
286.241325	233.927273
288.722742	233.054545
291.207672	233.111888
293.687756	236.848951
296.171353	239.481119
298.650108	241.565035
301.130285	240.787413
303.607711	240.809790
306.084473	246.337063
308.560571	255.365035
311.033921	264.095105
313.506610	277.598601
315.978637	294.257343
318.450002	309.419580
320.918624	317.390210
323.386586	323.627972
325.855971	318.001399
328.320533	305.219580
330.788598	296.121678
333.251844	282.815385
335.714433	270.276923
338.176364	260.223776
340.637639	252.998601
343.096180	253.215385
345.556143	257.504895
348.013374	258.173427
350.469950	256.395804
352.925871	256.012587
355.379064	250.290909
357.833679	250.820979
360.283492	257.944056
362.736801	255.888112
365.185311	253.632168
367.633171	252.902098
370.082452	253.725874
372.526940	250.483916
374.972850	254.062937
377.418111	255.897902
379.860653	259.116084
382.302547	259.654545
384.743793	260.776224
387.182324	263.836364
389.622277	265.527273
392.059516	260.117483
394.494043	264.860140
396.932058	267.832168
399.365296	266.234965
401.799956	264.118881
404.229843	267.820979
406.663215	262.374825
409.091816	261.465734
411.519777	258.826573
413.949158	260.700699
416.373775	256.745455
418.799812	253.804196
421.225210	253.496503
423.649967	262.279720
426.069965	263.762238
428.491385	267.404196
430.910108	270.674126
433.330252	270.324476
435.747701	263.106294
438.166570	267.353846
440.582746	268.321678
442.994175	269.441958
445.409080	258.565035
447.821295	252.523077
450.232876	248.132867
452.643823	249.418182
455.052084	246.653147
457.459713	247.090909
459.866709	244.795804
462.273073	245.497902
464.676756	246.696503
467.079808	251.360839
469.482230	255.524476
471.884022	253.741259
474.283136	253.678322
476.683670	255.128671
479.083575	255.117483
481.478757	261.608392
483.877406	262.342657
486.271335	261.541259
488.664638	258.878322
491.057315	257.356643
493.449367	251.788811
495.842838	238.716084
498.231596	231.606993
500.617688	222.668531
503.005200	219.310490
505.392088	208.363636
507.776313	198.791608
510.161957	189.760839
512.544938	183.454545
514.925259	176.819580
517.306999	170.544056
519.686080	165.594406
522.066580	156.998601
524.444422	152.138462
526.819609	151.370629
529.194178	153.369231
531.570166	153.372028
533.943500	150.906294
536.318253	151.111888
538.688319	150.809790
541.057770	151.377622
543.428640	151.937063
545.794828	149.236364
548.162435	146.433566
550.527396	145.569231
552.891744	145.131469
555.255480	140.626573
557.620633	142.401399
559.981114	139.128671
562.343012	138.699301
564.702271	138.300699
567.058891	139.516084
569.418957	135.819580
571.772331	138.629371
574.129150	134.963636
576.483334	136.123077
578.836909	141.209790
581.189876	140.667133
583.540212	142.966434
585.891964	147.493706
588.237040	145.654545
590.587580	144.282517
592.931447	144.240559
595.280775	144.805594
597.625454	144.531469
599.967509	144.594406
602.310981	143.988811
604.651830	143.657343
606.992076	142.379021
609.329702	142.586014
611.670763	140.549650
614.007187	137.289510
616.345027	130.602797
618.680249	127.293706
621.012856	125.130070
623.346880	124.890909
625.678289	124.565035
628.009100	121.699301
630.339313	125.353846
632.668929	124.523077
634.993921	124.083916
637.324355	125.123077
639.650167	121.772028
641.973373	120.323077
644.297995	118.348252
646.620011	121.839161
648.941433	121.151049
651.260252	124.337063
653.580487	123.567832
655.900129	124.289510
658.217170	124.121678
660.533620	118.857343
662.847471	116.862937
665.162737	114.759441
667.475407	116.303497
669.789492	112.553846
672.098978	111.078322
674.409878	115.046154
676.718186	116.167832
679.025906	119.128671
681.335041	120.008392
683.639583	123.314685
685.943539	122.120280
688.246908	120.655944
690.551692	122.886713
692.851890	120.731469
695.153503	121.008392
697.454530	115.188811
699.750976	113.791608
702.048836	112.408392
704.346114	112.759441
706.642807	115.088112
708.934925	117.772028
711.230454	119.862937
713.521410	117.595804
715.813780	115.465734
718.103574	117.632168
720.392789	117.788811
722.681423	116.753846
724.967486	117.598601
727.254962	116.071329
729.539868	113.927273
731.824195	113.360839
734.105955	117.239161
736.389128	118.201399
738.671724	118.130070
740.949764	116.401399
743.229218	117.467133
745.508097	121.310490
747.786400	126.604196
750.060154	130.272727
752.335322	129.867133
754.609916	126.688112
756.881951	125.330070
759.155399	117.026573
761.426289	119.078322
763.694622	118.195804
765.964370	118.141259
768.231562	117.678322
770.498184	119.882517
772.764237	123.546853
775.027738	130.226573
777.292651	132.714685
779.556996	128.085315
781.816810	127.240559
784.078038	124.116084
786.338698	118.583217
788.596811	123.292308
790.852380	121.658741
793.111340	120.882517
795.363801	123.198601
797.621629	126.110490
799.874938	127.360839
802.125706	130.307692
804.377887	127.464336
806.627530	124.134266
808.878584	119.499301
811.125127	120.253147
813.373083	120.081119
815.618503	118.292308
817.865336	113.432168
820.111606	111.359441
822.353373	111.297902
824.598522	110.511888
826.837199	108.858741
829.079259	112.986014
831.316820	110.867133
833.555792	111.588811
835.792238	109.959441
838.030096	115.441958
840.265428	112.573427
842.498236	111.300699
844.732456	109.902098
846.964154	111.654545
849.195297	114.373427
851.425885	112.669930
853.655919	113.581818
855.885398	117.142657
858.110397	118.661538
860.338769	117.681119
862.562663	114.219580
864.787967	115.184615
867.008796	111.636364
869.232997	107.233566
871.452725	104.802797
873.673864	106.467133
875.894452	110.177622
878.112531	107.760839
880.332019	109.657343
882.547041	108.481119
884.761515	110.600000
886.975442	110.672727
889.188821	111.509091
891.401654	113.467133
893.613939	110.965035
895.823723	110.776224
898.032961	117.885315
900.241653	118.949650
902.447847	119.310490
904.655450	116.190210
906.860556	115.201399
909.065118	114.020979
911.267185	115.240559
913.470661	118.520280
915.671643	118.779021
917.872083	117.847552
920.073932	117.026573
922.269390	119.994406
924.468206	123.560839
926.662585	119.648951
928.860321	115.672727
931.053621	115.590210
933.248329	114.314685
935.440552	112.928671
937.632237	110.206993
939.823384	111.060140
942.012048	108.206993
944.200175	107.488112
946.385822	109.071329
948.574821	114.927273
950.759397	117.497902
952.943438	123.818182
955.130829	128.085315
957.309917	132.215385
959.492354	131.787413
961.674258	132.230769
963.853688	131.131469
966.030645	134.612587
968.209010	134.843357
970.388781	137.053147
972.562204	140.405594
974.738973	144.317483
976.911336	141.906294
979.085106	147.366434
981.254472	145.137063
983.427182	141.222378
985.597426	137.152448
987.767142	134.423776
989.936329	131.134266
992.101119	135.082517
994.269251	137.976224
996.432987	142.202797
998.598131	145.661538
1000.760815	151.068531
1002.922974	151.783217
1005.082675	155.883916
1007.241853	156.381818
1009.402437	160.861538
1011.560566	160.394406
1013.718171	164.453147
1015.875253	166.348252
1018.031812	169.538462
1020.183991	172.057343
1022.337577	172.366434
1024.490640	172.720280
1026.641256	172.910490
1028.793277	166.465734
1030.940925	163.374825
1033.091905	167.132867
1035.238515	169.359441
1037.384605	168.111888
1039.530177	174.760839
1041.677153	172.882517
1043.817842	175.549650
1045.961859	179.198601
1048.103437	184.658741
1050.244497	190.879720
1052.386962	191.794406
1054.523148	190.391608
1056.662660	192.401399
1058.797816	193.328671
1060.936297	191.973427
1063.070425	190.531469
1065.204039	187.012587
1067.339057	179.482517
1069.469726	177.559441
1071.601801	176.416783
1073.731445	178.469930
1075.860578	176.802797
1077.989200	177.544056
1080.117310	175.616783
1082.242994	177.707692
1084.368168	173.474126
1086.494745	174.355245
1088.616986	170.360839
1090.740631	164.923077
1092.859941	162.313287
1094.984480	160.097902
1097.102775	158.453147
1099.222473	157.692308
1101.339753	154.307692
1103.456527	156.903497
1105.572794	151.093706
1107.686646	151.668531
1109.801901	148.679720
1111.912834	144.581818
1114.027078	144.293706
1116.137003	147.405594
1118.248330	149.640559
1120.359154	147.829371
1122.465661	147.015385
1124.575477	148.215385
1126.680979	143.559441
1128.787885	140.071329
1130.888574	138.801399
1132.994476	138.240559
1135.096069	136.766434
1137.199065	136.500699
1139.301560	141.257343
1141.397849	146.478322
1143.499344	146.625175
1145.596537	146.005594
1147.693231	142.060140
1149.789428	141.093706
1151.885126	136.893706
1153.980327	135.760839
1156.073131	137.296503
1158.167337	132.956643
1160.255352	133.132867
1162.348565	138.163636
1164.435590	142.097902
1166.525915	144.439161
1168.611951	145.541259
1170.701285	147.651748
1172.784438	145.216783
1174.868994	146.627972
1176.954950	146.883916
1179.036625	143.786014
1181.119702	142.307692
1183.200393	136.770629
1185.280593	136.710490
1187.360301	139.197203
1189.439518	135.958042
1191.516352	136.146853
1193.590806	136.640559
1195.668552	135.615385
1197.742027	132.011189
1199.816904	134.444755
1201.887513	132.517483
1203.959523	133.299301
1206.029157	135.020979
1208.100192	133.874126
1210.170739	135.341259
1212.237025	136.095105
1214.304712	134.327273
1216.370027	139.948252
1218.436742	137.752448
1220.499201	134.706294
1222.564946	129.630769
1224.626436	128.247552
1226.689326	127.090909
1228.749849	126.960839
1230.809889	127.090909
1232.869445	126.937063
1234.926637	128.441958
1236.983346	131.176224
1239.037693	132.227972
1241.095320	133.386014
1243.150585	133.325874
1245.201609	133.980420
1247.254033	130.668531
1249.305978	131.797203
1251.355564	135.928671
1253.404671	133.798601
1255.453299	138.423776
1257.501449	137.647552
1259.549121	139.813986
1261.592562	136.911888
1263.639278	134.523077
1265.683642	132.795804
1267.727528	136.025175
1269.769064	133.090909
1271.808250	132.990210
1273.850708	133.962238
1275.888945	134.307692
1277.928579	136.383217
1279.967739	138.746853
1282.002681	144.773427
1284.039021	151.935664
1286.073016	154.854545
1288.108410	158.928671
1290.139590	162.474126
1292.172169	167.723077
1294.204275	162.751049
1296.234041	166.134266
1298.265205	164.637762
1300.292161	166.102098
1302.320515	168.781818
1304.344665	173.538462
1306.372080	184.387413
1308.395292	191.730070
1310.419902	200.100699
1312.442177	205.637762
1314.465850	214.069930
1316.487190	222.193007
1318.508063	229.246154
1320.528468	239.240559
1322.544679	244.472727
1324.562289	248.956643
1326.577570	251.967832
1328.596110	255.134266
1330.610460	258.751049
1332.622485	264.013986
1334.637768	270.524476
1336.648865	270.542657
1338.661358	272.896503
1340.669669	268.246154
1342.681236	264.478322
1344.686764	256.141259
1346.695546	244.395804
1348.700152	233.355245
1350.708011	224.979021
1352.715407	214.611189
1354.716773	210.573427
1356.719536	209.276923
1358.721839	207.125874
1360.723681	201.875524
1362.725065	196.794406
1364.724134	189.546853
1366.722745	183.353846
1368.720898	176.584615
1370.718593	171.991608
1372.712124	168.752448
1374.707052	170.046154
1376.701523	165.555245
1378.695537	165.099301
1380.687244	161.474126
1382.678495	157.869930
1384.667441	150.853147
1386.657782	148.802797
1388.647668	145.676923
1390.635251	142.563636
1392.622380	140.853147
1394.607207	141.730070
1396.593429	143.727273
1398.577350	145.413986
1400.560819	146.156643
1402.543836	142.425175
1404.524555	138.005594
1406.506668	137.419580
1408.486484	133.420979
1410.465850	135.688112
1412.441077	132.197203
1414.419542	130.075524
1416.395714	129.299301
1418.371436	127.853147
1420.346709	127.033566
1422.319691	123.860140
1424.292226	124.109091
1426.264312	119.959441
1428.235950	116.443357
1430.203461	118.525874
1432.176045	120.630769
1434.140823	125.201399
1436.110674	126.941259
1438.076400	128.296503
1440.043520	132.731469
1442.008356	131.914685
1443.969072	132.313287
1445.934856	129.962238
1447.894685	128.159441
1449.855907	124.625175
1451.818522	121.260140
1453.777022	120.868531
1455.735080	119.064336
1457.692695	121.558042
1459.649869	126.180420
1461.604767	127.577622
1463.561057	132.593007
1465.515073	136.753846
1467.468649	138.464336
1469.419952	138.758042
1471.372647	134.763636
1473.323071	132.229371
1475.273056	129.386014
1477.222601	125.289510
1479.169878	123.896503
1481.114888	126.023776
1483.061290	128.264336
1485.007254	130.973427
1486.952780	134.619580
1488.896042	135.353846
1490.838867	137.700699
1492.779429	136.485315
1494.721382	129.609790
1496.661074	129.394406
1498.600330	125.302098
1500.539152	123.668531
1502.475714	121.646154
1504.413666	121.914685
1506.349361	123.962238
1508.284622	128.928671
1510.217626	131.668531
1512.150198	134.327273
1514.082338	141.057343
1516.014046	144.769231
1517.943501	147.597203
1519.874345	152.114685
1521.804759	153.769231
1523.731100	153.186014
1525.658831	150.000000
1527.584312	149.720280
1529.509364	148.062937
1531.433987	151.990210
1533.358181	152.678322
1535.280128	154.162238
1537.203464	157.921678
1539.124555	163.145455
1541.043401	167.179021
1542.963637	171.904895
1544.881629	176.261538
1546.799195	182.528671
1548.714519	186.544056
1550.631233	193.615385
1552.543892	196.647552
1554.459755	205.439161
1556.373379	208.093706
1558.284764	215.271329
1560.197538	219.475524
1562.106263	225.776224
1564.016378	233.655944
1565.926069	238.551049
1567.835336	239.360839
1569.742370	243.131469
1571.647171	243.219580
1573.553361	243.036364
1575.457319	237.127273
1577.360857	237.528671
1579.263973	233.876923
1581.164861	230.223776
1583.067137	227.040559
1584.967184	226.408392
1586.868620	226.832168
1588.766021	224.902098
1590.663005	214.537063
1592.559570	211.320280
1594.457522	206.593007
1596.349640	203.879720
1598.244952	196.731469
1600.139845	196.137063
1602.032517	192.820979
1603.924773	186.627972
1605.814809	183.899301
1607.704429	181.788811
1609.593634	178.587413
1611.482423	171.072727
1613.368996	161.517483
1615.256955	157.683916
1617.140899	153.057343
1619.026229	150.541259
1620.911146	145.172028
1622.793849	145.088112
1624.677938	143.186014
1626.558017	141.695105
1628.439482	142.634965
1630.318737	140.479720
1632.199378	140.521678
1634.074215	137.030769
1635.954034	138.123077
1637.829847	137.026573
1639.705251	132.170629
1641.582040	132.388811
1643.453032	134.590210
1645.327206	134.139860
1647.197382	133.439161
1649.070738	131.292308
1650.941891	130.766434
1652.810842	124.941259
1654.681179	124.406993
1656.547522	122.268531
1658.415252	120.797203
1660.280782	114.825175
1662.147697	109.450350
1664.010624	111.166434
1665.874936	111.233566
1667.737053	111.406993
1669.598764	113.170629
1671.461860	112.099301
1673.322762	113.034965
1675.181470	113.878322
1677.039775	116.114685
1678.899465	123.248951
1680.753388	122.360839
1682.610483	124.523077
1684.467176	125.626573
1686.319893	128.914685
1688.175781	124.738462
1690.027695	125.960839
1691.879208	120.941259
1693.730320	120.942657
1695.581031	120.777622
1697.431342	121.518881
1699.279469	116.134266
1701.128979	117.229371
1702.972741	112.864336
1704.821453	116.752448
1706.664418	115.741259
1708.510549	118.328671
1710.352719	113.753846
1712.198053	114.851748
1714.037647	115.763636
1715.878625	121.379021
1717.720986	118.198601
1719.559391	114.723077
1721.399179	111.681119
1723.236792	113.365035
1725.074009	115.260140
1726.909053	116.618182
1728.745480	114.121678
1730.579735	112.009790
1732.413596	107.124476
1734.247062	109.367832
1736.076582	108.865734
1737.909261	107.067133
1739.737996	102.004196
1741.569889	102.737063
1743.397839	104.152448
1745.225397	107.040559
1747.052564	110.773427
1748.879338	113.179021
1750.705722	112.667133
1752.528169	112.886713
1754.353770	112.882517
1756.175437	116.061538
1757.998486	113.076923
1759.819374	108.777622
1761.639872	106.032168
1763.461752	104.836364
1765.277932	101.979021
1767.097264	105.446154
1768.912669	105.988811
1770.731225	111.806993
1772.545855	111.330070
1774.360098	111.727273
1776.173955	113.243357
1777.987425	114.135664
1779.798741	113.404196
1781.611439	108.925874
1783.423750	107.274126
1785.232144	102.686713
1787.041919	100.678322
1788.847778	100.811189
1790.656784	100.358042
1792.461876	102.636364
1794.268348	98.471329
1796.074437	102.124476
1797.876616	106.960839
1799.681938	109.850350
1801.483352	108.125874
1803.286146	106.296503
1805.085035	105.776224
1806.885303	105.752448
1808.685191	106.563636
1810.482936	108.899301
1812.280301	111.460140
1814.077285	112.412587
1815.873889	109.767832
1817.668354	116.360839
1819.464199	116.439161
1821.254388	115.430769
1823.049474	109.181818
1824.838907	110.160839
1826.631478	110.187413
1828.421913	109.948252
1830.210213	108.892308
1832.001649	110.786014
1833.787440	110.198601
1835.574609	108.048951
1837.359647	105.710490
1839.147819	108.886713
1840.932105	108.534266
1842.714262	109.925874
1844.497797	109.018182
1846.279205	112.700699
1848.061990	109.213986
1849.840896	107.788811
1851.621180	106.998601
1853.399339	110.822378
1855.178875	107.216783
1856.956287	104.973427
1858.731575	101.309091
1860.508242	103.260140
1862.282786	105.124476
1864.058707	109.861538
1865.829009	112.324476
1867.602438	114.117483
1869.373747	112.260140
1871.144685	114.195804
1872.917000	114.895105
1874.683703	115.895105
1876.453530	111.367832
1878.219494	108.402797
1879.988582	105.734266
1881.753808	107.742657
1883.518666	106.890909
1885.284900	106.904895
1887.047276	105.541259
1888.809285	104.591608
1890.570927	104.089510
1892.332201	104.394406
1894.093109	103.440559
1895.853649	105.278322
1897.612080	105.797203
1899.370146	104.689510
1901.126104	104.633566
1902.883438	108.723077
1904.640406	110.195804
1906.395269	112.531469
1908.148026	112.772028
1909.900420	114.595804
1911.654190	116.158042
1913.405856	111.581818
1915.155419	113.679720
1916.906359	118.000000
1918.656935	116.967832
1920.403673	113.918881
1922.151786	110.774825
1923.897800	111.587413
1925.645190	109.813986
1927.390481	108.998601
1929.133675	107.513287
1930.878245	106.861538
1932.620718	105.781818
1934.362831	101.493706
1936.104585	105.321678
1937.845978	106.904895
1939.585278	104.314685
1941.324219	102.581818
1943.062801	101.254545
1944.799291	101.413986
1946.535424	103.883916
1948.272931	106.662937
1950.006617	110.683916
1951.741677	114.334266
1953.474648	117.011189
1955.207263	118.009790
1956.939521	113.911888
1958.671423	108.784615
1960.401239	105.489510
1962.128971	105.749650
1963.858077	102.830769
1965.586827	103.997203
1967.313494	102.623776
1969.039807	103.931469
1970.767493	103.016783
1972.489643	106.551049
1974.214895	107.391608
1975.936339	108.236364
1977.660883	104.339860
1979.383348	104.609790
1981.102009	104.786014
1982.823769	105.425175
1984.541727	103.993007
1986.261059	105.532867
1987.976590	104.483916
1989.696943	108.205594
1991.413496	107.246154
1993.126254	110.809790
1994.842107	112.917483
1996.555888	113.086713
1998.269318	113.472727
1999.980678	114.317483
2001.693411	111.009790
2003.402352	108.205594
2005.114387	109.303497
2006.820912	110.857343
2008.530530	108.019580
2010.238080	108.995804
2011.945283	109.788811
2013.650420	111.468531
2015.355210	111.625175
2017.061372	111.187413
2018.763752	111.200000
2020.467504	111.765035
2022.169193	113.655944
2023.870536	110.702098
2025.571534	111.586014
2027.270472	113.365035
2028.970781	112.246154
2030.667314	114.876923
2032.365219	120.282517
2034.061066	119.236364
2035.759998	117.360839
2037.453444	119.279720
2039.148261	120.609790
2040.842735	120.606993
2042.533441	115.916084
2044.227231	110.840559
2045.917254	108.321678
2047.608648	109.211189
2049.297989	109.011189
2050.988700	108.923077
2052.675649	111.097902
2054.362257	110.156643
2056.050236	110.846154
2057.734455	113.460140
2059.420044	114.738462
2061.105294	115.037762
2062.788496	112.613986
2064.473068	115.160839
2066.152176	113.579021
2067.836070	112.309091
2069.514504	110.183217
2071.196015	112.492308
2072.873774	111.397203
2074.551197	113.285315
2076.229989	109.679720
2077.906738	109.702098
2079.581446	109.546853
2081.257523	111.604196
2082.931560	108.065734
2084.605261	106.318881
2086.278627	105.822378
2087.949955	104.808392
2089.620948	106.539860
2091.291607	111.131469
2092.961932	109.737063
2094.631922	114.096503
2096.299877	109.925874
2097.967499	111.039161
2099.633087	112.744056
2101.300043	113.513287
2102.964966	113.952448
2104.629556	114.349650
2106.292115	121.409790
2107.956043	123.777622
2109.617939	127.623776
2111.279504	127.429371
2112.940739	125.186014
2114.599944	122.240559
2116.258820	113.152448
2117.917365	107.186014
2119.575581	101.055944
2121.230074	96.598601
2122.887631	95.123077
2124.544858	95.523077
2126.198365	102.874126
2127.853239	105.860140
2129.504394	108.728671
2131.158612	114.801399
2132.809112	118.997203
2134.460980	119.458741
2136.107439	118.895105
2137.758652	119.226573
2139.406153	117.029371
2141.055020	117.991608
2142.701868	118.759441
2144.348391	118.339860
2145.994588	116.523077
2147.637076	113.054545
2149.282623	108.836364
2150.924463	110.448951
2152.569360	109.430769
2154.210552	108.920280
2155.851420	110.218182
2157.491965	109.857343
2159.130497	109.110490
2160.770395	110.850350
2162.406593	110.637762
2164.044157	110.773427
2165.681399	108.527273
2167.316631	109.269930
2168.951541	109.546853
2170.586130	111.325874
2172.220398	111.600000
2173.850972	113.222378
2175.484597	113.379021
2177.114531	110.576224
2178.745830	105.830769
2180.375125	104.029371
2182.004099	100.552448
2183.632755	102.222378
2185.261091	100.534266
2186.887424	102.057343
2188.513439	101.619580
2190.137453	100.106294
2191.762832	99.779021
2193.386210	107.671329
2195.010953	110.532867
2196.632014	112.646154
2198.252760	111.027972
2199.874869	116.851748
2201.494981	119.267133
2203.113097	120.637762
2204.730897	120.002797
2206.348381	122.823776
2207.965550	120.264336
2209.582404	116.939860
2211.198943	113.640559
2212.813488	119.071329
2214.426042	115.351049
2216.039959	116.510490
2217.651884	113.555245
2219.265174	116.204196
2220.876472	115.325874
2222.485782	112.355245
2224.096454	109.314685
2225.705138	110.500699
2227.313510	104.427972
2228.919894	99.763636
2230.527642	99.865734
2232.133403	103.669930
2233.738853	101.881119
2235.342319	104.612587
2236.947147	102.974825
2238.549991	108.104895
2240.150852	111.023776
2241.753076	110.460140
2243.353317	109.432168
2244.954922	112.181818
2246.552873	112.320280
2248.152187	112.924476
2249.749521	114.546853
2251.346547	113.404196
2252.944934	110.351049
2254.539673	106.830769
2256.132436	103.460140
2257.726560	103.580420
2259.322046	98.826573
2260.913888	99.647552
2262.505423	100.627972
2264.098319	100.969231
2265.685906	101.967832
2267.278190	102.324476
2268.865166	102.857343
2270.455171	102.528671
2272.039871	101.862937
2273.629265	104.455944
2275.213356	104.004196
2276.798809	105.040559
2278.382293	101.605594
2279.968802	105.605594
2281.551678	105.696503
2283.134250	106.662238
2284.716520	109.907692
2286.295159	110.704196
2287.876822	109.805594
2289.454858	109.179720
2291.035916	111.945455
2292.613347	119.313986
2294.188815	117.804196
2295.767305	118.171329
2297.342170	115.334266
2298.916735	116.300000
2300.491000	115.342657
2302.064964	114.704196
2303.638628	111.240559
2305.211991	108.020979
2306.781736	103.822378
2308.351182	103.097902
2309.923647	101.653147
2311.490837	104.967832
2313.061044	105.114685
2314.627637	105.416783
2316.195590	105.941259
2317.761588	105.643357
2319.327288	105.352448
2320.892690	106.344056
2322.456139	108.927273
2324.020947	115.623776
2325.582146	118.113287
2327.146360	120.811189
2328.705313	120.176224
2330.267279	122.037762
2331.827295	122.083916
2333.387015	117.197203
2334.944786	111.556643
2336.502263	104.244755
2338.059444	101.829371
2339.614679	97.483916
2341.169619	97.676923
2342.724266	101.437762
2344.278619	99.709091
2345.832678	102.432168
2347.386444	100.820979
2348.938265	101.794406
2350.488143	100.714685
2352.041029	101.065734
2353.588673	101.027972
2355.139324	98.718881
2356.686385	101.976224
2358.234803	100.626573
2359.782929	100.206993
2361.327468	100.826573
2362.873364	96.676923
2364.417321	98.237762
2365.962636	94.843357
2367.504366	95.488112
2369.047454	95.033566
2370.588605	100.751049
2372.129467	104.395804
2373.670040	108.593007
2375.210324	113.548252
2376.750319	116.229371
2378.286735	117.362238
2379.826153	120.335664
2381.361994	119.334266
2382.899191	120.373427
2384.432814	118.563636
2385.969436	120.398601
2387.504127	117.047552
2389.036889	116.535664
2390.569365	113.840559
2392.099912	114.840559
2393.633457	111.506294
2395.161791	115.152448
2396.691481	117.981818
2398.220886	120.022378
2399.750006	119.402797
2401.278840	122.483916
2402.802470	123.219580
2404.330735	124.724476
2405.853797	119.499301
2407.381494	113.696503
2408.902350	110.124476
2410.427840	108.289510
2411.949770	104.960839
2413.473054	108.158042
2414.994418	108.829371
2416.513862	110.669930
2418.034661	112.934266
2419.553541	117.411189
2421.072139	119.953846
2422.588820	120.416783
2424.106856	116.358042
2425.624610	113.118881
2427.138812	113.397203
2428.652734	113.090909
2430.166377	112.499301
2431.681373	112.088112
2433.192821	110.495105
2434.705624	113.330070
2436.216514	113.276923
2437.727124	111.914685
2439.235823	112.644755
2440.747509	114.507692
2442.255651	112.861538
2443.763514	115.841958
2445.271100	115.193007
2446.775146	117.787413
2448.282176	117.332867
2449.787298	112.598601
2451.292143	110.489510
2452.795081	111.927273
2454.297742	111.632168
2455.800127	109.636364
2457.300607	112.478322
2458.802440	113.167832
2460.302369	112.525874
2461.802022	113.423776
2463.301400	110.506294
2464.798875	112.344056
2466.294448	109.984615
2467.793001	104.819580
2469.288026	107.338462
2470.784403	110.048951
2472.277254	113.206993
2473.771457	112.436364
2475.265387	112.425175
2476.755794	110.813986
2478.249178	109.478322
2479.740663	107.065734
2481.230252	102.186014
2482.719570	101.335664
2484.206991	99.598601
2485.697388	98.026573
2487.184266	102.878322
2488.672496	103.728671
2490.157210	99.276923
2491.641653	99.935664
2493.127448	99.674126
2494.611350	100.050350
2496.096604	102.145455
2497.576724	103.622378
2499.059816	105.345455
2500.541018	115.057343
2502.021951	118.114685
2503.500995	120.383217
2504.979771	119.099301
2506.458278	112.616783
2507.936516	105.916084
2509.414486	106.236364
2510.888952	103.169231
2512.366386	99.625175
2513.840317	101.401399
2515.315599	103.230769
2516.790613	106.053147
2518.262126	108.581818
2519.734990	108.072727
2521.205971	109.293706
2522.678301	109.892308
2524.145519	108.839161
2525.615703	111.611189
2527.084005	114.032168
2528.552043	114.974825
2530.019816	114.144056
2531.487324	113.727273
2532.954567	116.595804
2534.418319	113.402797
2535.883420	109.739860
2537.346644	111.511888
2538.811217	111.285315
2540.272301	113.514685
2541.734736	110.239161
2543.196907	112.850350
2544.655591	116.002797
2546.118848	115.253147
2547.577008	114.469930
2549.036517	115.349650
2550.490933	120.539860
2551.949919	120.211189
2553.407032	119.704895
2554.862275	119.474126
2556.317257	116.721678
2557.770369	112.344056
2559.224830	110.632168
2560.677422	111.124476
2562.129754	110.320280
2563.580218	106.558042
2565.033638	105.738462
2566.481976	106.406993
2567.933270	109.724476
2569.382697	107.907692
2570.828653	106.791608
2572.277563	109.476923
2573.723002	112.788811
2575.169790	111.236364
2576.614714	115.565035
2578.059381	114.562238
2579.505395	113.267133
2580.947942	111.876923
2582.391837	107.160839
2583.832267	106.520280
2585.274045	107.423776
2586.713963	100.902098
2588.155228	102.672727
2589.593031	103.762238
2591.033784	105.815385
2592.469474	104.227972
2593.908114	105.145455
2595.344897	104.601399
2596.779823	107.640559
2598.217698	109.576224
2599.650515	115.398601
2601.084679	120.537063
2602.516988	127.344056
2603.950644	127.071329
2605.382447	129.697902
2606.813997	125.839161
2608.245293	126.202797
2609.674738	120.949650
2611.103930	116.816783
2612.531271	115.983217
2613.959959	114.290909
2615.388394	116.107692
2616.813383	121.001399
2618.239717	121.779021
2619.664203	128.418182
2621.090035	127.039161
2622.512423	129.626573
2623.936157	128.650350
2625.358045	132.955245
2626.779682	129.990210
2628.199474	129.141259
2629.620612	127.598601
2631.041500	125.960839
2632.458950	129.555245
2633.879339	128.218182
2635.296291	127.730070
2636.712995	126.139860
2638.129450	126.826573
2639.545657	127.648951
2640.961615	129.379021
2642.375733	134.611189
2643.789604	132.027972
2645.201635	132.723077
2646.615011	128.869930
2648.024957	131.616783
2649.437839	132.172028
2650.847292	132.344056
2652.256499	134.324476
2653.663870	134.306294
2655.074175	137.802797
2656.482644	137.381818
2657.889278	140.015385
2659.295667	141.425175
2660.700222	140.110490
2662.106121	139.279720
2663.510187	136.941259
2664.914009	137.948252
2666.317586	138.769231
2667.719331	137.504895
2669.122420	138.738462
2670.522092	142.626573
2671.923107	146.793007
2673.320705	147.795804
2674.721234	151.572028
2676.118348	152.865734
2677.516805	149.244755
2678.913434	145.057343
2680.309822	143.671329
2681.705967	139.577622
2683.100286	141.338462
2684.495948	137.146853
2685.888200	134.265734
2687.281796	138.095105
2688.673567	137.755245
2690.066680	136.246154
2691.457970	136.369231
2692.847437	130.906294
2694.236665	129.069930
2695.625652	128.850350
2697.015982	130.229371
2698.401327	130.202797
2699.789597	133.972028
2701.176046	129.552448
2702.562256	124.458741
2703.948227	124.377622
2705.330800	119.766434
2706.714714	118.282517
2708.098391	116.367832
2709.481830	118.369231
2710.861873	122.806993
2712.243258	124.847552
2713.622827	128.257343
2715.003738	128.843357
2716.382834	130.088112
2717.760115	124.521678
2719.138738	123.664336
2720.515548	117.110490
2721.892122	111.945455
2723.268460	112.664336
2724.642986	111.834965
2726.018853	114.444755
2727.391333	115.246154
2728.766730	118.620979
2730.137165	122.518881
2731.508942	124.531469
2732.880485	127.627972
2734.250219	126.942657
2735.621293	126.386014
2736.990560	118.931469
2738.359593	116.338462
2739.726819	114.552448
2741.093813	113.938462
2742.460574	117.165035
2743.827102	116.862937
2745.191826	117.686713
2746.556317	114.534266
2747.920576	117.083916
2749.284604	119.806993
2750.648399	118.972028
2752.008821	117.439161
2753.372154	114.591608
2754.730544	117.044755
2756.091844	116.583217
2757.449773	117.584615
2758.810612	115.479720
2760.169650	109.345455
2761.525320	104.809790
2762.883899	96.034965
2764.239110	95.766434
2765.594092	95.111888
2766.947277	94.447552
2768.303369	94.071329
2769.656097	92.174825
2771.008596	92.415385
2772.360867	92.759441
2773.714477	91.299301
2775.064725	92.671329
2776.413180	96.869930
2777.764539	95.801399
2779.112539	96.426573
2780.461878	96.997203
2781.809424	98.622378
2783.156743	100.960839
2784.503836	99.744056
2785.849138	94.995804
2787.194214	90.538462
2788.539064	92.739860
2789.883688	91.337063
2791.224959	96.109091
2792.567569	98.609790
2793.909954	96.784615
2795.252113	99.475524
2796.590923	97.889510
2797.932633	100.751049
2799.270994	105.258741
2800.610693	105.339860
2801.948606	101.720280
2803.284735	100.935664
2804.620641	99.523077
2805.957883	96.665734
2807.293342	94.885315
2808.628578	93.697902
2809.962032	95.987413
2811.296822	96.604196
2812.628271	100.220979
2813.962616	101.030769
2815.292063	103.386014
2816.622847	106.009790
2817.953409	105.488112
2819.282192	101.844755
2820.612312	100.102098
2821.940652	98.528671
2823.268772	94.823776
2824.595115	94.827972
2825.922793	95.176224
2827.247139	92.653147
2828.572820	95.151049
2829.896727	91.728671
2831.220413	90.594406
2832.545435	89.586014
2833.867128	86.174825
2835.188601	85.109091
2836.509856	89.672727
2837.830892	88.419580
2839.150156	90.602797
2840.470755	93.099301
2841.789582	94.590210
2843.108191	97.111888
2844.425030	100.616783
2845.741651	101.675524
2847.058054	101.257343
2848.372689	98.969231
2849.688658	100.240559
2851.001307	98.353846
2852.315292	95.200000
2853.629060	91.527273
2854.942611	90.272727
2856.254395	90.820979
2857.564414	89.416783
2858.875767	90.758042
2860.183804	92.542657
2861.493177	94.232168
2862.802334	95.176224
2864.111276	95.092308
2865.418455	95.795804
2866.723870	97.448951
2868.030620	96.847552
2869.335607	95.786014
2870.640381	97.127273
2871.943393	99.363636
2873.249287	98.703497
2874.550326	99.262937
2875.852698	100.335664
2877.153311	101.506294
2878.455258	102.808392
2879.756992	100.356643
2881.055422	99.047552
2882.355185	101.749650
2883.653191	99.871329
2884.950985	100.159441
2886.247022	101.909091
2887.544393	97.862937
2888.840008	97.643357
2890.135413	96.111888
2891.430606	95.483916
2892.722501	97.706294
2894.017273	100.791608
2895.308749	98.489510
2896.601557	102.812587
2897.894155	105.448951
2899.183458	104.509091
2900.474094	105.460140
2901.762980	106.050350
2903.053197	101.191608
2904.340123	96.765035
2905.628381	91.565035
2906.914890	87.730070
2908.201190	89.468531
2909.487282	89.888112
2910.771626	88.693706
2912.058842	94.429371
2913.341231	100.055944
2914.624952	100.100699
2915.906926	99.100699
2917.188694	100.446154
2918.468716	96.257343
2919.751608	94.029371
2921.032755	90.895105
2922.310620	94.268531
2923.591354	92.039161
2924.868807	89.925874
2926.146055	91.548252
2927.421560	89.429371
2928.699933	94.976224
2929.973491	92.344056
2931.249917	88.625175
2932.524602	92.370629
2933.797547	90.500699
2935.071822	90.779021
2936.344358	90.193007
2937.616690	91.925874
2938.885749	90.134266
2940.157673	93.397203
2941.427859	93.290909
2942.697841	90.710490
2943.967620	92.023776
2945.235662	88.342657
2946.501969	89.993007
2947.768073	90.363636
2949.035508	90.089510
2950.301207	90.402797
2951.566704	89.896503
2952.831999	86.524476
2954.094030	93.074126
2955.357390	96.137063
2956.620549	96.355245
2957.881975	99.075524
2959.144731	97.359441
2960.405756	94.820979
2961.665050	94.963636
2962.924143	92.931469
2964.183036	95.158042
2965.441729	94.876923
2966.700222	88.545455
2967.956986	88.639161
2969.213551	94.090909
2970.468387	92.766434
2971.724553	90.963636
2972.977463	92.232168
2974.231703	94.002797
2975.485744	90.692308
2976.738059	93.367832
2977.990176	90.960839
2979.240568	87.674126
2980.493815	83.123077
2981.742285	77.525874
2982.993609	82.707692
2984.241685	81.966434
2985.489563	79.758042
2986.737244	78.513287
2987.984729	82.230769
2989.230492	86.555245
2990.476058	88.724476
2991.722953	91.345455
2992.966602	87.275524
2994.211580	86.765035
2995.453315	85.615385
2996.697901	84.871329
2997.940768	88.013986
2999.180393	83.257343
3000.422870	79.869930
3001.662106	78.227972
3002.902670	76.534266
3004.141517	71.139860
3005.380170	73.069930
3006.617107	72.572028
3007.855371	77.827972
3009.091921	83.514685
3010.328277	86.118881
3011.564439	92.302098
3012.798887	98.598601
3014.033142	97.787413
3015.267204	96.650350
3016.499554	93.187413
3017.730192	88.337063
3018.963676	83.395804
3020.195449	83.623776
3021.425510	81.130070
3022.655380	80.096503
3023.883540	77.132867
3025.113027	75.646154
3026.340804	77.296503
3027.568390	78.209790
3028.797302	78.064336
3030.021472	76.809790
3031.248485	73.606993
3032.472275	77.594406
3033.697390	78.881119
3034.920799	79.580420
3036.144019	81.069930
3037.365533	79.311888
3038.589888	78.489510
3039.809508	82.177622
3041.030454	80.609790
3042.251210	80.997203
3043.470263	78.741259
3044.690642	76.404196
3045.907804	76.917483
3047.126291	79.479720
3048.343077	80.310490
3049.559674	84.116084
3050.776084	83.818182
3051.989280	81.458741
3053.205314	80.532867
3054.418136	81.471329
3055.633795	77.328671
3056.844731	75.874126
3058.056993	73.130070
3059.269067	74.752448
3060.480955	75.516084
3061.691145	74.790210
3062.901150	76.823776
3064.110968	78.937063
3065.319090	79.387413
3066.527026	79.144056
3067.733268	78.567832
3068.940834	79.646154
3070.146705	80.485315
3071.352391	81.548252
3072.557893	81.254545
3073.761701	80.321678
3074.966833	74.809790
3076.170272	71.911888
3077.372019	72.251748
3078.573583	74.071329
3079.774963	73.897902
3080.976159	74.481119
3082.175665	76.791608
3083.374987	75.886713
3084.575633	78.860140
3085.774590	82.836364
3086.970351	82.090909
3088.168942	81.741259
3089.364339	81.299301
3090.561060	78.391608
3091.754588	79.998601
3092.950944	77.040559
3094.145613	77.373427
3095.337092	80.120280
3096.532902	78.356643
3097.724019	73.272727
3098.916459	75.949650
3100.105710	78.330070
3101.297788	78.721678
3102.488182	81.841958
3103.675389	81.826573
3104.863920	76.074126
3106.053773	78.451748
3107.240441	76.348252
3108.426930	80.190210
3109.613239	79.507692
3110.800871	75.851748
3111.985320	73.885315
3113.168089	74.325874
3114.353682	74.027972
3115.537594	71.714685
3116.719828	75.151049
3117.901884	75.816783
3119.083761	77.044755
3120.265460	80.186014
3121.445482	83.676923
3122.623826	82.886713
3123.804992	83.580420
3124.982982	82.244755
3126.160795	77.841958
3127.338431	77.061538
3128.514392	72.904895
3129.690177	71.562238
3130.867282	75.995804
3132.042714	76.762238
3133.216472	79.335664
3134.388557	82.041958
3135.561963	85.839161
3136.735194	82.209790
3137.906752	82.783217
3139.079632	80.730070
3140.249344	77.247552
3141.420377	78.135664
3142.589739	72.937063
3143.757432	73.474126
3144.927940	75.676923
3146.093789	78.770629
3147.263948	82.604196
3148.429449	85.236364
3149.594777	87.156643
3150.759931	86.186014
3151.924912	86.834965
3153.091212	84.808392
3154.252859	84.425175
3155.415827	80.088112
3156.578621	79.102098
3157.741243	78.921678
3158.902200	82.248951
3160.062984	84.472727
3161.223597	85.443357
3162.382545	83.779021
3163.541321	80.005594
3164.699926	74.114685
3165.858359	70.165035
3167.016620	65.186014
3168.173219	66.906294
3169.328157	65.772028
3170.484414	69.700699
3171.639011	69.955245
3172.793436	73.756643
3173.946202	78.746853
3175.098798	81.804196
3176.251224	80.634965
3177.403479	76.353846
3178.555565	72.741259
3179.704504	71.444755
3180.856250	71.791608
3182.006339	73.549650
3183.154770	74.741259
3184.303033	72.451748
3185.451127	71.481119
3186.599052	71.497902
3187.745321	74.166434
3188.891422	75.748252
3190.035869	74.267133
3191.180147	74.008392
3192.324258	74.756643
3193.469687	76.942657
3194.611977	78.444755
3195.754099	78.668531
3196.896055	82.857343
3198.037843	79.618182
3199.179464	76.697902
3200.317949	74.408392
3201.457753	74.745455
3202.598873	74.132867
3203.736859	70.325874
3204.873196	71.875524
3206.009367	74.398601
3207.146856	79.320280
3208.282696	80.455944
3209.419852	82.763636
3210.552397	81.949650
3211.689222	77.240559
3212.821436	74.916084
3213.954968	74.479720
3215.088334	71.170629
3216.218573	66.160839
3217.351611	65.530070
3218.481521	67.953846
3219.612749	72.331469
3220.740851	77.027972
3221.871751	77.507692
3223.001006	81.800000
3224.128617	78.520280
3225.253107	78.451748
3226.381872	78.258741
3227.507515	79.216783
3228.632995	74.995804
3229.756834	76.511888
3230.883468	76.787413
3232.005503	73.100699
3233.128855	72.000000
3234.252045	69.662937
3235.375073	69.990210
3236.496461	72.286713
3237.617688	69.927273
3238.737276	71.489510
3239.856703	73.145455
3240.974493	76.467133
3242.095074	77.613986
3243.212542	82.089510
3244.329849	76.373427
3245.446995	72.888112
3246.562506	70.517483
3247.679332	71.448951
3248.793047	70.881119
3249.909553	71.153846
3251.024423	67.746853
3252.136185	67.118881
3253.247788	68.290909
3254.360706	67.478322
3255.473464	66.909091
3256.583116	64.482517
3257.694083	59.576224
3258.804891	59.406993
3259.914067	61.584615
3261.021612	67.615385
3262.130472	66.598601
3263.239173	67.675524
3264.344772	69.660140
3265.451686	73.899301
3266.556970	74.634965
3267.663568	73.374825
3268.767066	69.762238
3269.871878	63.984615
3270.976533	62.653147
3272.078090	61.469930
3273.179490	63.135664
3274.282204	64.434965
3275.384761	62.668531
3276.484223	66.372028
3277.586467	73.071329
3278.685617	76.511888
3279.783141	74.591608
3280.880510	74.759441
3281.980662	70.381818
3283.077720	68.735664
3284.174624	68.756643
3285.271372	67.714685
3286.363561	68.390210
3287.460000	66.172028
3288.554816	65.195804
3289.649477	68.226573
3290.742517	71.995804
3291.835403	72.226573
3292.926668	70.267133
3294.019246	71.137063
3295.110204	69.618182
3296.199542	68.560839
3297.288727	68.304895
3298.379224	68.959441
3299.466637	68.864336
3300.553898	66.914685
3301.642471	70.162238
3302.730891	70.769231
3303.814764	69.641958
3304.902879	68.667133
3305.987913	68.730070
3307.071331	70.390210
3308.156061	66.714685
3309.239175	65.427972
3310.323601	70.055944
3311.404949	68.951049
3312.487609	66.923077
3313.568655	68.952448
3314.649550	72.244755
3315.728832	71.668531
3316.807963	70.439161
3317.888406	74.313287
3318.965774	73.739860
3320.044454	72.685315
3321.121522	68.811189
3322.198440	71.534266
3323.273748	70.956643
3324.348906	69.177622
3325.425375	66.107692
3326.498773	69.779021
3327.572023	72.572028
3328.646584	72.974825
3329.719535	72.647552
3330.790879	74.454545
3331.863533	71.648951
3332.933120	69.254545
3334.004018	66.858741
3335.073309	66.812587
3336.143911	63.415385
3337.212906	63.864336
3338.280295	61.946853
3339.346079	64.600000
3340.416089	66.271329
3341.483036	64.230769
3342.546921	66.120280
3343.613574	69.728671
3344.678623	68.689510
3345.742068	70.756643
3346.805366	69.755245
3347.868519	67.412587
3348.931525	68.034965
3349.994384	69.902098
3351.055642	66.984615
3352.113843	66.481119
3353.176265	66.053147
3354.235630	65.247552
3355.294851	66.613986
3356.355380	67.574825
3357.411400	63.538462
3358.470185	61.490909
3359.524462	55.141259
3360.581503	53.640559
3361.636945	55.868531
3362.693696	58.809790
3363.748850	58.895105
3364.802406	63.408392
3365.854365	66.193007
3366.909086	73.558042
3367.960759	74.602797
3369.012287	78.387413
3370.065125	79.244755
3371.114915	80.983217
3372.166014	81.439161
3373.214066	82.138462
3374.264879	75.808392
3375.312646	73.360839
3376.360271	68.563636
3377.407754	62.271329
3378.453643	57.026573
3379.500842	56.813986
3380.544997	52.555245
3381.591911	55.204196
3382.637233	54.725874
3383.679515	59.517483
3384.721655	60.468531
3385.765104	60.546853
3386.808411	63.051748
3387.850128	65.089510
3388.891704	64.262937
3389.933140	64.923077
3390.972987	64.144056
3392.011245	69.296503
3393.050811	67.953846
3394.090237	69.191608
3395.128075	66.630769
3396.164326	65.064336
3397.200437	69.033566
3398.237856	76.075524
3399.272242	76.107692
3400.307936	71.802797
3401.343490	72.316084
3402.376012	73.483916
3403.411288	68.565035
3404.443533	69.892308
3405.475640	64.279720
3406.506163	65.004196
3407.537994	63.360839
3408.569686	63.325874
3409.598350	70.288112
3410.626877	71.104895
3411.656710	62.441958
3412.686406	62.290909
3413.713075	63.889510
3414.741052	66.594406
3415.766004	67.107692
3416.793706	70.977622
3417.818385	71.979021
3418.844370	76.033566
3419.868776	74.520280
3420.893044	75.453147
3421.915734	73.495105
3422.938289	72.914685
3423.962148	68.530070
3424.982989	68.847552
3426.003693	70.937263
3427.025703	72.216134
3428.044695	71.730669
3429.063552	68.527373
3430.083715	61.652747
3431.100860	50.153297
