-118.155753	-17.400000
-115.486152	-6.200000
-112.819487	-1.200000
-110.153575	-11.800000
-107.490594	-10.800000
-104.826183	9.200000
-102.164703	-10.800000
-99.501794	-21.800000
-96.843992	9.000000
-94.184759	-2.400000
-91.526275	24.400000
-88.870716	-17.800000
-86.213728	19.800000
-83.561837	-35.000000
-80.908517	-23.400000
-78.258117	7.800000
-75.606287	5.200000
-72.959548	-16.200000
-70.311379	-2.400000
-67.663954	-12.800000
-65.019442	3.000000
-62.373501	5.000000
-59.732643	7.600000
-57.090354	1.400000
-54.450975	13.200000
-51.810167	-3.800000
-49.170098	-17.200000
-46.535103	-7.000000
-43.898678	23.600000
-41.265157	-3.600000
-38.630206	-5.600000
-36.000322	-3.800000
-33.366844	7.600000
-30.738429	-10.200000
-28.110748	16.400000
-25.481639	-0.800000
-22.857586	-5.000000
-20.229944	-5.800000
-17.607355	10.800000
-14.985497	3.800000
-12.364370	44.400000
-9.743974	129.000000
-7.126465	339.400000
-4.507528	994.800000
-1.891477	2113.800000
0.723846	2674.200000
3.338442	1870.800000
5.950156	274.400000
8.563297	34.800000
11.171405	11.200000
13.783095	35.600000
16.389754	-3.000000
18.997841	22.000000
21.605204	18.400000
24.207542	19.000000
26.813458	-4.800000
29.414353	14.000000
32.016675	10.200000
34.613979	27.000000
37.214859	-2.400000
39.810725	25.000000
42.408018	-45.000000
45.004592	-12.400000
47.596157	36.000000
50.189150	-11.400000
52.779282	-20.200000
55.370842	21.400000
57.959542	5.000000
60.549670	22.600000
63.134798	-24.400000
65.721354	-27.200000
68.307195	-5.000000
70.890183	-6.600000
73.474598	1.200000
76.051883	17.800000
78.632735	-20.200000
81.210738	25.000000
83.788031	3.800000
86.366750	-5.800000
88.940488	-0.200000
91.515652	-48.400000
94.087973	13.400000
96.659587	-10.200000
99.228360	-6.200000
101.798560	-6.200000
104.365921	14.000000
106.934709	8.200000
109.500659	0.000000
112.063775	1.600000
114.630448	10.200000
117.187898	-0.600000
119.751034	-2.400000
122.309211	-4.400000
124.870942	17.400000
127.427716	3.200000
129.985916	28.600000
132.539164	40.200000
135.091713	82.600000
137.647814	107.200000
140.198966	167.000000
142.749420	169.800000
145.299178	195.400000
147.846116	224.000000
150.392358	199.800000
152.940027	207.800000
155.486999	238.400000
158.029035	228.600000
160.570378	206.400000
163.111029	236.200000
165.653104	206.800000
168.192369	233.400000
170.728824	228.200000
173.264589	199.200000
175.801779	222.600000
178.338277	228.800000
180.871971	237.400000
183.402860	229.000000
185.933061	206.000000
188.464687	223.400000
190.993513	208.000000
193.519539	218.800000
196.044879	203.400000
198.571644	248.200000
201.095613	198.800000
203.618896	229.600000
206.141495	197.000000
208.661301	206.600000
211.180424	243.400000
213.698864	212.200000
216.218728	187.200000
218.731591	228.000000
221.247985	234.800000
223.763698	209.600000
226.274520	216.200000
228.786767	220.200000
231.296231	237.400000
233.805017	228.800000
236.313125	230.800000
238.822657	247.000000
241.327308	203.400000
243.831283	206.600000
246.336682	236.400000
248.837206	195.400000
251.341253	232.200000
253.838330	258.000000
256.338929	240.600000
258.836757	231.600000
261.333912	235.000000
263.830394	260.400000
266.322014	272.800000
268.817152	239.800000
271.309525	241.600000
273.801227	241.200000
276.290166	247.600000
278.780528	239.400000
281.268129	236.000000
283.752970	251.200000
286.241325	215.200000
288.722742	246.400000
291.207672	244.000000
293.687756	245.800000
296.171353	218.000000
298.650108	270.000000
301.130285	254.000000
303.607711	270.600000
306.084473	246.200000
308.560571	269.000000
311.033921	261.000000
313.506610	286.000000
315.978637	293.200000
318.450002	329.200000
320.918624	357.800000
323.386586	320.600000
325.855971	299.800000
328.320533	289.400000
330.788598	271.200000
333.251844	298.000000
335.714433	259.400000
338.176364	248.600000
340.637639	278.000000
343.096180	284.600000
345.556143	265.000000
348.013374	265.600000
350.469950	260.200000
352.925871	265.800000
355.379064	266.400000
357.833679	271.200000
360.283492	257.200000
362.736801	269.200000
365.185311	262.600000
367.633171	282.000000
370.082452	254.800000
372.526940	257.200000
374.972850	243.200000
377.418111	255.200000
379.860653	268.800000
382.302547	294.200000
384.743793	243.200000
387.182324	244.800000
389.622277	247.400000
392.059516	256.800000
394.494043	267.800000
396.932058	257.000000
399.365296	241.800000
401.799956	246.200000
404.229843	264.600000
406.663215	261.000000
409.091816	282.200000
411.519777	229.600000
413.949158	258.400000
416.373775	263.000000
418.799812	253.600000
421.225210	259.800000
423.649967	262.200000
426.069965	288.000000
428.491385	254.200000
430.910108	257.800000
433.330252	266.600000
435.747701	272.800000
438.166570	243.800000
440.582746	280.600000
442.994175	253.800000
445.409080	263.800000
447.821295	274.000000
450.232876	258.200000
452.643823	256.800000
455.052084	240.200000
457.459713	240.600000
459.866709	255.400000
462.273073	239.400000
464.676756	254.800000
467.079808	256.800000
469.482230	257.800000
471.884022	252.600000
474.283136	246.400000
476.683670	249.800000
479.083575	245.400000
481.478757	264.600000
483.877406	247.800000
486.271335	289.200000
488.664638	260.800000
491.057315	261.400000
493.449367	252.600000
495.842838	230.800000
498.231596	245.000000
500.617688	226.400000
503.005200	237.800000
505.392088	206.400000
507.776313	194.800000
510.161957	191.800000
512.544938	180.000000
514.925259	176.600000
517.306999	168.800000
519.686080	163.200000
522.066580	156.600000
524.444422	162.800000
526.819609	175.400000
529.194178	147.400000
531.570166	154.200000
533.943500	141.600000
536.318253	171.400000
538.688319	164.400000
541.057770	165.600000
543.428640	141.800000
545.794828	148.400000
548.162435	144.600000
550.527396	157.800000
552.891744	142.800000
555.255480	170.800000
557.620633	157.600000
559.981114	173.000000
562.343012	155.800000
564.702271	138.200000
567.058891	145.200000
569.418957	150.000000
571.772331	131.400000
574.129150	128.200000
576.483334	159.400000
578.836909	156.400000
581.189876	126.600000
583.540212	153.600000
585.891964	136.800000
588.237040	156.200000
590.587580	150.000000
592.931447	126.200000
595.280775	155.000000
597.625454	135.800000
599.967509	121.600000
602.310981	131.800000
604.651830	153.000000
606.992076	134.400000
609.329702	125.600000
611.670763	128.000000
614.007187	130.400000
616.345027	129.200000
618.680249	127.200000
621.012856	138.400000
623.346880	107.000000
625.678289	128.000000
628.009100	136.400000
630.339313	145.600000
632.668929	165.800000
634.993921	149.200000
637.324355	92.200000
639.650167	142.600000
641.973373	140.600000
644.297995	104.400000
646.620011	92.200000
648.941433	126.800000
651.260252	110.400000
653.580487	137.400000
655.900129	124.600000
658.217170	116.600000
660.533620	124.800000
662.847471	135.600000
665.162737	121.400000
667.475407	137.800000
669.789492	120.600000
672.098978	99.800000
674.409878	95.600000
676.718186	140.200000
679.025906	134.200000
681.335041	100.000000
683.639583	142.000000
685.943539	117.000000
688.246908	114.000000
690.551692	113.400000
692.851890	102.000000
695.153503	128.800000
697.454530	129.000000
699.750976	114.000000
702.048836	113.400000
704.346114	113.000000
706.642807	136.800000
708.934925	112.800000
711.230454	106.000000
713.521410	94.800000
715.813780	109.800000
718.103574	124.800000
720.392789	87.600000
722.681423	121.000000
724.967486	121.200000
727.254962	128.600000
729.539868	120.600000
731.824195	129.000000
734.105955	130.400000
736.389128	137.400000
738.671724	92.600000
740.949764	144.000000
743.229218	103.200000
745.508097	146.200000
747.786400	129.000000
750.060154	139.400000
752.335322	114.400000
754.609916	135.400000
756.881951	136.600000
759.155399	147.200000
761.426289	116.800000
763.694622	126.600000
765.964370	110.400000
768.231562	122.600000
770.498184	115.800000
772.764237	125.800000
775.027738	129.000000
777.292651	131.600000
779.556996	114.200000
781.816810	122.000000
784.078038	126.400000
786.338698	118.600000
788.596811	131.400000
790.852380	150.200000
793.111340	120.000000
795.363801	139.400000
797.621629	146.400000
799.874938	128.800000
802.125706	132.000000
804.377887	109.800000
806.627530	125.400000
808.878584	135.400000
811.125127	141.600000
813.373083	135.000000
815.618503	116.600000
817.865336	148.400000
820.111606	91.400000
822.353373	125.200000
824.598522	107.000000
826.837199	119.200000
829.079259	110.600000
831.316820	116.400000
833.555792	124.200000
835.792238	105.800000
838.030096	120.400000
840.265428	123.200000
842.498236	111.600000
844.732456	137.400000
846.964154	117.600000
849.195297	110.600000
851.425885	99.600000
853.655919	103.600000
855.885398	115.200000
858.110397	123.600000
860.338769	102.400000
862.562663	114.200000
864.787967	129.000000
867.008796	111.800000
869.232997	122.600000
871.452725	107.600000
873.673864	123.200000
875.894452	124.800000
878.112531	108.800000
880.332019	102.000000
882.547041	125.600000
884.761515	131.800000
886.975442	109.800000
889.188821	109.600000
891.401654	142.000000
893.613939	108.400000
895.823723	135.400000
898.032961	116.000000
900.241653	110.000000
902.447847	108.600000
904.655450	124.800000
906.860556	125.800000
909.065118	107.800000
911.267185	100.800000
913.470661	102.400000
915.671643	118.000000
917.872083	135.000000
920.073932	132.000000
922.269390	113.200000
924.468206	122.400000
926.662585	102.600000
928.860321	130.200000
931.053621	131.400000
933.248329	115.200000
935.440552	108.000000
937.632237	124.200000
939.823384	113.200000
942.012048	116.800000
944.200175	117.200000
946.385822	119.000000
948.574821	134.200000
950.759397	130.600000
952.943438	123.000000
955.130829	132.000000
957.309917	142.200000
959.492354	149.800000
961.674258	119.600000
963.853688	156.800000
966.030645	148.000000
968.209010	123.400000
970.388781	149.400000
972.562204	159.200000
974.738973	140.000000
976.911336	141.600000
979.085106	156.800000
981.254472	160.400000
983.427182	153.200000
985.597426	135.000000
987.767142	139.800000
989.936329	153.400000
992.101119	142.000000
994.269251	163.200000
996.432987	142.800000
998.598131	152.400000
1000.760815	169.000000
1002.922974	196.800000
1005.082675	177.400000
1007.241853	169.800000
1009.402437	172.600000
1011.560566	144.000000
1013.718171	141.200000
1015.875253	170.000000
1018.031812	179.600000
1020.183991	176.600000
1022.337577	151.600000
1024.490640	162.400000
1026.641256	161.800000
1028.793277	164.600000
1030.940925	156.600000
1033.091905	186.800000
1035.238515	182.400000
1037.384605	169.600000
1039.530177	210.000000
1041.677153	171.600000
1043.817842	196.800000
1045.961859	179.000000
1048.103437	199.600000
1050.244497	193.000000
1052.386962	192.800000
1054.523148	219.800000
1056.662660	205.600000
1058.797816	201.600000
1060.936297	180.400000
1063.070425	188.400000
1065.204039	170.200000
1067.339057	186.800000
1069.469726	175.800000
1071.601801	177.400000
1073.731445	191.400000
1075.860578	162.400000
1077.989200	164.800000
1080.117310	181.600000
1082.242994	160.400000
1084.368168	177.600000
1086.494745	165.000000
1088.616986	186.600000
1090.740631	168.600000
1092.859941	186.000000
1094.984480	143.800000
1097.102775	151.200000
1099.222473	140.000000
1101.339753	157.200000
1103.456527	172.800000
1105.572794	164.200000
1107.686646	179.600000
1109.801901	149.000000
1111.912834	161.600000
1114.027078	149.000000
1116.137003	114.000000
1118.248330	162.200000
1120.359154	140.000000
1122.465661	175.200000
1124.575477	175.200000
1126.680979	207.200000
1128.787885	127.400000
1130.888574	142.600000
1132.994476	165.200000
1135.096069	151.600000
1137.199065	138.400000
1139.301560	153.600000
1141.397849	177.800000
1143.499344	137.200000
1145.596537	158.200000
1147.693231	140.400000
1149.789428	132.200000
1151.885126	153.600000
1153.980327	123.000000
1156.073131	120.800000
1158.167337	154.400000
1160.255352	158.000000
1162.348565	148.400000
1164.435590	137.200000
1166.525915	162.400000
1168.611951	147.000000
1170.701285	148.000000
1172.784438	161.800000
1174.868994	154.000000
1176.954950	125.600000
1179.036625	143.800000
1181.119702	135.200000
1183.200393	124.000000
1185.280593	165.800000
1187.360301	144.400000
1189.439518	139.400000
1191.516352	143.600000
1193.590806	134.800000
1195.668552	150.000000
1197.742027	125.200000
1199.816904	122.400000
1201.887513	132.800000
1203.959523	116.200000
1206.029157	144.400000
1208.100192	129.400000
1210.170739	132.200000
1212.237025	123.400000
1214.304712	151.200000
1216.370027	163.000000
1218.436742	154.400000
1220.499201	128.800000
1222.564946	139.400000
1224.626436	120.600000
1226.689326	150.600000
1228.749849	133.400000
1230.809889	113.400000
1232.869445	152.200000
1234.926637	143.200000
1236.983346	168.000000
1239.037693	132.200000
1241.095320	144.400000
1243.150585	135.800000
1245.201609	158.200000
1247.254033	110.600000
1249.305978	135.600000
1251.355564	131.000000
1253.404671	144.000000
1255.453299	134.200000
1257.501449	139.600000
1259.549121	158.400000
1261.592562	131.000000
1263.639278	120.000000
1265.683642	151.800000
1267.727528	133.400000
1269.769064	131.600000
1271.808250	123.600000
1273.850708	156.200000
1275.888945	127.000000
1277.928579	152.600000
1279.967739	128.000000
1282.002681	147.600000
1284.039021	166.600000
1286.073016	167.000000
1288.108410	189.600000
1290.139590	184.600000
1292.172169	203.200000
1294.204275	183.200000
1296.234041	170.600000
1298.265205	185.200000
1300.292161	191.600000
1302.320515	185.200000
1304.344665	186.200000
1306.372080	206.200000
1308.395292	216.200000
1310.419902	221.200000
1312.442177	211.400000
1314.465850	235.800000
1316.487190	232.400000
1318.508063	260.600000
1320.528468	251.200000
1322.544679	241.200000
1324.562289	258.800000
1326.577570	262.000000
1328.596110	259.400000
1330.610460	263.200000
1332.622485	240.600000
1334.637768	274.200000
1336.648865	279.600000
1338.661358	283.800000
1340.669669	279.400000
1342.681236	289.000000
1344.686764	259.800000
1346.695546	237.600000
1348.700152	233.600000
1350.708011	236.000000
1352.715407	237.200000
1354.716773	228.400000
1356.719536	224.600000
1358.721839	199.000000
1360.723681	212.200000
1362.725065	183.000000
1364.724134	176.000000
1366.722745	189.000000
1368.720898	177.200000
1370.718593	193.800000
1372.712124	158.800000
1374.707052	190.600000
1376.701523	178.000000
1378.695537	159.000000
1380.687244	182.600000
1382.678495	171.000000
1384.667441	173.000000
1386.657782	129.600000
1388.647668	141.400000
1390.635251	143.200000
1392.622380	158.400000
1394.607207	137.600000
1396.593429	155.800000
1398.577350	141.400000
1400.560819	151.600000
1402.543836	152.800000
1404.524555	156.400000
1406.506668	150.600000
1408.486484	136.400000
1410.465850	141.000000
1412.441077	118.800000
1414.419542	139.200000
1416.395714	140.000000
1418.371436	126.800000
1420.346709	140.400000
1422.319691	134.400000
1424.292226	144.200000
1426.264312	162.800000
1428.235950	133.800000
1430.203461	143.200000
1432.176045	151.000000
1434.140823	142.400000
1436.110674	136.200000
1438.076400	118.400000
1440.043520	153.200000
1442.008356	120.000000
1443.969072	133.800000
1445.934856	138.000000
1447.894685	147.200000
1449.855907	128.400000
1451.818522	113.000000
1453.777022	139.600000
1455.735080	137.600000
1457.692695	138.200000
1459.649869	123.200000
1461.604767	117.800000
1463.561057	105.000000
1465.515073	146.600000
1467.468649	127.200000
1469.419952	147.000000
1471.372647	136.000000
1473.323071	141.200000
1475.273056	122.000000
1477.222601	152.400000
1479.169878	141.200000
1481.114888	124.000000
1483.061290	125.400000
1485.007254	131.600000
1486.952780	130.800000
1488.896042	134.200000
1490.838867	129.800000
1492.779429	135.200000
1494.721382	150.000000
1496.661074	139.000000
1498.600330	120.600000
1500.539152	147.400000
1502.475714	134.600000
1504.413666	157.200000
1506.349361	136.200000
1508.284622	123.600000
1510.217626	137.600000
1512.150198	147.000000
1514.082338	160.800000
1516.014046	179.800000
1517.943501	149.600000
1519.874345	165.800000
1521.804759	169.800000
1523.731100	163.000000
1525.658831	164.000000
1527.584312	161.800000
1529.509364	157.800000
1531.433987	137.800000
1533.358181	151.200000
1535.280128	158.600000
1537.203464	167.200000
1539.124555	175.400000
1541.043401	166.400000
1542.963637	192.000000
1544.881629	211.000000
1546.799195	186.000000
1548.714519	198.600000
1550.631233	183.600000
1552.543892	221.000000
1554.459755	237.800000
1556.373379	241.000000
1558.284764	226.800000
1560.197538	222.400000
1562.106263	237.600000
1564.016378	283.800000
1565.926069	270.400000
1567.835336	242.400000
1569.742370	237.000000
1571.647171	259.800000
1573.553361	254.400000
1575.457319	258.000000
1577.360857	222.200000
1579.263973	247.200000
1581.164861	259.200000
1583.067137	228.000000
1584.967184	217.400000
1586.868620	243.000000
1588.766021	233.400000
1590.663005	216.800000
1592.559570	222.000000
1594.457522	212.400000
1596.349640	221.000000
1598.244952	216.400000
1600.139845	204.800000
1602.032517	192.800000
1603.924773	201.600000
1605.814809	229.200000
1607.704429	172.600000
1609.593634	179.400000
1611.482423	175.000000
1613.368996	171.200000
1615.256955	154.200000
1617.140899	155.600000
1619.026229	163.000000
1620.911146	169.000000
1622.793849	140.200000
1624.677938	136.000000
1626.558017	163.600000
1628.439482	158.400000
1630.318737	127.600000
1632.199378	151.600000
1634.074215	132.800000
1635.954034	129.600000
1637.829847	141.600000
1639.705251	173.000000
1641.582040	136.600000
1643.453032	90.000000
1645.327206	150.200000
1647.197382	145.400000
1649.070738	112.800000
1650.941891	147.600000
1652.810842	147.600000
1654.681179	110.800000
1656.547522	149.400000
1658.415252	111.600000
1660.280782	144.000000
1662.147697	112.600000
1664.010624	121.600000
1665.874936	125.200000
1667.737053	104.400000
1669.598764	113.200000
1671.461860	133.400000
1673.322762	115.000000
1675.181470	122.600000
1677.039775	129.000000
1678.899465	128.600000
1680.753388	110.400000
1682.610483	123.600000
1684.467176	116.600000
1686.319893	123.000000
1688.175781	119.400000
1690.027695	113.400000
1691.879208	146.800000
1693.730320	123.200000
1695.581031	113.400000
1697.431342	112.400000
1699.279469	141.800000
1701.128979	98.200000
1702.972741	126.200000
1704.821453	109.800000
1706.664418	107.400000
1708.510549	115.600000
1710.352719	131.400000
1712.198053	121.600000
1714.037647	110.800000
1715.878625	120.000000
1717.720986	127.800000
1719.559391	113.800000
1721.399179	129.200000
1723.236792	112.000000
1725.074009	113.400000
1726.909053	116.800000
1728.745480	131.200000
1730.579735	147.000000
1732.413596	110.000000
1734.247062	102.400000
1736.076582	115.000000
1737.909261	101.400000
1739.737996	96.000000
1741.569889	125.400000
1743.397839	124.000000
1745.225397	103.400000
1747.052564	117.800000
1748.879338	118.800000
1750.705722	119.400000
1752.528169	148.800000
1754.353770	145.400000
1756.175437	133.200000
1757.998486	116.800000
1759.819374	101.200000
1761.639872	120.200000
1763.461752	106.000000
1765.277932	127.800000
1767.097264	122.200000
1768.912669	115.800000
1770.731225	111.000000
1772.545855	103.000000
1774.360098	116.600000
1776.173955	128.200000
1777.987425	117.200000
1779.798741	113.400000
1781.611439	98.600000
1783.423750	117.200000
1785.232144	120.000000
1787.041919	96.600000
1788.847778	112.600000
1790.656784	99.800000
1792.461876	96.000000
1794.268348	108.000000
1796.074437	100.800000
1797.876616	108.200000
1799.681938	128.800000
1801.483352	110.000000
1803.286146	113.000000
1805.085035	126.400000
1806.885303	115.000000
1808.685191	116.000000
1810.482936	125.400000
1812.280301	97.800000
1814.077285	141.400000
1815.873889	114.600000
1817.668354	132.800000
1819.464199	137.000000
1821.254388	87.400000
1823.049474	113.000000
1824.838907	112.400000
1826.631478	125.000000
1828.421913	104.400000
1830.210213	118.800000
1832.001649	103.200000
1833.787440	122.800000
1835.574609	99.200000
1837.359647	131.200000
1839.147819	110.200000
1840.932105	120.200000
1842.714262	111.400000
1844.497797	126.600000
1846.279205	120.400000
1848.061990	135.200000
1849.840896	90.800000
1851.621180	109.400000
1853.399339	121.200000
1855.178875	142.600000
1856.956287	114.000000
1858.731575	117.000000
1860.508242	126.600000
1862.282786	127.200000
1864.058707	106.800000
1865.829009	105.000000
1867.602438	104.400000
1869.373747	125.400000
1871.144685	115.200000
1872.917000	115.800000
1874.683703	113.000000
1876.453530	115.000000
1878.219494	104.400000
1879.988582	114.800000
1881.753808	149.200000
1883.518666	137.800000
1885.284900	122.800000
1887.047276	89.600000
1888.809285	119.200000
1890.570927	116.000000
1892.332201	119.800000
1894.093109	122.400000
1895.853649	104.000000
1897.612080	129.600000
1899.370146	119.400000
1901.126104	113.000000
1902.883438	121.600000
1904.640406	113.800000
1906.395269	119.000000
1908.148026	117.200000
1909.900420	102.000000
1911.654190	146.400000
1913.405856	123.400000
1915.155419	122.000000
1916.906359	114.800000
1918.656935	138.400000
1920.403673	105.200000
1922.151786	117.200000
1923.897800	136.200000
1925.645190	131.000000
1927.390481	110.000000
1929.133675	111.800000
1930.878245	96.800000
1932.620718	124.600000
1934.362831	125.400000
1936.104585	119.600000
1937.845978	122.800000
1939.585278	118.400000
1941.324219	116.600000
1943.062801	89.800000
1944.799291	105.000000
1946.535424	101.300000
1948.272931	97.600000
1950.006617	135.600000
1951.741677	130.000000
1953.474648	132.600000
1955.207263	134.600000
1956.939521	116.400000
1958.671423	120.600000
1960.401239	133.000000
1962.128971	128.800000
1963.858077	105.600000
1965.586827	127.800000
1967.313494	107.000000
1969.039807	130.000000
1970.767493	126.800000
1972.489643	131.000000
1974.214895	105.400000
1975.936339	103.600000
1977.660883	114.000000
1979.383348	100.400000
1981.102009	143.200000
1982.823769	111.600000
1984.541727	117.400000
1986.261059	136.000000
1987.976590	116.000000
1989.696943	134.000000
1991.413496	113.600000
1993.126254	108.000000
1994.842107	124.200000
1996.555888	99.000000
1998.269318	133.400000
1999.980678	114.600000
2001.693411	122.800000
2003.402352	112.600000
2005.114387	106.800000
2006.820912	110.200000
2008.530530	121.200000
2010.238080	105.000000
2011.945283	128.000000
2013.650420	141.800000
2015.355210	112.400000
2017.061372	86.000000
2018.763752	135.800000
2020.467504	123.800000
2022.169193	80.400000
2023.870536	86.200000
2025.571534	122.200000
2027.270472	123.200000
2028.970781	133.400000
2030.667314	124.200000
2032.365219	102.000000
2034.061066	122.800000
2035.759998	148.800000
2037.453444	115.400000
2039.148261	136.000000
2040.842735	108.200000
2042.533441	109.600000
2044.227231	125.600000
2045.917254	126.800000
2047.608648	117.600000
2049.297989	110.000000
2050.988700	125.200000
2052.675649	116.800000
2054.362257	108.200000
2056.050236	114.600000
2057.734455	130.800000
2059.420044	133.000000
2061.105294	115.800000
2062.788496	131.400000
2064.473068	114.200000
2066.152176	144.600000
2067.836070	113.000000
2069.514504	120.200000
2071.196015	110.000000
2072.873774	124.000000
2074.551197	123.600000
2076.229989	130.200000
2077.906738	92.800000
2079.581446	137.600000
2081.257523	101.800000
2082.931560	125.200000
2084.605261	108.600000
2086.278627	110.600000
2087.949955	139.000000
2089.620948	99.000000
2091.291607	109.200000
2092.961932	136.800000
2094.631922	137.400000
2096.299877	107.800000
2097.967499	131.400000
2099.633087	134.400000
2101.300043	131.800000
2102.964966	98.600000
2104.629556	133.800000
2106.292115	106.600000
2107.956043	142.000000
2109.617939	117.200000
2111.279504	126.800000
2112.940739	124.800000
2114.599944	119.800000
2116.258820	103.400000
2117.917365	142.200000
2119.575581	147.400000
2121.230074	122.800000
2122.887631	132.600000
2124.544858	116.000000
2126.198365	113.400000
2127.853239	109.200000
2129.504394	126.000000
2131.158612	106.200000
2132.809112	93.200000
2134.460980	98.400000
2136.107439	103.600000
2137.758652	116.600000
2139.406153	145.800000
2141.055020	109.600000
2142.701868	113.400000
2144.348391	127.200000
2145.994588	118.800000
2147.637076	133.200000
2149.282623	120.200000
2150.924463	135.200000
2152.569360	94.800000
2154.210552	121.200000
2155.851420	105.400000
2157.491965	118.000000
2159.130497	143.000000
2160.770395	107.200000
2162.406593	119.600000
2164.044157	104.800000
2165.681399	115.000000
2167.316631	105.800000
2168.951541	96.600000
2170.586130	109.800000
2172.220398	118.400000
2173.850972	101.600000
2175.484597	126.400000
2177.114531	118.200000
2178.745830	113.400000
2180.375125	132.400000
2182.004099	109.000000
2183.632755	122.000000
2185.261091	112.400000
2186.887424	113.000000
2188.513439	107.000000
2190.137453	105.200000
2191.762832	138.400000
2193.386210	102.200000
2195.010953	104.400000
2196.632014	117.200000
2198.252760	138.200000
2199.874869	111.600000
2201.494981	132.800000
2203.113097	122.800000
2204.730897	104.400000
2206.348381	101.000000
2207.965550	124.400000
2209.582404	118.800000
2211.198943	97.600000
2212.813488	132.400000
2214.426042	125.200000
2216.039959	134.600000
2217.651884	131.800000
2219.265174	103.200000
2220.876472	131.800000
2222.485782	106.200000
2224.096454	127.600000
2225.705138	108.600000
2227.313510	129.600000
2228.919894	101.800000
2230.527642	98.200000
2232.133403	123.800000
2233.738853	114.600000
2235.342319	93.800000
2236.947147	130.600000
2238.549991	141.200000
2240.150852	101.400000
2241.753076	118.800000
2243.353317	122.200000
2244.954922	104.600000
2246.552873	124.800000
2248.152187	93.000000
2249.749521	117.000000
2251.346547	116.400000
2252.944934	129.600000
2254.539673	145.800000
2256.132436	86.200000
2257.726560	133.000000
2259.322046	126.200000
2260.913888	117.800000
2262.505423	101.200000
2264.098319	124.000000
2265.685906	105.800000
2267.278190	100.400000
2268.865166	123.000000
2270.455171	91.400000
2272.039871	121.400000
2273.629265	72.800000
2275.213356	107.400000
2276.798809	112.800000
2278.382293	105.200000
2279.968802	110.200000
2281.551678	112.600000
2283.134250	91.000000
2284.716520	124.600000
2286.295159	99.000000
2287.876822	124.800000
2289.454858	131.800000
2291.035916	141.200000
2292.613347	118.100000
2294.188815	95.000000
2295.767305	102.200000
2297.342170	126.400000
2298.916735	124.000000
2300.491000	133.000000
2302.064964	125.800000
2303.638628	121.600000
2305.211991	115.800000
2306.781736	117.600000
2308.351182	124.400000
2309.923647	96.200000
2311.490837	95.600000
2313.061044	120.600000
2314.627637	95.000000
2316.195590	120.000000
2317.761588	110.000000
2319.327288	155.800000
2320.892690	101.000000
2322.456139	122.400000
2324.020947	129.000000
2325.582146	144.400000
2327.146360	144.200000
2328.705313	143.800000
2330.267279	103.600000
2331.827295	146.200000
2333.387015	99.600000
2334.944786	129.800000
2336.502263	104.400000
2338.059444	108.600000
2339.614679	115.000000
2341.169619	124.800000
2342.724266	114.200000
2344.278619	105.000000
2345.832678	109.400000
2347.386444	128.400000
2348.938265	99.800000
2350.488143	103.000000
2352.041029	107.200000
2353.588673	126.200000
2355.139324	121.200000
2356.686385	90.600000
2358.234803	82.200000
2359.782929	124.000000
2361.327468	106.800000
2362.873364	131.000000
2364.417321	103.000000
2365.962636	85.800000
2367.504366	117.200000
2369.047454	124.800000
2370.588605	113.200000
2372.129467	102.400000
2373.670040	113.800000
2375.210324	107.400000
2376.750319	119.800000
2378.286735	109.000000
2379.826153	147.600000
2381.361994	146.800000
2382.899191	99.000000
2384.432814	120.600000
2385.969436	153.000000
2387.504127	101.800000
2389.036889	103.200000
2390.569365	131.200000
2392.099912	96.600000
2393.633457	117.000000
2395.161791	106.800000
2396.691481	113.000000
2398.220886	130.800000
2399.750006	150.400000
2401.278840	122.000000
2402.802470	108.800000
2404.330735	108.800000
2405.853797	125.400000
2407.381494	135.600000
2408.902350	126.400000
2410.427840	118.400000
2411.949770	93.400000
2413.473054	122.800000
2414.994418	106.400000
2416.513862	102.600000
2418.034661	124.000000
2419.553541	124.800000
2421.072139	129.000000
2422.588820	92.800000
2424.106856	132.000000
2425.624610	101.400000
2427.138812	119.600000
2428.652734	109.800000
2430.166377	119.000000
2431.681373	116.800000
2433.192821	115.800000
2434.705624	121.200000
2436.216514	92.600000
2437.727124	113.400000
2439.235823	120.400000
2440.747509	129.400000
2442.255651	122.200000
2443.763514	130.000000
2445.271100	112.800000
2446.775146	125.400000
2448.282176	114.200000
2449.787298	108.200000
2451.292143	123.400000
2452.795081	88.600000
2454.297742	142.200000
2455.800127	101.400000
2457.300607	99.000000
2458.802440	83.800000
2460.302369	125.400000
2461.802022	126.400000
2463.301400	118.600000
2464.798875	115.000000
2466.294448	117.800000
2467.793001	119.600000
2469.288026	111.200000
2470.784403	95.800000
2472.277254	112.200000
2473.771457	101.000000
2475.265387	120.200000
2476.755794	107.800000
2478.249178	122.400000
2479.740663	119.000000
2481.230252	113.200000
2482.719570	120.000000
2484.206991	121.800000
2485.697388	105.800000
2487.184266	149.400000
2488.672496	104.600000
2490.157210	113.400000
2491.641653	123.400000
2493.127448	106.600000
2494.611350	123.200000
2496.096604	103.400000
2497.576724	102.200000
2499.059816	143.600000
2500.541018	112.000000
2502.021951	111.200000
2503.500995	121.800000
2504.979771	135.600000
2506.458278	111.200000
2507.936516	131.800000
2509.414486	75.000000
2510.888952	99.600000
2512.366386	122.600000
2513.840317	86.800000
2515.315599	121.800000
2516.790613	101.400000
2518.262126	117.600000
2519.734990	119.600000
2521.205971	122.200000
2522.678301	142.200000
2524.145519	83.800000
2525.615703	104.200000
2527.084005	118.000000
2528.552043	115.800000
2530.019816	117.400000
2531.487324	108.200000
2532.954567	120.400000
2534.418319	117.200000
2535.883420	117.200000
2537.346644	123.400000
2538.811217	94.200000
2540.272301	116.200000
2541.734736	126.000000
2543.196907	130.200000
2544.655591	114.600000
2546.118848	129.600000
2547.577008	116.000000
2549.036517	146.200000
2550.490933	102.200000
2551.949919	114.400000
2553.407032	117.000000
2554.862275	130.400000
2556.317257	141.600000
2557.770369	125.000000
2559.224830	106.800000
2560.677422	138.200000
2562.129754	118.200000
2563.580218	112.400000
2565.033638	117.200000
2566.481976	134.000000
2567.933270	111.200000
2569.382697	117.200000
2570.828653	92.000000
2572.277563	112.800000
2573.723002	107.600000
2575.169790	99.400000
2576.614714	93.400000
2578.059381	140.200000
2579.505395	134.000000
2580.947942	123.400000
2582.391837	94.800000
2583.832267	126.600000
2585.274045	96.600000
2586.713963	142.000000
2588.155228	121.800000
2589.593031	124.600000
2591.033784	131.000000
2592.469474	128.800000
2593.908114	117.400000
2595.344897	139.000000
2596.779823	115.600000
2598.217698	145.600000
2599.650515	103.400000
2601.084679	103.000000
2602.516988	133.400000
2603.950644	141.000000
2605.382447	158.200000
2606.813997	128.400000
2608.245293	104.800000
2609.674738	133.600000
2611.103930	111.600000
2612.531271	118.200000
2613.959959	152.800000
2615.388394	122.000000
2616.813383	110.600000
2618.239717	139.000000
2619.664203	153.800000
2621.090035	147.000000
2622.512423	131.600000
2623.936157	126.800000
2625.358045	124.200000
2626.779682	118.600000
2628.199474	129.400000
2629.620612	137.600000
2631.041500	149.800000
2632.458950	163.200000
2633.879339	152.800000
2635.296291	126.600000
2636.712995	136.600000
2638.129450	159.200000
2639.545657	142.800000
2640.961615	118.000000
2642.375733	159.800000
2643.789604	152.400000
2645.201635	183.400000
2646.615011	131.800000
2648.024957	169.800000
2649.437839	141.200000
2650.847292	137.600000
2652.256499	125.000000
2653.663870	129.600000
2655.074175	160.000000
2656.482644	139.400000
2657.889278	154.800000
2659.295667	132.000000
2660.700222	131.600000
2662.106121	171.400000
2663.510187	160.800000
2664.914009	154.600000
2666.317586	151.800000
2667.719331	137.600000
2669.122420	142.200000
2670.522092	167.200000
2671.923107	159.200000
2673.320705	161.600000
2674.721234	129.800000
2676.118348	156.400000
2677.516805	176.200000
2678.913434	148.400000
2680.309822	149.200000
2681.705967	165.600000
2683.100286	143.400000
2684.495948	145.400000
2685.888200	139.400000
2687.281796	126.600000
2688.673567	121.000000
2690.066680	171.800000
2691.457970	138.800000
2692.847437	138.400000
2694.236665	147.400000
2695.625652	141.200000
2697.015982	142.200000
2698.401327	153.400000
2699.789597	144.600000
2701.176046	136.000000
2702.562256	151.000000
2703.948227	129.200000
2705.330800	107.200000
2706.714714	132.600000
2708.098391	141.600000
2709.481830	150.400000
2710.861873	138.600000
2712.243258	118.800000
2713.622827	133.600000
2715.003738	128.000000
2716.382834	150.400000
2717.760115	120.200000
2719.138738	116.200000
2720.515548	140.600000
2721.892122	117.600000
2723.268460	122.400000
2724.642986	139.000000
2726.018853	123.400000
2727.391333	116.000000
2728.766730	136.600000
2730.137165	123.200000
2731.508942	121.600000
2732.880485	135.800000
2734.250219	106.400000
2735.621293	134.200000
2736.990560	111.800000
2738.359593	131.800000
2739.726819	104.200000
2741.093813	100.600000
2742.460574	121.400000
2743.827102	135.000000
2745.191826	105.200000
2746.556317	118.600000
2747.920576	117.600000
2749.284604	143.200000
2750.648399	92.400000
2752.008821	120.800000
2753.372154	152.400000
2754.730544	120.600000
2756.091844	115.600000
2757.449773	84.600000
2758.810612	130.200000
2760.169650	122.800000
2761.525320	115.000000
2762.883899	122.200000
2764.239110	108.600000
2765.594092	91.600000
2766.947277	110.200000
2768.303369	92.400000
2769.656097	118.200000
2771.008596	82.200000
2772.360867	119.800000
2773.714477	98.600000
2775.064725	94.400000
2776.413180	110.600000
2777.764539	108.400000
2779.112539	97.800000
2780.461878	110.800000
2781.809424	122.600000
2783.156743	94.600000
2784.503836	100.800000
2785.849138	118.600000
2787.194214	86.800000
2788.539064	106.600000
2789.883688	101.800000
2791.224959	107.400000
2792.567569	110.200000
2793.909954	100.800000
2795.252113	134.800000
2796.590923	82.200000
2797.932633	96.800000
2799.270994	103.600000
2800.610693	134.600000
2801.948606	100.800000
2803.284735	98.600000
2804.620641	105.200000
2805.957883	104.200000
2807.293342	116.000000
2808.628578	104.800000
2809.962032	96.400000
2811.296822	104.000000
2812.628271	126.600000
2813.962616	129.800000
2815.292063	115.000000
2816.622847	100.000000
2817.953409	111.600000
2819.282192	131.400000
2820.612312	98.000000
2821.940652	103.800000
2823.268772	116.400000
2824.595115	120.000000
2825.922793	116.600000
2827.247139	123.800000
2828.572820	79.400000
2829.896727	95.400000
2831.220413	107.000000
2832.545435	79.600000
2833.867128	115.600000
2835.188601	131.200000
2836.509856	108.400000
2837.830892	106.600000
2839.150156	108.000000
2840.470755	126.200000
2841.789582	120.400000
2843.108191	100.400000
2844.425030	94.800000
2845.741651	121.200000
2847.058054	112.000000
2848.372689	104.600000
2849.688658	113.000000
2851.001307	124.000000
2852.315292	81.600000
2853.629060	81.000000
2854.942611	101.400000
2856.254395	116.000000
2857.564414	120.400000
2858.875767	119.400000
2860.183804	102.200000
2861.493177	111.600000
2862.802334	130.800000
2864.111276	104.400000
2865.418455	114.600000
2866.723870	91.600000
2868.030620	97.400000
2869.335607	87.200000
2870.640381	106.000000
2871.943393	108.600000
2873.249287	140.800000
2874.550326	98.600000
2875.852698	100.600000
2877.153311	95.200000
2878.455258	92.400000
2879.756992	127.400000
2881.055422	106.400000
2882.355185	110.600000
2883.653191	106.000000
2884.950985	114.600000
2886.247022	93.200000
2887.544393	129.000000
2888.840008	108.800000
2890.135413	121.800000
2891.430606	101.600000
2892.722501	105.200000
2894.017273	105.600000
2895.308749	127.400000
2896.601557	103.200000
2897.894155	107.200000
2899.183458	116.200000
2900.474094	125.800000
2901.762980	98.200000
2903.053197	123.600000
2904.340123	100.600000
2905.628381	104.200000
2906.914890	106.800000
2908.201190	75.000000
2909.487282	119.800000
2910.771626	122.400000
2912.058842	89.600000
2913.341231	106.400000
2914.624952	110.800000
2915.906926	83.600000
2917.188694	108.400000
2918.468716	119.200000
2919.751608	111.200000
2921.032755	92.200000
2922.310620	75.200000
2923.591354	103.200000
2924.868807	111.800000
2926.146055	115.400000
2927.421560	96.600000
2928.699933	97.600000
2929.973491	82.400000
2931.249917	115.600000
2932.524602	92.600000
2933.797547	99.400000
2935.071822	114.200000
2936.344358	81.400000
2937.616690	71.800000
2938.885749	93.800000
2940.157673	96.000000
2941.427859	108.000000
2942.697841	101.400000
2943.967620	115.000000
2945.235662	120.200000
2946.501969	117.000000
2947.768073	75.800000
2949.035508	100.400000
2950.301207	86.200000
2951.566704	109.800000
2952.831999	113.000000
2954.094030	107.200000
2955.357390	116.400000
2956.620549	100.000000
2957.881975	105.600000
2959.144731	97.600000
2960.405756	105.600000
2961.665050	91.200000
2962.924143	100.400000
2964.183036	131.000000
2965.441729	100.600000
2966.700222	111.800000
2967.956986	104.400000
2969.213551	123.600000
2970.468387	100.200000
2971.724553	103.200000
2972.977463	109.600000
2974.231703	132.200000
2975.485744	97.800000
2976.738059	108.000000
2977.990176	126.600000
2979.240568	99.000000
2980.493815	77.200000
2981.742285	90.400000
2982.993609	108.000000
2984.241685	82.400000
2985.489563	115.000000
2986.737244	88.200000
2987.984729	109.000000
2989.230492	97.000000
2990.476058	96.200000
2991.722953	98.400000
2992.966602	133.600000
2994.211580	93.600000
2995.453315	90.400000
2996.697901	71.200000
2997.940768	69.800000
2999.180393	110.200000
3000.422870	110.200000
3001.662106	87.800000
3002.902670	98.400000
3004.141517	88.600000
3005.380170	57.400000
3006.617107	104.200000
3007.855371	98.200000
3009.091921	66.400000
3010.328277	96.000000
3011.564439	122.200000
3012.798887	93.200000
3014.033142	115.600000
3015.267204	76.400000
3016.499554	100.600000
3017.730192	96.600000
3018.963676	92.400000
3020.195449	85.200000
3021.425510	76.800000
3022.655380	101.000000
3023.883540	102.600000
3025.113027	82.800000
3026.340804	87.200000
3027.568390	113.200000
3028.797302	93.000000
3030.021472	106.000000
3031.248485	76.200000
3032.472275	66.200000
3033.697390	88.400000
3034.920799	93.400000
3036.144019	75.600000
3037.365533	95.600000
3038.589888	90.200000
3039.809508	90.200000
3041.030454	84.200000
3042.251210	64.000000
3043.470263	94.000000
3044.690642	105.600000
3045.907804	89.800000
3047.126291	72.000000
3048.343077	81.600000
3049.559674	80.000000
3050.776084	120.800000
3051.989280	86.600000
3053.205314	92.400000
3054.418136	102.800000
3055.633795	92.800000
3056.844731	96.200000
3058.056993	79.200000
3059.269067	77.000000
3060.480955	101.000000
3061.691145	85.000000
3062.901150	82.800000
3064.110968	88.600000
3065.319090	102.600000
3066.527026	76.800000
3067.733268	96.000000
3068.940834	96.400000
3070.146705	103.600000
3071.352391	110.800000
3072.557893	72.000000
3073.761701	89.000000
3074.966833	72.200000
3076.170272	74.000000
3077.372019	88.200000
3078.573583	97.200000
3079.774963	80.600000
3080.976159	94.600000
3082.175665	100.800000
3083.374987	109.200000
3084.575633	115.800000
3085.774590	68.000000
3086.970351	91.000000
3088.168942	87.600000
3089.364339	84.000000
3090.561060	90.200000
3091.754588	87.000000
3092.950944	95.400000
3094.145613	108.000000
3095.337092	102.800000
3096.532902	84.200000
3097.724019	101.000000
3098.916459	93.800000
3100.105710	117.200000
3101.297788	116.400000
3102.488182	62.200000
3103.675389	95.800000
3104.863920	86.000000
3106.053773	76.800000
3107.240441	115.800000
3108.426930	75.400000
3109.613239	90.400000
3110.800871	93.000000
3111.985320	103.800000
3113.168089	68.400000
3114.353682	90.000000
3115.537594	100.600000
3116.719828	69.000000
3117.901884	92.800000
3119.083761	85.600000
3120.265460	103.600000
3121.445482	110.800000
3122.623826	99.800000
3123.804992	88.400000
3124.982982	88.400000
3126.160795	71.200000
3127.338431	112.000000
3128.514392	63.800000
3129.690177	108.800000
3130.867282	83.000000
3132.042714	91.200000
3133.216472	76.200000
3134.388557	74.400000
3135.561963	96.200000
3136.735194	115.000000
3137.906752	62.200000
3139.079632	78.200000
3140.249344	74.800000
3141.420377	53.400000
3142.589739	84.000000
3143.757432	74.600000
3144.927940	103.200000
3146.093789	84.000000
3147.263948	63.800000
3148.429449	104.400000
3149.594777	101.800000
3150.759931	91.800000
3151.924912	111.200000
3153.091212	85.800000
3154.252859	82.000000
3155.415827	77.400000
3156.578621	76.400000
3157.741243	84.000000
3158.902200	74.000000
3160.062984	112.400000
3161.223597	80.400000
3162.382545	91.400000
3163.541321	88.800000
3164.699926	91.400000
3165.858359	63.200000
3167.016620	83.000000
3168.173219	74.400000
3169.328157	48.000000
3170.484414	69.600000
3171.639011	91.000000
3172.793436	110.200000
3173.946202	95.000000
3175.098798	81.200000
3176.251224	83.000000
3177.403479	73.800000
3178.555565	71.400000
3179.704504	72.400000
3180.856250	97.200000
3182.006339	63.200000
3183.154770	64.600000
3184.303033	84.800000
3185.451127	74.200000
3186.599052	93.000000
3187.745321	85.200000
3188.891422	74.200000
3190.035869	88.400000
3191.180147	78.800000
3192.324258	70.800000
3193.469687	89.200000
3194.611977	93.800000
3195.754099	90.000000
3196.896055	108.800000
3198.037843	76.400000
3199.179464	83.200000
3200.317949	84.800000
3201.457753	89.000000
3202.598873	111.400000
3203.736859	67.600000
3204.873196	92.000000
3206.009367	92.800000
3207.146856	94.400000
3208.282696	87.600000
3209.419852	71.400000
3210.552397	101.600000
3211.689222	99.800000
3212.821436	94.600000
3213.954968	77.800000
3215.088334	71.200000
3216.218573	59.800000
3217.351611	82.400000
3218.481521	81.800000
3219.612749	78.000000
3220.740851	67.000000
3221.871751	80.200000
3223.001006	80.000000
3224.128617	72.600000
3225.253107	96.600000
3226.381872	74.000000
3227.507515	77.200000
3228.632995	97.800000
3229.756834	72.400000
3230.883468	99.200000
3232.005503	87.400000
3233.128855	104.200000
3234.252045	72.000000
3235.375073	79.400000
3236.496461	59.200000
3237.617688	89.400000
3238.737276	85.600000
3239.856703	98.000000
3240.974493	104.200000
3242.095074	94.000000
3243.212542	99.200000
3244.329849	82.800000
3245.446995	74.000000
3246.562506	82.600000
3247.679332	72.200000
3248.793047	75.000000
3249.909553	91.000000
3251.024423	67.800000
3252.136185	84.000000
3253.247788	97.800000
3254.360706	63.800000
3255.473464	85.000000
3256.583116	83.400000
3257.694083	84.400000
3258.804891	88.200000
3259.914067	55.400000
3261.021612	98.800000
3262.130472	68.400000
3263.239173	70.800000
3264.344772	81.800000
3265.451686	76.600000
3266.556970	85.000000
3267.663568	48.600000
3268.767066	75.200000
3269.871878	78.200000
3270.976533	62.000000
3272.078090	67.600000
3273.179490	76.000000
3274.282204	67.000000
3275.384761	89.800000
3276.484223	89.200000
3277.586467	77.000000
3278.685617	93.800000
3279.783141	97.200000
3280.880510	75.800000
3281.980662	88.400000
3283.077720	77.000000
3284.174624	76.600000
3285.271372	61.000000
3286.363561	54.800000
3287.460000	70.800000
3288.554816	74.400000
3289.649477	94.800000
3290.742517	77.200000
3291.835403	79.800000
3292.926668	67.200000
3294.019246	67.000000
3295.110204	81.200000
3296.199542	77.000000
3297.288727	59.600000
3298.379224	76.400000
3299.466637	81.600000
3300.553898	69.800000
3301.642471	80.600000
3302.730891	68.200000
3303.814764	95.800000
3304.902879	91.400000
3305.987913	70.400000
3307.071331	78.800000
3308.156061	75.000000
3309.239175	66.400000
3310.323601	83.600000
3311.404949	91.600000
3312.487609	70.800000
3313.568655	77.000000
3314.649550	76.600000
3315.728832	95.600000
3316.807963	64.200000
3317.888406	84.800000
3318.965774	99.600000
3320.044454	68.000000
3321.121522	92.800000
3322.198440	75.000000
3323.273748	90.800000
3324.348906	68.000000
3325.425375	60.000000
3326.498773	71.600000
3327.572023	93.800000
3328.646584	85.000000
3329.719535	91.200000
3330.790879	65.200000
3331.863533	98.200000
3332.933120	76.600000
3334.004018	82.600000
3335.073309	79.200000
3336.143911	63.400000
3337.212906	80.000000
3338.280295	87.600000
3339.346079	81.000000
3340.416089	79.000000
3341.483036	46.800000
3342.546921	70.200000
3343.613574	67.600000
3344.678623	61.800000
3345.742068	82.000000
3346.805366	63.400000
3347.868519	44.200000
3348.931525	80.400000
3349.994384	61.400000
3351.055642	80.000000
3352.113843	67.200000
3353.176265	44.200000
3354.235630	89.600000
3355.294851	77.400000
3356.355380	63.600000
3357.411400	74.000000
3358.470185	87.200000
3359.524462	63.400000
3360.581503	64.400000
3361.636945	67.800000
3362.693696	56.200000
3363.748850	62.400000
3364.802406	101.400000
3365.854365	99.800000
3366.909086	62.400000
3367.960759	102.800000
3369.012287	84.800000
3370.065125	82.400000
3371.114915	83.800000
3372.166014	89.000000
3373.214066	80.200000
3374.264879	88.000000
3375.312646	73.800000
3376.360271	60.600000
3377.407754	63.400000
3378.453643	69.600000
3379.500842	72.000000
3380.544997	86.200000
3381.591911	63.600000
3382.637233	70.000000
3383.679515	100.600000
3384.721655	74.000000
3385.765104	69.800000
3386.808411	53.400000
3387.850128	97.000000
3388.891704	80.600000
3389.933140	62.600000
3390.972987	91.200000
3392.011245	88.800000
3393.050811	70.600000
3394.090237	88.400000
3395.128075	82.800000
3396.164326	68.000000
3397.200437	71.600000
3398.237856	62.200000
3399.272242	67.000000
3400.307936	48.000000
3401.343490	63.600000
3402.376012	98.000000
3403.411288	51.800000
3404.443533	48.600000
3405.475640	82.600000
3406.506163	67.800000
3407.537994	55.400000
3408.569686	60.000000
3409.598350	90.200000
3410.626877	74.800000
3411.656710	81.000000
3412.686406	67.000000
3413.713075	80.800000
3414.741052	66.400000
3415.766004	73.800000
3416.793706	54.200000
3417.818385	79.800000
3418.844370	86.000000
3419.868776	92.200000
3420.893044	73.200000
3421.915734	62.000000
3422.938289	62.200000
3423.962148	68.400000
3424.982989	70.800000
3426.003693	70.000000
3427.025703	79.600000
3428.044695	91.600000
3429.063552	58.200000
3430.083715	60.200000
3431.100860	86.000000
