-118.702670	21.400000
-116.033069	29.600000
-113.366404	19.400000
-110.700491	21.800000
-108.037511	35.600000
-105.373100	46.600000
-102.711620	37.400000
-100.048711	64.800000
-97.390908	17.800000
-94.731676	53.600000
-92.073192	38.000000
-89.417633	51.400000
-86.760644	28.200000
-84.108754	43.000000
-81.455434	29.800000
-78.805033	52.400000
-76.153204	3.200000
-73.506465	69.200000
-70.858296	28.600000
-68.210870	62.600000
-65.566359	46.400000
-62.920418	37.400000
-60.279559	60.200000
-57.637271	36.400000
-54.997892	43.400000
-52.357084	50.600000
-49.717015	50.600000
-47.082020	61.000000
-44.445595	42.600000
-41.812073	63.000000
-39.177123	51.800000
-36.547239	60.000000
-33.913761	48.600000
-31.285346	59.400000
-28.657665	60.800000
-26.028555	97.200000
-23.404503	45.800000
-20.776860	94.400000
-18.154272	108.000000
-15.532414	130.800000
-12.911287	176.000000
-10.290891	416.400000
-7.673382	1331.000000
-5.054445	4324.200000
-2.438394	10320.600000
0.176930	12772.200000
2.791525	7259.000000
5.403239	1053.000000
8.016381	155.600000
10.624489	86.200000
13.236178	89.400000
15.842837	91.400000
18.450925	59.000000
21.058287	83.600000
23.660625	74.600000
26.266542	71.000000
28.867436	56.600000
31.469758	68.800000
34.067062	103.000000
36.667943	79.400000
39.263808	72.200000
41.861101	78.400000
44.457675	50.600000
47.049240	66.200000
49.642234	72.400000
52.232366	64.800000
54.823925	62.400000
57.412626	89.800000
60.002753	58.600000
62.587881	91.400000
65.174437	64.000000
67.760278	115.800000
70.343266	62.200000
72.927681	100.400000
75.504967	78.200000
78.085818	106.800000
80.663822	109.000000
83.241114	95.000000
85.819834	108.000000
88.393571	97.200000
90.968735	117.400000
93.541056	98.600000
96.112670	112.000000
98.681443	127.200000
101.251643	129.000000
103.819004	124.600000
106.387792	161.800000
108.953743	201.200000
111.516859	220.800000
114.083531	269.200000
116.640981	377.600000
119.204117	480.800000
121.762294	655.200000
124.324025	978.600000
126.880799	1478.200000
129.438999	2175.800000
131.992247	3248.200000
134.544797	4780.000000
137.100897	6721.600000
139.652049	8965.800000
142.202504	11232.200000
144.752261	13006.800000
147.299199	14589.000000
149.845442	15233.200000
152.393110	15668.200000
154.940082	15910.000000
157.482118	15855.800000
160.023462	15727.600000
162.564112	15757.200000
165.106187	15588.000000
167.645452	15657.600000
170.181907	15506.800000
172.717672	15454.200000
175.254862	15301.800000
177.791361	15234.600000
180.325054	15331.200000
182.855943	15169.200000
185.386144	15059.600000
187.917771	15145.000000
190.446596	15068.000000
192.972622	15017.600000
195.497962	15101.400000
198.024727	14980.000000
200.548696	14993.000000
203.071979	14853.800000
205.594578	15007.600000
208.114384	14877.600000
210.633507	14768.000000
213.151947	14714.000000
215.671812	14794.800000
218.184674	14887.000000
220.701068	14844.800000
223.216781	14894.600000
225.727603	14805.400000
228.239850	14984.000000
230.749314	15006.800000
233.258100	14889.200000
235.766208	14986.400000
238.275740	15069.600000
240.780391	15104.400000
243.284366	15086.800000
245.789765	15113.800000
248.290289	15139.000000
250.794336	15299.800000
253.291413	15155.800000
255.792012	15274.000000
258.289840	15435.000000
260.786995	15241.800000
263.283478	15178.400000
265.775097	15372.000000
268.270236	15389.400000
270.762608	15251.800000
273.254310	15358.800000
275.743249	15347.400000
278.233611	15350.800000
280.721212	15124.200000
283.206053	15318.600000
285.694409	15305.600000
288.175825	15241.600000
290.660755	15217.400000
293.140839	15269.000000
295.624436	15191.400000
298.103191	15308.200000
300.583368	15331.200000
303.060794	15384.800000
305.537556	15296.400000
308.013654	15307.000000
310.487004	15176.800000
312.959693	15352.200000
315.431720	15344.600000
317.903085	15464.200000
320.371707	15514.000000
322.839669	15516.600000
325.309054	15327.600000
327.773616	15351.400000
330.241682	15387.000000
332.704927	15268.000000
335.167516	15278.000000
337.629448	15221.400000
340.090723	15207.000000
342.549263	15154.000000
345.009226	15216.200000
347.466457	14990.000000
349.923033	15094.800000
352.378955	14922.200000
354.832147	14762.000000
357.286762	14528.400000
359.736575	14465.200000
362.189884	14408.800000
364.638394	14150.600000
367.086254	14074.400000
369.535536	13945.800000
371.980023	13874.800000
374.425933	13734.800000
376.871194	13549.000000
379.313736	13574.800000
381.755630	13344.000000
384.196876	13345.400000
386.635408	13127.800000
389.075360	13045.200000
391.512599	12941.400000
393.947127	12728.000000
396.385141	12739.400000
398.818380	12492.200000
401.253039	12503.600000
403.682926	12422.200000
406.116298	12379.400000
408.544900	12373.400000
410.972860	12181.000000
413.402241	12202.800000
415.826858	12214.200000
418.252895	12106.000000
420.678293	12030.200000
423.103050	12034.800000
425.523048	11975.600000
427.944468	12011.800000
430.363192	11927.400000
432.783335	11905.800000
435.200784	11923.400000
437.619654	11931.400000
440.035829	11920.000000
442.447258	11868.600000
444.862163	11795.000000
447.274378	11758.800000
449.685960	11912.800000
452.096907	11853.800000
454.505167	11775.000000
456.912796	11707.800000
459.319792	11699.800000
461.726157	11778.000000
464.129839	11538.600000
466.532891	11650.800000
468.935313	11534.600000
471.337105	11530.000000
473.736219	11502.000000
476.136753	11499.600000
478.536658	11448.200000
480.931841	11250.600000
483.330489	11318.800000
485.724418	11396.000000
488.117721	11160.200000
490.510399	11276.600000
492.902451	11222.000000
495.295921	11171.800000
497.684679	11188.600000
500.070771	11080.200000
502.458283	11076.400000
504.845172	11012.200000
507.229396	10978.400000
509.615040	10934.400000
511.998022	10966.600000
514.378342	10926.400000
516.760083	10999.400000
519.139164	10867.200000
521.519663	10830.800000
523.897506	10852.800000
526.272692	10925.400000
528.647261	10822.400000
531.023249	10874.800000
533.396584	10740.800000
535.771336	10615.800000
538.141402	10611.600000
540.510854	10427.400000
542.881723	10492.000000
545.247911	10285.400000
547.615518	10316.200000
549.980479	10005.400000
552.344828	10052.000000
554.708563	9904.400000
557.073716	9903.800000
559.434197	9727.200000
561.796095	9553.800000
564.155354	9357.800000
566.511974	9336.600000
568.872040	9283.200000
571.225414	9111.200000
573.582233	9057.000000
575.936417	8898.000000
578.289992	8764.400000
580.642960	8640.200000
582.993295	8452.600000
585.345048	8422.800000
587.690124	8254.800000
590.040663	8066.600000
592.384530	8096.800000
594.733858	8082.800000
597.078537	7981.200000
599.420592	7919.400000
601.764064	7850.000000
604.104913	7808.000000
606.445159	7794.800000
608.782785	7785.800000
611.123846	7584.200000
613.460270	7671.200000
615.798110	7575.400000
618.133333	7604.000000
620.465939	7648.000000
622.799963	7666.000000
625.131372	7739.800000
627.462183	7752.200000
629.792396	7726.600000
632.122012	7625.000000
634.447004	7700.400000
636.777438	7667.400000
639.103251	7595.200000
641.426456	7713.000000
643.751078	7601.800000
646.073094	7583.800000
648.394516	7664.000000
650.713335	7598.800000
653.033571	7620.200000
655.353212	7698.200000
657.670254	7643.600000
659.986703	7735.600000
662.300554	7784.400000
664.615821	7849.800000
666.928491	7906.600000
669.242576	7886.800000
671.552061	7986.600000
673.862962	8085.600000
676.171270	8039.600000
678.478989	8186.800000
680.788124	8387.600000
683.092666	8371.400000
685.396622	8386.000000
687.699991	8456.200000
690.004776	8542.800000
692.304973	8680.000000
694.606586	8729.000000
696.907613	8700.400000
699.204059	8775.600000
701.501920	8939.200000
703.799197	8972.200000
706.095891	9076.800000
708.388009	9011.800000
710.683538	9087.600000
712.974493	9292.400000
715.266863	9266.400000
717.556657	9204.000000
719.845872	9389.000000
722.134507	9463.400000
724.420569	9643.200000
726.708045	9677.400000
728.992951	9694.000000
731.277279	9746.200000
733.559038	9791.200000
735.842211	9948.200000
738.124807	9909.200000
740.402847	10047.200000
742.682301	10086.200000
744.961180	10334.600000
747.239484	10415.400000
749.513237	10459.400000
751.788405	10464.400000
754.062999	10558.000000
756.335034	10636.200000
758.608482	10900.800000
760.879372	10853.600000
763.147706	10946.600000
765.417453	11065.600000
767.684645	11147.800000
769.951268	11198.000000
772.217320	11274.400000
774.480821	11327.800000
776.745734	11520.600000
779.010079	11594.000000
781.269893	11570.400000
783.531121	11621.600000
785.791781	11794.400000
788.049895	11875.600000
790.305464	11921.400000
792.564423	12037.000000
794.816884	12151.200000
797.074712	12248.400000
799.328021	12065.400000
801.578790	12250.000000
803.830971	12250.000000
806.080613	12325.400000
808.331667	12297.400000
810.578210	12289.400000
812.826166	12358.600000
815.071586	12543.000000
817.318419	12468.400000
819.564689	12562.000000
821.806456	12605.400000
824.051605	12632.200000
826.290283	12748.400000
828.532342	12735.000000
830.769903	12821.200000
833.008876	12999.200000
835.245322	12889.000000
837.483179	12924.600000
839.718511	12947.200000
841.951320	13285.200000
844.185539	13234.600000
846.417237	13424.400000
848.648380	13730.200000
850.878968	13543.000000
853.109002	13918.200000
855.338481	13961.400000
857.563480	14165.600000
859.791852	14389.600000
862.015746	14522.600000
864.241051	14802.200000
866.461880	15066.800000
868.686081	15314.000000
870.905809	15512.600000
873.126947	15726.400000
875.347535	16045.400000
877.565614	16295.800000
879.785102	16497.200000
882.000124	16745.400000
884.214598	17055.800000
886.428525	17296.400000
888.641904	17340.600000
890.854737	17416.000000
893.067022	17566.200000
895.276806	17695.400000
897.486044	17750.400000
899.694737	17726.200000
901.900930	17635.200000
904.108533	17571.400000
906.313639	17398.000000
908.518201	17232.400000
910.720268	16990.600000
912.923744	16881.600000
915.124726	16618.600000
917.325166	16154.400000
919.527015	15956.200000
921.722473	15624.200000
923.921289	15239.600000
926.115668	14991.400000
928.313404	14506.600000
930.506704	14236.600000
932.701413	13872.600000
934.893635	13646.600000
937.085320	13395.400000
939.276467	13114.000000
941.465131	12960.800000
943.653259	12826.200000
945.838905	12650.600000
948.027905	12565.000000
950.212480	12621.600000
952.396521	12561.600000
954.583913	12411.600000
956.763000	12621.000000
958.945438	12593.000000
961.127342	12552.600000
963.306771	12630.000000
965.483728	12537.600000
967.662093	12468.400000
969.841865	12573.000000
972.015288	12498.600000
974.192057	12372.600000
976.364419	12330.200000
978.538189	12328.000000
980.707555	12075.800000
982.880265	12053.400000
985.050510	11754.600000
987.220225	11568.800000
989.389412	11428.400000
991.554202	11290.600000
993.722334	11254.000000
995.886070	10954.400000
998.051214	10724.800000
1000.213898	10672.800000
1002.376057	10349.600000
1004.535759	10380.400000
1006.694936	10108.400000
1008.855520	9974.400000
1011.013649	9804.400000
1013.171255	9622.400000
1015.328337	9340.000000
1017.484895	9338.800000
1019.637074	9280.800000
1021.790660	9108.400000
1023.943724	8958.600000
1026.094339	8916.400000
1028.246360	8773.000000
1030.394009	8743.800000
1032.544989	8694.800000
1034.691598	8405.200000
1036.837688	8388.000000
1038.983260	8363.400000
1041.130237	8265.800000
1043.270925	8249.800000
1045.414942	8050.800000
1047.556520	8070.600000
1049.697580	8028.200000
1051.840046	7888.600000
1053.976231	7860.600000
1056.115743	7817.800000
1058.250899	7638.600000
1060.389380	7651.000000
1062.523508	7538.600000
1064.657122	7512.200000
1066.792140	7426.200000
1068.922810	7462.200000
1071.054884	7326.800000
1073.184528	7248.600000
1075.313661	7217.200000
1077.442283	7146.200000
1079.570393	7119.400000
1081.696077	6929.600000
1083.821251	6938.400000
1085.947829	6879.200000
1088.070069	6773.600000
1090.193714	6676.800000
1092.313024	6668.800000
1094.437563	6461.400000
1096.555858	6429.800000
1098.675556	6414.800000
1100.792837	6259.800000
1102.909610	6223.800000
1105.025877	6099.400000
1107.139729	5995.400000
1109.254984	5903.400000
1111.365917	5864.200000
1113.480162	5778.200000
1115.590086	5666.200000
1117.701413	5597.600000
1119.812237	5485.800000
1121.918744	5425.200000
1124.028560	5355.200000
1126.134062	5288.600000
1128.240968	5225.800000
1130.341658	5094.800000
1132.447560	5077.600000
1134.549153	4971.800000
1136.652148	4951.000000
1138.754644	4887.800000
1140.850932	4772.400000
1142.952427	4704.000000
1145.049620	4681.800000
1147.146314	4523.400000
1149.242511	4467.800000
1151.338209	4495.600000
1153.433410	4407.000000
1155.526214	4275.000000
1157.620420	4321.800000
1159.708435	4241.800000
1161.801648	4211.800000
1163.888674	4202.000000
1165.978998	4145.800000
1168.065034	4114.000000
1170.154368	4008.200000
1172.237521	3972.200000
1174.322077	3964.400000
1176.408034	3885.000000
1178.489709	3846.000000
1180.572785	3828.600000
1182.653476	3763.600000
1184.733676	3688.800000
1186.813384	3725.200000
1188.892601	3720.400000
1190.969435	3693.400000
1193.043889	3622.800000
1195.121635	3649.200000
1197.195110	3563.200000
1199.269987	3579.000000
1201.340596	3595.800000
1203.412606	3507.200000
1205.482240	3515.800000
1207.553275	3520.600000
1209.623822	3539.600000
1211.690109	3526.600000
1213.757796	3472.800000
1215.823110	3464.800000
1217.889825	3353.000000
1219.952284	3464.200000
1222.018029	3457.000000
1224.079519	3451.200000
1226.142410	3425.200000
1228.202932	3400.400000
1230.262972	3441.400000
1232.322528	3440.400000
1234.379720	3419.000000
1236.436429	3422.000000
1238.490776	3401.400000
1240.548403	3416.200000
1242.603668	3394.800000
1244.654693	3393.600000
1246.707117	3414.000000
1248.759061	3385.800000
1250.808647	3420.200000
1252.857754	3391.000000
1254.906382	3407.800000
1256.954532	3459.400000
1259.002204	3414.400000
1261.045645	3393.400000
1263.092362	3399.000000
1265.136725	3397.600000
1267.180611	3351.600000
1269.222147	3369.200000
1271.261333	3312.800000
1273.303792	3412.000000
1275.342028	3408.800000
1277.381663	3398.200000
1279.420822	3384.800000
1281.455764	3401.200000
1283.492104	3388.400000
1285.526100	3479.800000
1287.561493	3442.200000
1289.592673	3469.200000
1291.625252	3423.600000
1293.657359	3476.400000
1295.687125	3415.200000
1297.718288	3411.600000
1299.745244	3434.200000
1301.773599	3452.600000
1303.797748	3478.400000
1305.825163	3463.000000
1307.848375	3494.200000
1309.872985	3506.200000
1311.895260	3511.200000
1313.918933	3434.400000
1315.940273	3497.000000
1317.961146	3486.600000
1319.981551	3504.200000
1321.997763	3529.200000
1324.015372	3431.400000
1326.030653	3485.000000
1328.049193	3532.000000
1330.063543	3514.400000
1332.075568	3599.200000
1334.090851	3525.000000
1336.101948	3566.400000
1338.114441	3580.800000
1340.122752	3591.000000
1342.134319	3528.200000
1344.139847	3593.200000
1346.148630	3522.000000
1348.153235	3571.800000
1350.161094	3598.600000
1352.168491	3572.200000
1354.169857	3572.800000
1356.172619	3600.000000
1358.174922	3650.800000
1360.176765	3595.800000
1362.178148	3601.600000
1364.177217	3590.400000
1366.175828	3620.000000
1368.173981	3666.600000
1370.171676	3593.400000
1372.165208	3659.400000
1374.160135	3700.000000
1376.154606	3596.400000
1378.148620	3724.000000
1380.140327	3636.200000
1382.131578	3641.000000
1384.120524	3635.400000
1386.110865	3586.800000
1388.100752	3581.400000
1390.088334	3647.600000
1392.075463	3639.000000
1394.060290	3625.200000
1396.046512	3679.600000
1398.030433	3642.400000
1400.013902	3651.600000
1401.996919	3622.000000
1403.977638	3717.600000
1405.959751	3620.200000
1407.939567	3556.600000
1409.918933	3548.800000
1411.894160	3620.400000
1413.872625	3582.800000
1415.848797	3600.400000
1417.824519	3607.600000
1419.799792	3609.200000
1421.772775	3655.600000
1423.745309	3646.400000
1425.717395	3601.200000
1427.689034	3622.000000
1429.656544	3624.400000
1431.629128	3575.000000
1433.593906	3603.600000
1435.563757	3578.000000
1437.529483	3589.600000
1439.496603	3591.000000
1441.461439	3535.200000
1443.422155	3577.000000
1445.387939	3583.800000
1447.347768	3510.600000
1449.308991	3534.800000
1451.271605	3544.800000
1453.230105	3503.400000
1455.188163	3535.600000
1457.145779	3594.400000
1459.102952	3545.800000
1461.057850	3559.000000
1463.014141	3549.000000
1464.968157	3519.800000
1466.921732	3549.800000
1468.873035	3531.800000
1470.825730	3555.000000
1472.776154	3494.600000
1474.726139	3474.800000
1476.675685	3502.200000
1478.622962	3465.000000
1480.567971	3503.200000
1482.514373	3504.800000
1484.460337	3481.000000
1486.405864	3487.200000
1488.349125	3483.000000
1490.291950	3522.000000
1492.232512	3368.000000
1494.174466	3427.600000
1496.114157	3467.000000
1498.053413	3484.600000
1499.992235	3515.400000
1501.928797	3476.600000
1503.866750	3470.400000
1505.802444	3420.000000
1507.737705	3526.600000
1509.670709	3455.800000
1511.603281	3446.200000
1513.535421	3442.600000
1515.467129	3439.400000
1517.396584	3456.800000
1519.327429	3477.400000
1521.257842	3478.200000
1523.184183	3458.200000
1525.111914	3461.200000
1527.037396	3503.800000
1528.962448	3475.000000
1530.887070	3552.800000
1532.811264	3418.800000
1534.733211	3476.200000
1536.656548	3436.800000
1538.577638	3424.000000
1540.496484	3431.600000
1542.416720	3430.000000
1544.334712	3383.400000
1546.252278	3437.600000
1548.167603	3367.600000
1550.084317	3413.400000
1551.996975	3338.800000
1553.912838	3412.000000
1555.826462	3421.000000
1557.737847	3412.200000
1559.650622	3378.800000
1561.559347	3409.800000
1563.469461	3446.600000
1565.379152	3393.600000
1567.288420	3354.000000
1569.195453	3429.800000
1571.100254	3416.200000
1573.006444	3391.000000
1574.910403	3454.800000
1576.813940	3374.200000
1578.717057	3353.000000
1580.617944	3449.000000
1582.520220	3429.200000
1584.420267	3383.000000
1586.321703	3402.400000
1588.219104	3402.200000
1590.116088	3377.800000
1592.012653	3431.000000
1593.910605	3357.400000
1595.802723	3375.800000
1597.698035	3401.800000
1599.592928	3377.600000
1601.485601	3405.000000
1603.377856	3325.000000
1605.267892	3350.600000
1607.157512	3360.600000
1609.046717	3348.400000
1610.935506	3374.600000
1612.822079	3372.400000
1614.710039	3433.600000
1616.593982	3361.200000
1618.479312	3372.600000
1620.364229	3369.000000
1622.246932	3339.600000
1624.131022	3329.200000
1626.011100	3361.800000
1627.892566	3285.600000
1629.771820	3392.000000
1631.652462	3359.800000
1633.527299	3368.800000
1635.407117	3365.400000
1637.282930	3334.600000
1639.158334	3395.800000
1641.035123	3325.200000
1642.906115	3304.600000
1644.780290	3318.200000
1646.650465	3312.800000
1648.523821	3337.800000
1650.394974	3325.600000
1652.263925	3387.800000
1654.134262	3293.600000
1656.000606	3326.600000
1657.868335	3329.200000
1659.733865	3304.000000
1661.600781	3330.400000
1663.463707	3255.400000
1665.328020	3284.400000
1667.190136	3246.600000
1669.051847	3328.600000
1670.914943	3288.600000
1672.775845	3225.000000
1674.634554	3278.600000
1676.492859	3251.600000
1678.352548	3265.800000
1680.206471	3268.000000
1682.063567	3198.000000
1683.920259	3260.200000
1685.772976	3249.400000
1687.628864	3256.200000
1689.480778	3249.800000
1691.332291	3233.200000
1693.183403	3220.000000
1695.034114	3191.200000
1696.884425	3213.200000
1698.732552	3234.400000
1700.582063	3257.000000
1702.425824	3174.800000
1704.274536	3231.200000
1706.117501	3283.000000
1707.963632	3197.200000
1709.805802	3172.600000
1711.651137	3263.200000
1713.490730	3184.600000
1715.331709	3204.200000
1717.174070	3204.800000
1719.012474	3197.800000
1720.852262	3170.400000
1722.689875	3171.000000
1724.527093	3160.600000
1726.362137	3178.800000
1728.198564	3172.000000
1730.032818	3177.000000
1731.866679	3169.200000
1733.700145	3174.800000
1735.529665	3103.200000
1737.362345	3137.400000
1739.191079	3147.400000
1741.022972	3192.000000
1742.850922	3130.200000
1744.678480	3110.600000
1746.505647	3125.400000
1748.332422	3142.200000
1750.158805	3148.800000
1751.981252	3180.800000
1753.806854	3121.600000
1755.628520	3152.600000
1757.451569	3121.000000
1759.272457	3078.600000
1761.092955	3106.000000
1762.914835	3179.200000
1764.731015	3094.200000
1766.550347	3032.600000
1768.365752	3136.400000
1770.184308	3087.000000
1771.998938	3115.000000
1773.813181	3148.600000
1775.627038	3088.400000
1777.440508	3066.000000
1779.251824	3072.400000
1781.064522	3108.200000
1782.876834	3075.400000
1784.685227	3112.200000
1786.495002	3104.400000
1788.300861	3070.200000
1790.109867	3122.400000
1791.914959	3074.000000
1793.721432	3056.800000
1795.527520	3051.600000
1797.329699	3064.400000
1799.135021	3050.800000
1800.936435	3040.800000
1802.739230	3039.600000
1804.538118	3028.200000
1806.338387	3001.600000
1808.138274	3017.000000
1809.936019	3045.000000
1811.733384	2991.800000
1813.530368	3070.400000
1815.326972	3043.600000
1817.121437	2987.200000
1818.917282	2987.600000
1820.707471	2996.000000
1822.502557	2988.000000
1824.291990	2946.400000
1826.084561	2997.200000
1827.874996	3014.600000
1829.663296	2953.200000
1831.454732	2985.000000
1833.240523	2899.600000
1835.027692	3002.200000
1836.812731	2881.800000
1838.600902	2962.200000
1840.385188	2934.200000
1842.167345	2971.000000
1843.950881	2974.000000
1845.732288	2948.200000
1847.515073	2924.800000
1849.293979	2987.800000
1851.074263	2963.600000
1852.852422	2920.000000
1854.631958	2938.000000
1856.409370	2963.600000
1858.184659	2922.200000
1859.961325	2953.000000
1861.735869	2953.400000
1863.511790	2899.800000
1865.282092	2939.000000
1867.055521	2902.400000
1868.826830	2971.800000
1870.597768	2964.000000
1872.370084	2922.000000
1874.136786	2914.400000
1875.906613	2899.000000
1877.672577	2945.200000
1879.441665	2958.200000
1881.206891	2879.800000
1882.971749	2843.600000
1884.737983	2931.800000
1886.500359	2904.400000
1888.262368	2857.200000
1890.024010	2862.800000
1891.785284	2856.600000
1893.546192	2827.200000
1895.306732	2883.800000
1897.065164	2888.400000
1898.823229	2780.800000
1900.579187	2786.000000
1902.336521	2833.800000
1904.093490	2813.800000
1905.848352	2826.800000
1907.601109	2815.000000
1909.353503	2829.200000
1911.107273	2797.400000
1912.858939	2808.400000
1914.608502	2818.000000
1916.359442	2798.600000
1918.110018	2794.000000
1919.856756	2796.600000
1921.604869	2813.400000
1923.350883	2807.000000
1925.098273	2786.800000
1926.843564	2773.400000
1928.586758	2806.800000
1930.331328	2781.600000
1932.073801	2785.400000
1933.815914	2771.600000
1935.557668	2748.000000
1937.299061	2787.000000
1939.038361	2793.600000
1940.777302	2804.800000
1942.515884	2737.200000
1944.252375	2715.400000
1945.988507	2739.300000
1947.726015	2763.200000
1949.459700	2732.000000
1951.194760	2751.600000
1952.927731	2745.000000
1954.660346	2790.200000
1956.392604	2768.200000
1958.124506	2749.200000
1959.854323	2817.800000
1961.582054	2746.000000
1963.311160	2739.600000
1965.039910	2779.800000
1966.766577	2752.000000
1968.492890	2734.200000
1970.220577	2720.600000
1971.942727	2682.200000
1973.667978	2762.600000
1975.389422	2751.000000
1977.113966	2691.400000
1978.836431	2743.000000
1980.555092	2684.000000
1982.276852	2710.400000
1983.994811	2701.600000
1985.714142	2738.600000
1987.429674	2707.600000
1989.150026	2666.400000
1990.866580	2660.400000
1992.579337	2727.600000
1994.295190	2705.200000
1996.008971	2718.000000
1997.722402	2726.200000
1999.433762	2735.600000
2001.146494	2690.200000
2002.855435	2699.000000
2004.567470	2729.400000
2006.273995	2691.600000
2007.983613	2666.200000
2009.691163	2693.200000
2011.398366	2664.600000
2013.103503	2732.600000
2014.808293	2684.200000
2016.514456	2678.600000
2018.216835	2664.000000
2019.920587	2669.600000
2021.622276	2684.400000
2023.323619	2635.200000
2025.024618	2643.400000
2026.723555	2643.000000
2028.423864	2600.000000
2030.120397	2659.400000
2031.818302	2603.800000
2033.514149	2677.800000
2035.213081	2606.400000
2036.906527	2647.000000
2038.601344	2632.000000
2040.295818	2659.400000
2041.986525	2604.800000
2043.680314	2635.600000
2045.370338	2637.400000
2047.061731	2550.000000
2048.751072	2619.600000
2050.441784	2641.400000
2052.128732	2696.000000
2053.815340	2613.400000
2055.503319	2584.800000
2057.187538	2629.600000
2058.873127	2583.200000
2060.558377	2596.200000
2062.241579	2532.800000
2063.926151	2564.000000
2065.605259	2548.600000
2067.289154	2561.800000
2068.967587	2513.000000
2070.649098	2510.800000
2072.326857	2524.400000
2074.004280	2537.400000
2075.683072	2550.800000
2077.359821	2540.400000
2079.034529	2504.000000
2080.710607	2558.200000
2082.384643	2529.800000
2084.058345	2501.800000
2085.731711	2517.000000
2087.403038	2533.000000
2089.074031	2523.000000
2090.744690	2489.200000
2092.415015	2443.600000
2094.085006	2492.200000
2095.752960	2518.400000
2097.420582	2455.200000
2099.086170	2482.600000
2100.753126	2477.400000
2102.418049	2504.200000
2104.082640	2558.400000
2105.745199	2469.200000
2107.409126	2571.200000
2109.071022	2490.800000
2110.732587	2499.400000
2112.393822	2505.000000
2114.053027	2502.200000
2115.711903	2468.800000
2117.370448	2499.200000
2119.028664	2496.800000
2120.683157	2507.200000
2122.340714	2452.200000
2123.997941	2470.200000
2125.651448	2487.000000
2127.306322	2478.000000
2128.957477	2466.800000
2130.611695	2466.600000
2132.262195	2542.200000
2133.914063	2520.600000
2135.560522	2462.200000
2137.211735	2493.200000
2138.859236	2504.400000
2140.508103	2414.800000
2142.154951	2432.000000
2143.801474	2448.000000
2145.447671	2483.000000
2147.090159	2432.800000
2148.735706	2410.000000
2150.377546	2440.000000
2152.022443	2402.400000
2153.663635	2473.200000
2155.304503	2375.600000
2156.945048	2372.600000
2158.583580	2347.600000
2160.223478	2452.400000
2161.859676	2398.400000
2163.497240	2351.600000
2165.134482	2389.200000
2166.769714	2418.600000
2168.404624	2392.400000
2170.039213	2380.400000
2171.673481	2381.800000
2173.304055	2396.800000
2174.937681	2407.200000
2176.567614	2381.600000
2178.198914	2314.600000
2179.828208	2315.800000
2181.457183	2339.600000
2183.085838	2357.000000
2184.714174	2308.600000
2186.340507	2318.000000
2187.966522	2343.000000
2189.590536	2334.200000
2191.215915	2328.600000
2192.839293	2319.600000
2194.464036	2303.400000
2196.085098	2291.800000
2197.705843	2311.200000
2199.327952	2275.000000
2200.948064	2292.200000
2202.566180	2245.600000
2204.183980	2277.800000
2205.801464	2251.400000
2207.418634	2235.400000
2209.035487	2307.400000
2210.652026	2290.200000
2212.266571	2272.800000
2213.879125	2263.600000
2215.493042	2279.200000
2217.104968	2278.200000
2218.718257	2335.800000
2220.329555	2243.400000
2221.938865	2257.000000
2223.549537	2235.000000
2225.158221	2262.600000
2226.766593	2276.800000
2228.372978	2314.800000
2229.980725	2277.400000
2231.586487	2262.200000
2233.191937	2258.600000
2234.795402	2269.800000
2236.400230	2238.200000
2238.003074	2241.800000
2239.603935	2253.800000
2241.206159	2221.800000
2242.806401	2194.000000
2244.408005	2301.000000
2246.005956	2211.000000
2247.605270	2252.800000
2249.202604	2245.600000
2250.799630	2184.400000
2252.398017	2212.000000
2253.992757	2241.200000
2255.585519	2233.200000
2257.179644	2184.200000
2258.775130	2212.200000
2260.366971	2189.000000
2261.958506	2210.800000
2263.551402	2171.200000
2265.138990	2210.200000
2266.731273	2195.600000
2268.318249	2188.800000
2269.908254	2159.800000
2271.492954	2146.200000
2273.082348	2189.800000
2274.666439	2103.800000
2276.251892	2139.000000
2277.835376	2169.200000
2279.421885	2161.000000
2281.004761	2176.200000
2282.587334	2171.800000
2284.169603	2137.200000
2285.748242	2129.600000
2287.329906	2120.200000
2288.907941	2120.200000
2290.488999	2154.200000
2292.066430	2155.300000
2293.641898	2156.400000
2295.220388	2100.800000
2296.795254	2099.600000
2298.369819	2098.800000
2299.944083	2077.800000
2301.518047	2114.200000
2303.091711	2077.800000
2304.665075	2135.800000
2306.234820	2129.200000
2307.804266	2119.200000
2309.376730	2061.800000
2310.943920	2059.000000
2312.514127	2088.400000
2314.080721	2031.800000
2315.648673	2072.200000
2317.214671	2095.600000
2318.780371	2026.400000
2320.345773	2090.800000
2321.909222	2052.600000
2323.474030	2086.000000
2325.035229	2099.600000
2326.599443	2079.200000
2328.158396	2144.800000
2329.720362	2126.000000
2331.280378	2069.000000
2332.840098	2081.000000
2334.397870	2090.800000
2335.955346	2089.600000
2337.512528	2086.800000
2339.067762	2051.800000
2340.622702	2075.600000
2342.177349	2056.800000
2343.731702	2044.600000
2345.285761	2078.000000
2346.839527	2065.000000
2348.391348	2055.400000
2349.941226	2107.800000
2351.494113	2042.600000
2353.041756	2069.600000
2354.592407	2096.000000
2356.139468	2036.400000
2357.687886	2059.000000
2359.236013	2082.200000
2360.780551	2034.800000
2362.326447	2058.600000
2363.870404	2003.800000
2365.415719	2020.000000
2366.957449	2017.600000
2368.500537	2081.000000
2370.041688	2052.400000
2371.582550	2026.800000
2373.123123	2041.600000
2374.663407	2044.200000
2376.203402	2040.200000
2377.739818	2003.400000
2379.279236	2006.200000
2380.815077	2042.000000
2382.352275	2023.400000
2383.885897	2017.600000
2385.422519	2032.600000
2386.957211	2026.000000
2388.489972	2051.600000
2390.022448	1992.800000
2391.552995	1985.600000
2393.086540	2089.200000
2394.614874	2031.800000
2396.144564	2051.800000
2397.673969	1963.800000
2399.203089	1980.200000
2400.731923	2046.800000
2402.255553	1987.400000
2403.783818	2017.000000
2405.306880	1984.600000
2406.834577	2032.000000
2408.355434	1973.600000
2409.880923	2034.800000
2411.402853	2033.600000
2412.926137	2026.200000
2414.447501	2009.600000
2415.966945	2001.800000
2417.487744	1993.600000
2419.006624	2007.200000
2420.525223	1958.800000
2422.041903	2001.000000
2423.559939	2021.600000
2425.077693	1986.200000
2426.591895	1962.200000
2428.105818	1949.600000
2429.619460	1936.400000
2431.134456	1943.200000
2432.645905	1993.000000
2434.158707	1945.200000
2435.669597	1989.000000
2437.180208	1961.400000
2438.688907	1922.800000
2440.200592	1973.200000
2441.708734	1981.200000
2443.216598	1946.800000
2444.724183	1851.400000
2446.228229	1948.400000
2447.735259	1908.200000
2449.240381	1927.200000
2450.745226	1918.400000
2452.248164	1908.600000
2453.750825	1915.600000
2455.253211	1947.600000
2456.753690	1913.400000
2458.255524	1889.600000
2459.755452	1898.600000
2461.255105	1879.800000
2462.754483	1904.000000
2464.251958	1899.200000
2465.747531	1871.600000
2467.246084	1881.400000
2468.741109	1867.600000
2470.237486	1879.800000
2471.730337	1830.200000
2473.224541	1911.600000
2474.718471	1862.400000
2476.208877	1869.400000
2477.702261	1831.600000
2479.193747	1839.400000
2480.683336	1860.400000
2482.172653	1855.200000
2483.660074	1804.600000
2485.150471	1870.200000
2486.637350	1827.000000
2488.125580	1869.800000
2489.610293	1895.800000
2491.094736	1849.800000
2492.580531	1854.400000
2494.064434	1886.200000
2495.549687	1880.200000
2497.029807	1856.000000
2498.512899	1824.800000
2499.994102	1805.200000
2501.475035	1829.800000
2502.954078	1846.400000
2504.432854	1831.400000
2505.911361	1821.000000
2507.389599	1874.400000
2508.867570	1849.800000
2510.342035	1833.800000
2511.819470	1863.200000
2513.293400	1796.000000
2514.768682	1859.400000
2516.243696	1842.200000
2517.715209	1888.800000
2519.188073	1876.800000
2520.659054	1867.800000
2522.131385	1820.200000
2523.598602	1834.200000
2525.068786	1814.000000
2526.537089	1849.000000
2528.005126	1854.200000
2529.472899	1865.800000
2530.940407	1866.400000
2532.407651	1845.200000
2533.871402	1852.400000
2535.336503	1807.400000
2536.799727	1823.200000
2538.264300	1856.200000
2539.725385	1841.400000
2541.187819	1856.200000
2542.649990	1880.600000
2544.108674	1834.200000
2545.571931	1869.600000
2547.030091	1841.800000
2548.489601	1886.400000
2549.944016	1844.600000
2551.403002	1841.200000
2552.860116	1844.200000
2554.315358	1845.600000
2555.770340	1876.400000
2557.223452	1833.600000
2558.677913	1852.600000
2560.130505	1869.000000
2561.582837	1808.800000
2563.033301	1843.200000
2564.486722	1848.400000
2565.935060	1848.800000
2567.386353	1853.600000
2568.835780	1793.400000
2570.281736	1799.600000
2571.730646	1830.200000
2573.176085	1813.200000
2574.622873	1833.800000
2576.067797	1870.200000
2577.512464	1864.000000
2578.958478	1806.200000
2580.401025	1814.000000
2581.844920	1800.000000
2583.285350	1798.800000
2584.727128	1818.400000
2586.167046	1828.400000
2587.608311	1794.600000
2589.046114	1786.800000
2590.486867	1826.800000
2591.922558	1816.800000
2593.361197	1823.000000
2594.797980	1823.200000
2596.232907	1806.400000
2597.670781	1817.000000
2599.103598	1754.200000
2600.537762	1766.000000
2601.970071	1809.000000
2603.403728	1827.200000
2604.835530	1800.000000
2606.267080	1821.200000
2607.698376	1821.000000
2609.127821	1789.400000
2610.557013	1763.800000
2611.984354	1811.600000
2613.413042	1748.200000
2614.841477	1763.600000
2616.266466	1771.000000
2617.692800	1739.800000
2619.117287	1805.200000
2620.543118	1764.200000
2621.965507	1753.400000
2623.389240	1756.800000
2624.811128	1777.200000
2626.232765	1789.000000
2627.652558	1751.800000
2629.073696	1733.800000
2630.494584	1772.400000
2631.912033	1753.400000
2633.332422	1769.400000
2634.749374	1741.600000
2636.166078	1749.800000
2637.582533	1734.800000
2638.998740	1773.600000
2640.414699	1737.600000
2641.828817	1760.000000
2643.242687	1755.600000
2644.654718	1791.000000
2646.068094	1827.200000
2647.478040	1763.600000
2648.890922	1724.600000
2650.300375	1758.200000
2651.709582	1729.000000
2653.116953	1733.400000
2654.527258	1734.600000
2655.935727	1714.400000
2657.342362	1757.400000
2658.748750	1710.000000
2660.153306	1728.800000
2661.559205	1763.600000
2662.963270	1710.600000
2664.367092	1759.000000
2665.770669	1725.400000
2667.172415	1742.600000
2668.575504	1742.400000
2669.975175	1706.200000
2671.376190	1738.800000
2672.773789	1718.600000
2674.174317	1749.000000
2675.571431	1709.600000
2676.969888	1746.200000
2678.366517	1757.000000
2679.762905	1706.200000
2681.159050	1721.200000
2682.553369	1648.800000
2683.949031	1701.800000
2685.341284	1671.000000
2686.734879	1730.000000
2688.126650	1764.600000
2689.519764	1707.200000
2690.911053	1679.800000
2692.300521	1710.400000
2693.689748	1680.400000
2695.078735	1715.600000
2696.469065	1732.800000
2697.854411	1723.800000
2699.242680	1666.800000
2700.629129	1711.800000
2702.015339	1662.000000
2703.401310	1718.800000
2704.783883	1686.600000
2706.167798	1650.200000
2707.551474	1670.200000
2708.934913	1709.000000
2710.314956	1695.200000
2711.696341	1678.000000
2713.075910	1694.000000
2714.456821	1651.000000
2715.835917	1716.400000
2717.213199	1727.400000
2718.591822	1648.200000
2719.968631	1660.400000
2721.345205	1640.000000
2722.721543	1712.800000
2724.096069	1651.800000
2725.471936	1702.800000
2726.844416	1641.400000
2728.219813	1623.200000
2729.590249	1665.000000
2730.962025	1657.600000
2732.333568	1698.000000
2733.703302	1654.200000
2735.074376	1692.200000
2736.443643	1649.600000
2737.812676	1685.600000
2739.179903	1692.200000
2740.546896	1640.800000
2741.913657	1708.400000
2743.280185	1674.800000
2744.644909	1690.400000
2746.009400	1657.000000
2747.373659	1678.400000
2748.737687	1675.800000
2750.101482	1677.000000
2751.461905	1688.800000
2752.825237	1738.800000
2754.183627	1682.800000
2755.544927	1664.200000
2756.902857	1694.400000
2758.263695	1653.600000
2759.622733	1636.000000
2760.978403	1652.400000
2762.336982	1701.800000
2763.692193	1653.800000
2765.047175	1673.600000
2766.400360	1632.200000
2767.756452	1653.600000
2769.109180	1621.400000
2770.461679	1651.800000
2771.813951	1649.000000
2773.167560	1619.600000
2774.517808	1677.800000
2775.866263	1600.400000
2777.217622	1667.000000
2778.565622	1632.000000
2779.914961	1672.200000
2781.262507	1634.200000
2782.609827	1624.000000
2783.956919	1622.400000
2785.302221	1598.000000
2786.647297	1613.400000
2787.992147	1604.200000
2789.336771	1598.400000
2790.678043	1608.200000
2792.020652	1625.600000
2793.363037	1612.400000
2794.705196	1647.400000
2796.044006	1639.400000
2797.385716	1590.800000
2798.724077	1640.000000
2800.063776	1588.600000
2801.401689	1642.800000
2802.737818	1634.400000
2804.073724	1630.200000
2805.410967	1583.600000
2806.746425	1634.800000
2808.081661	1648.800000
2809.415115	1593.600000
2810.749905	1619.800000
2812.081354	1647.400000
2813.415699	1581.600000
2814.745146	1628.000000
2816.075930	1626.400000
2817.406492	1585.600000
2818.735275	1621.400000
2820.065395	1618.600000
2821.393736	1615.200000
2822.721855	1607.800000
2824.048198	1607.400000
2825.375876	1594.000000
2826.700222	1571.800000
2828.025904	1609.200000
2829.349810	1595.000000
2830.673496	1624.200000
2831.998518	1607.800000
2833.320211	1590.200000
2834.641685	1601.000000
2835.962939	1573.800000
2837.283975	1563.600000
2838.603239	1585.400000
2839.923838	1592.400000
2841.242665	1576.400000
2842.561274	1597.800000
2843.878113	1535.200000
2845.194734	1528.800000
2846.511138	1594.600000
2847.825772	1572.800000
2849.141741	1593.200000
2850.454391	1550.200000
2851.768375	1545.400000
2853.082143	1591.400000
2854.395694	1566.600000
2855.707479	1585.400000
2857.017497	1577.200000
2858.328850	1581.200000
2859.636888	1546.200000
2860.946260	1605.200000
2862.255417	1593.800000
2863.564359	1595.400000
2864.871538	1605.800000
2866.176953	1566.000000
2867.483703	1602.200000
2868.788691	1615.200000
2870.093464	1604.200000
2871.396477	1566.200000
2872.702370	1577.000000
2874.003409	1611.800000
2875.305781	1594.600000
2876.606395	1607.000000
2877.908341	1597.400000
2879.210075	1601.800000
2880.508505	1621.600000
2881.808268	1625.200000
2883.106274	1589.400000
2884.404068	1604.600000
2885.700105	1578.800000
2886.997476	1600.000000
2888.293092	1578.200000
2889.588496	1560.200000
2890.883689	1566.800000
2892.175585	1547.000000
2893.470356	1564.400000
2894.761832	1601.200000
2896.054640	1554.200000
2897.347238	1574.400000
2898.636541	1550.800000
2899.927178	1570.600000
2901.216063	1548.800000
2902.506280	1577.000000
2903.793206	1519.800000
2905.081464	1582.600000
2906.367973	1591.000000
2907.654273	1563.800000
2908.940365	1607.200000
2910.224709	1553.600000
2911.511925	1587.800000
2912.794314	1580.800000
2914.078035	1587.400000
2915.360009	1575.600000
2916.641777	1565.800000
2917.921799	1550.000000
2919.204691	1542.600000
2920.485838	1561.400000
2921.763703	1583.600000
2923.044437	1541.400000
2924.321890	1571.400000
2925.599138	1536.600000
2926.874643	1531.400000
2928.153016	1595.800000
2929.426575	1591.000000
2930.703001	1578.000000
2931.977685	1536.200000
2933.250630	1552.800000
2934.524906	1549.800000
2935.797441	1562.600000
2937.069773	1581.200000
2938.338832	1533.200000
2939.610756	1507.000000
2940.880942	1575.000000
2942.150924	1554.800000
2943.420703	1488.800000
2944.688746	1507.200000
2945.955052	1568.400000
2947.221156	1568.000000
2948.488591	1523.800000
2949.754290	1548.200000
2951.019788	1492.600000
2952.285083	1507.000000
2953.547113	1514.400000
2954.810473	1514.600000
2956.073632	1505.400000
2957.335058	1551.800000
2958.597815	1533.200000
2959.858839	1523.400000
2961.118133	1525.200000
2962.377226	1530.800000
2963.636120	1551.400000
2964.894812	1554.600000
2966.153305	1491.600000
2967.410069	1536.200000
2968.666634	1505.200000
2969.921470	1537.400000
2971.177636	1536.800000
2972.430547	1513.600000
2973.684786	1520.600000
2974.938827	1473.000000
2976.191142	1519.200000
2977.443259	1547.200000
2978.693651	1524.800000
2979.946898	1555.800000
2981.195368	1518.000000
2982.446693	1536.600000
2983.694768	1514.600000
2984.942646	1530.800000
2986.190328	1498.400000
2987.437812	1533.000000
2988.683575	1544.800000
2989.929141	1540.200000
2991.176036	1541.000000
2992.419686	1529.600000
2993.664663	1517.800000
2994.906398	1540.200000
2996.150984	1504.400000
2997.393851	1537.600000
2998.633477	1507.600000
2999.875953	1513.000000
3001.115189	1537.800000
3002.355753	1510.400000
3003.594600	1578.600000
3004.833253	1519.200000
3006.070190	1517.200000
3007.308455	1492.000000
3008.545004	1535.000000
3009.781360	1506.000000
3011.017522	1521.000000
3012.251970	1475.800000
3013.486225	1482.400000
3014.720287	1506.200000
3015.952637	1503.800000
3017.183275	1480.800000
3018.416759	1504.600000
3019.648532	1497.400000
3020.878593	1521.000000
3022.108463	1471.800000
3023.336623	1496.200000
3024.566110	1514.000000
3025.793887	1518.000000
3027.021473	1501.200000
3028.250385	1485.600000
3029.474555	1516.200000
3030.701568	1471.400000
3031.925358	1483.200000
3033.150473	1495.000000
3034.373883	1488.400000
3035.597102	1466.400000
3036.818616	1487.000000
3038.042971	1538.400000
3039.262591	1501.000000
3040.483537	1489.800000
3041.704293	1487.800000
3042.923347	1495.800000
3044.143725	1459.800000
3045.360887	1513.800000
3046.579374	1496.600000
3047.796160	1488.800000
3049.012757	1511.400000
3050.229167	1505.400000
3051.442363	1459.200000
3052.658397	1466.400000
3053.871219	1496.000000
3055.086878	1508.600000
3056.297814	1522.400000
3057.510076	1528.800000
3058.722150	1495.800000
3059.934038	1457.800000
3061.144229	1466.400000
3062.354233	1477.400000
3063.564051	1487.400000
3064.772173	1477.400000
3065.980110	1456.000000
3067.186351	1471.400000
3068.393917	1476.400000
3069.599788	1480.300000
3070.805474	1484.200000
3072.010976	1484.600000
3073.214784	1463.400000
3074.419916	1446.000000
3075.623355	1529.400000
3076.825102	1473.800000
3078.026666	1504.600000
3079.228046	1484.000000
3080.429242	1505.200000
3081.628748	1466.400000
3082.828071	1473.400000
3084.028717	1459.400000
3085.227673	1440.200000
3086.423434	1470.000000
3087.622025	1474.600000
3088.817422	1485.400000
3090.014143	1489.800000
3091.207671	1461.600000
3092.404027	1458.800000
3093.598696	1503.000000
3094.790175	1512.000000
3095.985986	1434.000000
3097.177102	1484.200000
3098.369542	1460.000000
3099.558793	1481.800000
3100.750871	1450.800000
3101.941265	1510.600000
3103.128473	1467.400000
3104.317003	1454.800000
3105.506856	1441.600000
3106.693524	1453.200000
3107.880013	1460.000000
3109.066323	1486.000000
3110.253954	1490.400000
3111.438403	1444.000000
3112.621173	1429.200000
3113.806765	1459.400000
3114.990678	1446.200000
3116.172911	1443.600000
3117.354967	1426.000000
3118.536844	1415.600000
3119.718543	1409.800000
3120.898565	1407.000000
3122.076910	1418.200000
3123.258075	1452.600000
3124.436065	1430.600000
3125.613878	1409.200000
3126.791514	1401.200000
3127.967475	1459.600000
3129.143260	1442.200000
3130.320365	1438.200000
3131.495797	1438.400000
3132.669555	1469.600000
3133.841640	1456.600000
3135.015046	1436.200000
3136.188277	1499.400000
3137.359836	1448.200000
3138.532715	1429.800000
3139.702427	1416.800000
3140.873460	1439.600000
3142.042822	1487.000000
3143.210515	1464.800000
3144.381023	1482.800000
3145.546872	1451.200000
3146.717031	1445.600000
3147.882532	1425.600000
3149.047860	1475.000000
3150.213014	1395.400000
3151.377995	1391.600000
3152.544295	1441.200000
3153.705942	1416.800000
3154.868910	1435.600000
3156.031705	1449.200000
3157.194326	1409.800000
3158.355283	1415.600000
3159.516068	1397.800000
3160.676680	1414.400000
3161.835628	1442.000000
3162.994405	1393.400000
3164.153009	1385.800000
3165.311442	1382.800000
3166.469703	1380.000000
3167.626303	1378.600000
3168.781241	1425.400000
3169.937498	1426.600000
3171.092094	1437.200000
3172.246520	1403.000000
3173.399285	1357.800000
3174.551881	1384.000000
3175.704307	1426.000000
3176.856562	1410.200000
3178.008648	1372.000000
3179.157587	1425.600000
3180.309333	1375.400000
3181.459422	1395.000000
3182.607853	1390.800000
3183.756116	1375.800000
3184.904210	1400.800000
3186.052135	1379.200000
3187.198404	1378.600000
3188.344505	1443.400000
3189.488952	1425.600000
3190.633230	1399.000000
3191.777341	1399.600000
3192.922770	1401.400000
3194.065060	1439.600000
3195.207182	1400.000000
3196.349138	1411.600000
3197.490926	1399.800000
3198.632547	1413.000000
3199.771033	1377.800000
3200.910836	1392.000000
3202.051956	1389.000000
3203.189943	1404.600000
3204.326279	1419.400000
3205.462451	1409.400000
3206.599939	1365.200000
3207.735779	1421.000000
3208.872936	1412.600000
3210.005480	1394.400000
3211.142305	1386.200000
3212.274520	1432.600000
3213.408051	1405.200000
3214.541417	1321.000000
3215.671657	1398.200000
3216.804694	1354.800000
3217.934605	1375.200000
3219.065832	1365.200000
3220.193934	1363.000000
3221.324834	1367.600000
3222.454089	1340.000000
3223.581701	1365.600000
3224.706190	1359.200000
3225.834955	1336.000000
3226.960598	1394.600000
3228.086078	1326.200000
3229.209917	1387.600000
3230.336551	1337.000000
3231.458587	1371.600000
3232.581939	1348.200000
3233.705128	1364.200000
3234.828156	1314.600000
3235.949544	1361.400000
3237.070771	1360.200000
3238.190359	1353.400000
3239.309786	1359.400000
3240.427576	1376.600000
3241.548157	1367.000000
3242.665625	1356.000000
3243.782932	1378.000000
3244.900079	1354.800000
3246.015589	1377.800000
3247.132415	1352.600000
3248.246130	1429.200000
3249.362636	1401.000000
3250.477506	1412.200000
3251.589268	1404.000000
3252.700871	1411.200000
3253.813789	1371.000000
3254.926547	1408.200000
3256.036199	1410.800000
3257.147166	1308.000000
3258.257974	1379.800000
3259.367150	1381.200000
3260.474695	1416.200000
3261.583555	1369.000000
3262.692256	1366.200000
3263.797855	1407.800000
3264.904769	1397.800000
3266.010053	1369.400000
3267.116651	1408.800000
3268.220149	1382.000000
3269.324961	1370.400000
3270.429616	1399.600000
3271.531173	1387.200000
3272.632573	1402.200000
3273.735287	1377.000000
3274.837845	1331.000000
3275.937306	1378.600000
3277.039551	1376.800000
3278.138700	1380.200000
3279.236224	1363.200000
3280.333594	1371.800000
3281.433745	1348.000000
3282.530804	1377.400000
3283.627707	1380.200000
3284.724455	1338.800000
3285.816644	1347.800000
3286.913083	1381.200000
3288.007899	1403.000000
3289.102560	1326.600000
3290.195600	1400.600000
3291.288486	1368.000000
3292.379751	1388.000000
3293.472329	1352.800000
3294.563287	1367.000000
3295.652625	1341.800000
3296.741810	1353.600000
3297.832307	1314.400000
3298.919721	1347.600000
3300.006981	1374.600000
3301.095554	1391.200000
3302.183974	1365.000000
3303.267848	1358.800000
3304.355963	1367.200000
3305.440996	1389.600000
3306.524414	1381.200000
3307.609144	1392.200000
3308.692258	1361.000000
3309.776684	1375.800000
3310.858033	1362.800000
3311.940693	1369.600000
3313.021738	1349.400000
3314.102633	1386.000000
3315.181915	1358.800000
3316.261046	1376.400000
3317.341489	1405.200000
3318.418857	1396.000000
3319.497537	1384.800000
3320.574605	1428.600000
3321.651523	1395.600000
3322.726831	1389.200000
3323.801989	1395.600000
3324.878458	1345.000000
3325.951857	1359.600000
3327.025106	1324.800000
3328.099667	1383.400000
3329.172619	1365.200000
3330.243962	1375.400000
3331.316616	1352.400000
3332.386203	1375.200000
3333.457101	1354.400000
3334.526393	1371.200000
3335.596994	1335.200000
3336.665989	1355.800000
3337.733379	1347.000000
3338.799163	1339.000000
3339.869173	1342.400000
3340.936120	1353.000000
3342.000005	1327.400000
3343.066657	1330.600000
3344.131706	1297.200000
3345.195151	1391.800000
3346.258450	1350.600000
3347.321602	1393.600000
3348.384608	1362.400000
3349.447468	1373.400000
3350.508725	1309.000000
3351.566926	1316.200000
3352.629348	1313.400000
3353.688714	1374.000000
3354.747934	1324.400000
3355.808463	1380.200000
3356.864484	1374.000000
3357.923268	1325.400000
3358.977545	1335.400000
3360.034586	1348.400000
3361.090028	1399.600000
3362.146780	1368.000000
3363.201933	1348.400000
3364.255489	1367.800000
3365.307448	1365.800000
3366.362170	1378.400000
3367.413842	1364.400000
3368.465370	1332.600000
3369.518208	1347.400000
3370.567998	1380.200000
3371.619097	1365.200000
3372.667149	1345.000000
3373.717962	1334.400000
3374.765729	1364.400000
3375.813354	1385.000000
3376.860837	1324.800000
3377.906727	1332.000000
3378.953925	1352.200000
3379.998080	1357.800000
3381.044995	1382.400000
3382.090317	1358.600000
3383.132598	1389.000000
3384.174738	1347.200000
3385.218187	1338.800000
3386.261494	1346.200000
3387.303211	1358.400000
3388.344788	1351.600000
3389.386223	1355.400000
3390.426070	1283.200000
3391.464328	1344.600000
3392.503894	1365.200000
3393.543320	1356.400000
3394.581158	1299.600000
3395.617409	1343.800000
3396.653520	1332.400000
3397.690939	1379.400000
3398.725325	1348.600000
3399.761019	1335.400000
3400.796573	1347.000000
3401.829095	1383.800000
3402.864371	1361.200000
3403.896617	1342.200000
3404.928723	1378.200000
3405.959247	1322.600000
3406.991077	1368.600000
3408.022769	1384.800000
3409.051433	1325.400000
3410.079960	1371.000000
3411.109793	1343.000000
3412.139489	1316.200000
3413.166159	1382.200000
3414.194135	1383.600000
3415.219087	1345.200000
3416.246790	1352.600000
3417.271468	1392.000000
3418.297453	1344.800000
3419.321859	1324.200000
3420.346128	1341.600000
3421.368818	1343.800000
3422.391372	1320.800000
3423.415232	1346.200000
3424.436072	1332.600000
3425.456776	1285.600000
3426.478786	1305.400000
3427.497778	1304.600000
3428.516635	1356.800000
3429.536798	1314.200000
3430.553944	1327.200000
