-118.077073	12.599725
-115.407473	15.860440
-112.740808	18.374975
-110.074895	20.193506
-107.411914	21.366209
-104.747504	21.943257
-102.086024	21.974825
-99.423114	22.672028
-96.765312	19.278322
-94.106079	18.737762
-91.447596	16.841958
-88.792036	14.862238
-86.135048	16.174126
-83.483157	17.758042
-80.829837	15.946154
-78.179437	17.362937
-75.527607	17.600000
-72.880868	19.278322
-70.232699	17.702797
-67.585274	16.738462
-64.940762	16.488112
-62.294822	19.034965
-59.653963	19.424476
-57.011675	20.900699
-54.372295	20.753147
-51.731487	21.958741
-49.091419	19.535664
-46.456423	20.061538
-43.819999	20.234965
-41.186477	22.372727
-38.551527	22.988811
-35.921642	23.148252
-33.288165	26.639860
-30.659750	30.861538
-28.032069	31.462937
-25.402959	32.211888
-22.778906	11.430769
-20.151264	-54.458042
-17.528675	-182.328671
-14.906818	-114.029371
-12.285691	332.314685
-9.665294	949.799301
-7.047786	1447.696503
-4.428848	1781.851748
-1.812797	1953.013287
0.802526	1963.986713
3.417122	1809.016084
6.028835	1496.086014
8.641977	1031.998601
11.250085	465.455944
13.861775	-57.799301
16.468434	-249.674126
19.076521	-123.865734
21.683884	13.445455
24.286222	31.832168
26.892138	33.337762
29.493032	32.837762
32.095354	34.588112
34.692659	33.728671
37.293539	35.054545
39.889405	35.407692
42.486698	37.525175
45.083272	37.119580
47.674837	35.560839
50.267830	35.813986
52.857962	36.134965
55.449522	36.820979
58.038222	41.448951
60.628349	42.769930
63.213478	44.361538
65.800033	43.630070
68.385875	41.620979
70.968863	42.443357
73.553277	45.399301
76.130563	42.562238
78.711415	40.000699
81.289418	40.696503
83.866711	42.346853
86.445430	46.004895
89.019168	50.260140
91.594332	55.340559
94.166653	59.052448
96.738266	62.735664
99.307039	66.289510
101.877239	75.479021
104.444601	84.135664
107.013388	89.367133
109.579339	100.263636
112.142455	115.562238
114.709127	140.013287
117.266578	177.751049
119.829714	237.710490
122.387891	348.469231
124.949621	547.969231
127.506395	882.284615
130.064596	1410.865035
132.617844	2148.629371
135.170393	3102.335664
137.726493	4190.785315
140.277646	5351.346154
142.828100	6503.590210
145.377857	7548.986713
147.924796	8404.446853
150.471038	9032.141958
153.018706	9421.544056
155.565678	9615.611189
158.107715	9644.816783
160.649058	9604.403497
163.189708	9526.578322
165.731784	9454.790909
168.271048	9374.909091
170.807504	9307.246853
173.343268	9253.280420
175.880458	9207.904196
178.416957	9172.194406
180.950650	9139.213287
183.481540	9113.551748
186.011741	9101.458042
188.543367	9080.584615
191.072192	9070.528671
193.598218	9063.707692
196.123558	9061.667133
198.650324	9053.857343
201.174292	9027.458042
203.697576	8996.155245
206.220175	8974.976224
208.739981	8956.348951
211.259104	8936.879720
213.777544	8923.758741
216.297408	8922.822378
218.810271	8922.960140
221.326665	8932.416783
223.842377	8958.614685
226.353199	8991.355944
228.865447	9025.099301
231.374911	9042.818182
233.883697	9055.574126
236.391805	9073.323776
238.901336	9094.752448
241.405987	9108.267133
243.909962	9118.919580
246.415362	9143.026573
248.915886	9153.979720
251.419933	9163.588112
253.917010	9177.243357
256.417609	9195.945455
258.915437	9203.665734
261.412592	9197.161538
263.909074	9190.159441
266.400693	9188.830070
268.895832	9189.611888
271.388205	9176.848951
273.879907	9177.279021
276.368845	9178.260140
278.859208	9168.934965
281.346808	9165.490210
283.831649	9161.653147
286.320005	9164.924476
288.801421	9156.395804
291.286351	9162.833566
293.766436	9170.072727
296.250033	9174.040559
298.728787	9173.967832
301.208965	9169.518182
303.686390	9168.073427
306.163152	9163.490210
308.639251	9164.391608
311.112601	9188.626573
313.585289	9207.209091
316.057316	9232.993007
318.528682	9253.174825
320.997304	9278.632168
323.465266	9291.317483
325.934650	9283.193706
328.399212	9269.317483
330.867278	9253.120280
333.330524	9232.055245
335.793112	9200.953147
338.255044	9168.289510
340.716319	9146.923077
343.174860	9108.872028
345.634823	9071.807692
348.092053	9021.018182
350.548629	8971.498601
353.004551	8909.300699
355.457744	8824.565035
357.912358	8747.009091
360.362171	8670.330070
362.815480	8587.134965
365.263991	8486.246154
367.711851	8385.885315
370.161132	8287.258042
372.605620	8195.535664
375.051530	8116.268531
377.496791	8026.927273
379.939332	7955.022378
382.381226	7877.952448
384.822473	7801.609091
387.261004	7743.046154
389.700957	7679.927273
392.138196	7619.703497
394.572723	7553.248951
397.010738	7498.173427
399.443976	7445.983217
401.878636	7393.360839
404.308522	7352.409091
406.741894	7302.483217
409.170496	7264.562937
411.598457	7231.065734
414.027838	7196.162937
416.452454	7171.700000
418.878492	7153.075524
421.303889	7137.598601
423.728646	7116.386713
426.148645	7105.718881
428.570065	7090.590909
430.988788	7070.588112
433.408932	7065.719580
435.826381	7038.351049
438.245250	7024.172028
440.661426	7008.591608
443.072855	6990.248252
445.487760	6981.844056
447.899975	6976.667832
450.311556	6966.836364
452.722503	6968.381119
455.130764	6970.215385
457.538392	6959.102098
459.945389	6949.716783
462.351753	6940.172028
464.755435	6911.697203
467.158487	6906.021678
469.560909	6891.083916
471.962701	6880.435664
474.361816	6866.074825
476.762350	6844.304196
479.162255	6829.890909
481.557437	6827.558042
483.956086	6805.401399
486.350015	6764.797203
488.743318	6738.725175
491.135995	6707.060140
493.528047	6674.855245
495.921517	6651.177622
498.310276	6627.120979
500.696368	6605.027972
503.083879	6578.516783
505.470768	6556.252448
507.854993	6537.730769
510.240637	6527.909790
512.623618	6509.721678
515.003939	6492.469231
517.385679	6490.223077
519.764760	6484.193706
522.145260	6465.910490
524.523102	6447.332168
526.898289	6425.832168
529.272858	6394.606993
531.648846	6361.353147
534.022180	6317.951049
536.396932	6271.252448
538.766999	6222.649650
541.136450	6172.223077
543.507319	6116.441259
545.873508	6056.884615
548.241115	5989.702098
550.606076	5909.095804
552.970424	5835.261538
555.334160	5752.975524
557.699312	5679.252448
560.059793	5604.774126
562.421692	5522.392308
564.780950	5454.894406
567.137571	5385.280420
569.497636	5313.951049
571.851011	5247.790210
574.207830	5177.070629
576.562013	5102.781119
578.915589	5027.439860
581.268556	4948.037063
583.618892	4870.237762
585.970644	4796.458042
588.315720	4714.344755
590.666260	4643.765734
593.010126	4576.916783
595.359454	4522.460839
597.704134	4465.882517
600.046188	4431.728671
602.389660	4388.745455
604.730509	4357.318881
607.070756	4333.220280
609.408382	4306.953147
611.749443	4285.644056
614.085866	4268.418881
616.423706	4251.071329
618.758929	4244.758741
621.091536	4233.754545
623.425559	4233.563636
625.756969	4227.672727
628.087780	4220.419580
630.417993	4219.326573
632.747608	4215.572727
635.072601	4221.109790
637.403035	4219.120979
639.728847	4215.720280
642.052053	4223.352448
644.376674	4224.006993
646.698690	4231.279021
649.020113	4240.217483
651.338932	4244.486713
653.659167	4243.308392
655.978809	4257.355944
658.295850	4283.010490
660.612299	4295.401399
662.926150	4335.799301
665.241417	4363.804895
667.554087	4398.322378
669.868172	4456.288811
672.177657	4511.200000
674.488558	4570.555944
676.796866	4627.281818
679.104586	4673.144056
681.413721	4722.325175
683.718263	4778.581818
686.022218	4822.488811
688.325588	4858.437063
690.630372	4907.084615
692.930570	4944.945455
695.232182	4988.360140
697.533210	5030.781818
699.829655	5068.046853
702.127516	5109.583916
704.424793	5147.660140
706.721487	5186.656643
709.013605	5227.021678
711.309134	5269.331469
713.600090	5305.179021
715.892460	5348.458042
718.182254	5408.360140
720.471468	5458.203497
722.760103	5510.779720
725.046166	5550.079021
727.333642	5591.963636
729.618547	5634.052448
731.902875	5674.215385
734.184634	5715.970629
736.467807	5752.431469
738.750403	5794.771329
741.028444	5833.736364
743.307898	5890.836364
745.586777	5954.439161
747.865080	6014.121678
750.138834	6080.176923
752.414002	6139.438462
754.688596	6193.756643
756.960630	6240.825874
759.234078	6285.965035
761.504968	6332.723776
763.773302	6373.120979
766.043049	6412.266434
768.310242	6449.070629
770.576864	6491.577622
772.842916	6530.892308
775.106417	6572.793706
777.371331	6620.667832
779.635675	6661.968531
781.895490	6705.694406
784.156717	6743.698601
786.417377	6772.829371
788.675491	6814.780420
790.931060	6853.291608
793.190020	6884.646154
795.442481	6909.990909
797.700309	6947.345455
799.953617	6974.115385
802.204386	7004.222378
804.456567	7036.851748
806.706210	7050.771329
808.957264	7075.934965
811.203807	7094.801399
813.451762	7100.749650
815.697183	7123.226573
817.944015	7144.067133
820.190286	7158.247552
822.432053	7180.295804
824.677202	7229.416084
826.915879	7271.027273
829.157938	7314.244755
831.395499	7353.005594
833.634472	7400.378322
835.870918	7458.504196
838.108775	7523.735664
840.344107	7590.713287
842.576916	7674.965734
844.811136	7757.718182
847.042834	7845.086713
849.273976	7941.463636
851.504565	8054.813986
853.734598	8167.306294
855.964078	8287.439860
858.189076	8407.785315
860.417449	8539.711189
862.641343	8679.800699
864.866647	8836.184615
867.087476	9005.794406
869.311677	9171.376923
871.531405	9342.077622
873.752544	9509.990210
875.973132	9668.455245
878.191210	9832.911888
880.410698	9989.796503
882.625720	10122.851049
884.840195	10231.095804
887.054121	10324.512587
889.267501	10412.983916
891.480333	10489.539161
893.692619	10554.256643
895.902402	10579.543357
898.111640	10596.123077
900.320333	10584.857343
902.526527	10542.832168
904.734130	10480.635664
906.939235	10391.151748
909.143797	10266.679720
911.345864	10125.896503
913.549340	9969.832168
915.750322	9791.182517
917.950763	9600.523776
920.152611	9392.651049
922.348069	9175.926573
924.546886	8947.942657
926.741264	8714.234965
928.939000	8475.087413
931.132300	8254.386713
933.327009	8053.102797
935.519232	7865.790909
937.710917	7699.555245
939.902064	7562.541958
942.090728	7438.037762
944.278855	7342.500000
946.464502	7274.463636
948.653501	7236.085315
950.838077	7194.588112
953.022118	7173.300699
955.209509	7169.388112
957.388596	7180.374126
959.571034	7183.916783
961.752938	7194.197203
963.932368	7185.751748
966.109324	7184.062937
968.287689	7168.553147
970.467461	7141.546154
972.640884	7107.774126
974.817653	7058.316084
976.990015	6995.860140
979.163785	6924.076923
981.333151	6846.442657
983.505861	6769.958741
985.676106	6676.494406
987.845822	6586.732168
990.015009	6477.572727
992.179799	6378.167832
994.347930	6275.135664
996.511667	6163.653846
998.676810	6067.648951
1000.839495	5966.595804
1003.001653	5869.399301
1005.161355	5770.034266
1007.320533	5668.968531
1009.481117	5586.945455
1011.639246	5487.174825
1013.796851	5405.058741
1015.953933	5313.501399
1018.110492	5228.775524
1020.262671	5157.434266
1022.416256	5095.116084
1024.569320	5040.565734
1026.719936	4980.118881
1028.871957	4921.480420
1031.019605	4859.651748
1033.170585	4795.557343
1035.317194	4744.609091
1037.463285	4684.724476
1039.608856	4641.531469
1041.755833	4583.330769
1043.896521	4540.713986
1046.040539	4507.374825
1048.182116	4470.232867
1050.323177	4432.963636
1052.465642	4399.616783
1054.601828	4366.786713
1056.741340	4327.728671
1058.876496	4285.084615
1061.014977	4241.742657
1063.149104	4204.811888
1065.282718	4173.572028
1067.417737	4127.739161
1069.548406	4083.212587
1071.680480	4032.462937
1073.810125	3985.187413
1075.939258	3945.013287
1078.067879	3899.134266
1080.195989	3844.909790
1082.321673	3786.665035
1084.446847	3719.553846
1086.573425	3665.896503
1088.695666	3611.572028
1090.819310	3555.467133
1092.938621	3487.604196
1095.063160	3423.669231
1097.181454	3358.102797
1099.301153	3301.431469
1101.418433	3241.556643
1103.535207	3178.256643
1105.651474	3117.045455
1107.765326	3056.819580
1109.880581	2994.758741
1111.991513	2936.800000
1114.105758	2869.424476
1116.215682	2809.711888
1118.327010	2743.566434
1120.437833	2683.685315
1122.544340	2620.424476
1124.654157	2562.865035
1126.759659	2507.634266
1128.866564	2459.023077
1130.967254	2411.255944
1133.073156	2362.872727
1135.174749	2318.936364
1137.277745	2270.011888
1139.380240	2224.276923
1141.476528	2181.475524
1143.578024	2133.234266
1145.675216	2083.202797
1147.771911	2037.919580
1149.868107	1997.079021
1151.963806	1952.180420
1154.059006	1916.693007
1156.151811	1880.475524
1158.246017	1850.720280
1160.334032	1815.816084
1162.427245	1786.148252
1164.514270	1754.972028
1166.604594	1729.643357
1168.690631	1697.508392
1170.779965	1664.721678
1172.863118	1641.698601
1174.947673	1609.466434
1177.033630	1582.136364
1179.115305	1558.156643
1181.198382	1537.820979
1183.279073	1516.678322
1185.359272	1494.489510
1187.438980	1476.661538
1189.518197	1453.193007
1191.595032	1437.213287
1193.669486	1414.280420
1195.747231	1398.950350
1197.820707	1381.451748
1199.895583	1362.192308
1201.966192	1351.389510
1204.038203	1336.823077
1206.107837	1329.766434
1208.178872	1316.529371
1210.249419	1309.904895
1212.315705	1299.400000
1214.383392	1295.802098
1216.448707	1290.680420
1218.515422	1285.620280
1220.577881	1277.693007
1222.643625	1265.989510
1224.705116	1262.173427
1226.768006	1254.410490
1228.828529	1245.924476
1230.888568	1239.232168
1232.948125	1231.676224
1235.005316	1228.314685
1237.062026	1220.324476
1239.116373	1220.155944
1241.174000	1215.793007
1243.229265	1214.200699
1245.280289	1212.596503
1247.332713	1215.542657
1249.384657	1215.937063
1251.434243	1213.879021
1253.483350	1217.126573
1255.531979	1213.844056
1257.580129	1212.732168
1259.627800	1212.507692
1261.671242	1203.057343
1263.717958	1194.880420
1265.762321	1190.845455
1267.806208	1184.160839
1269.847743	1180.432168
1271.886929	1178.415385
1273.929388	1166.337063
1275.967624	1163.994406
1278.007259	1159.730769
1280.046419	1154.507692
1282.081360	1159.741958
1284.117700	1167.359441
1286.151696	1166.037063
1288.187090	1169.550350
1290.218270	1171.190909
1292.250848	1173.812587
1294.282955	1171.963636
1296.312721	1171.151049
1298.343885	1160.413986
1300.370841	1159.444056
1302.399195	1153.259441
1304.423345	1152.024476
1306.450759	1152.752448
1308.473971	1153.404196
1310.498581	1149.489510
1312.520857	1149.327273
1314.544530	1149.310490
1316.565870	1153.779720
1318.586742	1151.420280
1320.607147	1159.194406
1322.623359	1164.033566
1324.640968	1172.762238
1326.656249	1179.966434
1328.674789	1180.516783
1330.689140	1179.822378
1332.701165	1178.393007
1334.716447	1174.600000
1336.727544	1168.607692
1338.740038	1167.118881
1340.748349	1160.814685
1342.759916	1161.810490
1344.765443	1169.238462
1346.774226	1169.241958
1348.778831	1175.094406
1350.786690	1182.633566
1352.794087	1180.617483
1354.795453	1184.046154
1356.798216	1190.811189
1358.800518	1194.716783
1360.802361	1193.509790
1362.803744	1194.027972
1364.802814	1188.941259
1366.801425	1187.034965
1368.799578	1181.188112
1370.797272	1177.325175
1372.790804	1179.424476
1374.785732	1174.218881
1376.780202	1168.037762
1378.774217	1167.110490
1380.765923	1168.504196
1382.757175	1167.259441
1384.746121	1165.255245
1386.736462	1162.421678
1388.726348	1158.144755
1390.713931	1156.576224
1392.701059	1156.990210
1394.685886	1159.009790
1396.672108	1157.739161
1398.656030	1153.265734
1400.639499	1152.093706
1402.622515	1150.695804
1404.603234	1151.132168
1406.585347	1148.585315
1408.565164	1150.062238
1410.544529	1147.411189
1412.519756	1143.031469
1414.498222	1142.183217
1416.474393	1137.674825
1418.450116	1132.519580
1420.425389	1128.902797
1422.398371	1130.928671
1424.370905	1127.123077
1426.342992	1126.720280
1428.314630	1128.091608
1430.282140	1124.241259
1432.254724	1126.853147
1434.219503	1123.365035
1436.189353	1117.891608
1438.155080	1114.118881
1440.122199	1110.030070
1442.087035	1108.267832
1444.047751	1107.111888
1446.013536	1107.435664
1447.973365	1101.115385
1449.934587	1101.193007
1451.897202	1100.934266
1453.855702	1099.339860
1455.813759	1099.651748
1457.771375	1098.931469
1459.728549	1097.782517
1461.683447	1098.076224
1463.639737	1098.564336
1465.593753	1097.323077
1467.547329	1091.481818
1469.498632	1084.913287
1471.451327	1075.045455
1473.401751	1071.465734
1475.351735	1066.499301
1477.301281	1064.735664
1479.248558	1061.664336
1481.193568	1064.595105
1483.139969	1066.030070
1485.085933	1068.231469
1487.031460	1070.885315
1488.974722	1072.818881
1490.917547	1065.374825
1492.858109	1062.453846
1494.800062	1061.116783
1496.739753	1057.830769
1498.679010	1052.800000
1500.617831	1052.645455
1502.554393	1052.417483
1504.492346	1054.086713
1506.428040	1046.858042
1508.363301	1047.591608
1510.296306	1047.703497
1512.228878	1046.784615
1514.161018	1042.104196
1516.092726	1043.668531
1518.022180	1042.351049
1519.953025	1036.170629
1521.883438	1036.753846
1523.809779	1038.216783
1525.737511	1038.072028
1527.662992	1036.788811
1529.588044	1033.565734
1531.512667	1035.679021
1533.436861	1036.789510
1535.358807	1031.977622
1537.282144	1029.369231
1539.203235	1026.252448
1541.122081	1026.947552
1543.042316	1030.109790
1544.960309	1031.102797
1546.877875	1032.123776
1548.793199	1033.201399
1550.709913	1031.741259
1552.622572	1034.759441
1554.538435	1033.394406
1556.452058	1033.870629
1558.363444	1025.375524
1560.276218	1020.332867
1562.184943	1014.925874
1564.095058	1012.321678
1566.004748	1011.024476
1567.914016	1002.666434
1569.821050	1004.631469
1571.725851	1006.477622
1573.632041	1003.771329
1575.535999	1008.481818
1577.439537	1008.261538
1579.342653	1008.003497
1581.243540	1007.435664
1583.145816	1008.809091
1585.045864	1004.283916
1586.947299	1004.342657
1588.844701	1006.706993
1590.741684	1002.466434
1592.638249	1004.068531
1594.536202	1001.230070
1596.428320	993.922378
1598.323631	990.016084
1600.218525	983.813986
1602.111197	975.801399
1604.003453	973.363636
1605.893488	975.058042
1607.783109	977.206993
1609.672313	983.375524
1611.561103	987.864336
1613.447675	987.276923
1615.335635	988.821678
1617.219578	996.202797
1619.104909	995.618182
1620.989825	1000.879720
1622.872528	997.115385
1624.756618	991.189510
1626.636697	985.478322
1628.518162	980.455245
1630.397417	980.348951
1632.278058	971.993706
1634.152895	967.554545
1636.032714	965.616783
1637.908527	964.502797
1639.783930	974.595105
1641.660719	973.232168
1643.531712	983.316783
1645.405886	985.082517
1647.276062	987.726573
1649.149418	983.912587
1651.020571	977.712587
1652.889522	976.514685
1654.759859	971.289510
1656.626202	968.326573
1658.493931	968.770629
1660.359461	964.693007
1662.226377	966.369930
1664.089304	962.271329
1665.953616	963.625874
1667.815732	956.541958
1669.677444	956.019580
1671.540540	948.091608
1673.401442	944.944755
1675.260150	943.651049
1677.118455	947.210490
1678.978145	946.058042
1680.832068	950.542657
1682.689163	944.799301
1684.545856	944.681119
1686.398573	943.155245
1688.254460	941.841259
1690.106374	936.330769
1691.957887	940.358741
1693.808999	940.067133
1695.659711	938.912587
1697.510022	944.179720
1699.358148	944.675524
1701.207659	942.699301
1703.051421	948.952448
1704.900132	945.004895
1706.743098	949.219580
1708.589229	947.344755
1710.431399	944.834965
1712.276733	945.472028
1714.116327	951.272727
1715.957305	951.144056
1717.799666	944.844755
1719.638071	946.730769
1721.477859	939.065035
1723.315472	932.413287
1725.152689	933.301399
1726.987733	927.740559
1728.824160	918.565035
1730.658415	908.840559
1732.492275	899.207692
1734.325742	905.727273
1736.155262	907.548252
1737.987941	909.624476
1739.816676	916.015385
1741.648568	916.920280
1743.476519	917.334965
1745.304077	921.707692
1747.131243	927.506294
1748.958018	926.541259
1750.784402	922.241259
1752.606848	922.244755
1754.432450	921.872028
1756.254117	930.007692
1758.077166	928.330769
1759.898053	935.660140
1761.718552	935.309790
1763.540432	931.314685
1765.356612	938.008392
1767.175944	939.006294
1768.991349	935.002098
1770.809904	932.429371
1772.624534	930.302098
1774.438778	932.739161
1776.252634	931.257343
1778.066104	927.930769
1779.877421	924.762238
1781.690119	924.165734
1783.502430	922.695105
1785.310824	923.199301
1787.120598	919.124476
1788.926458	916.391608
1790.735463	916.880420
1792.540555	919.143357
1794.347028	915.627273
1796.153117	924.023077
1797.955296	917.687413
1799.760618	913.848951
1801.562032	913.373427
1803.364826	910.113287
1805.163714	910.539860
1806.963983	903.525175
1808.763870	900.631469
1810.561616	901.637063
1812.358980	902.741958
1814.155965	903.073427
1815.952569	902.868531
1817.747034	910.972028
1819.542878	905.397902
1821.333068	910.190210
1823.128153	909.913986
1824.917587	909.724476
1826.710157	907.557343
1828.500592	903.526573
1830.288893	898.822378
1832.080329	893.660140
1833.866119	890.313986
1835.653289	884.739161
1837.438327	883.786014
1839.226499	883.255944
1841.010785	885.848252
1842.792942	891.262937
1844.576477	895.959441
1846.357884	900.072727
1848.140670	905.175524
1849.919575	907.593007
1851.699860	902.100699
1853.478018	902.860839
1855.257555	895.221678
1857.034967	893.299301
1858.810255	893.514685
1860.586922	892.139161
1862.361465	890.841259
1864.137387	891.647552
1865.907688	895.663636
1867.681117	896.927972
1869.452426	899.078322
1871.223365	895.577622
1872.995680	889.032168
1874.762382	887.679720
1876.532210	885.160839
1878.298174	887.827972
1880.067262	889.746853
1881.832488	886.960140
1883.597345	883.897902
1885.363580	884.318881
1887.125956	880.332168
1888.887965	886.916783
1890.649606	879.345455
1892.410881	880.672028
1894.171788	885.162937
1895.932329	888.276224
1897.690760	887.109790
1899.448826	886.985315
1901.204783	886.718182
1902.962117	879.486014
1904.719086	875.325874
1906.473949	873.288811
1908.226706	867.247552
1909.979100	871.135664
1911.732869	864.672028
1913.484535	871.491608
1915.234099	875.874126
1916.985038	874.789510
1918.735615	872.019580
1920.482352	875.605594
1922.230466	875.289510
1923.976480	873.395105
1925.723870	873.290909
1927.469161	876.911888
1929.212355	871.925874
1930.956924	874.792308
1932.699398	873.532867
1934.441511	868.986014
1936.183264	865.354196
1937.924658	863.111189
1939.663957	867.846503
1941.402898	871.197902
1943.141481	871.549301
1944.877971	874.105594
1946.614104	874.896154
1948.351611	878.711189
1950.085296	876.873077
1951.820356	878.320280
1953.553328	871.864685
1955.285942	866.017483
1957.018201	864.886364
1958.750103	866.362937
1960.479919	871.519580
1962.207650	868.118881
1963.936756	866.363636
1965.665507	866.720979
1967.392174	867.645455
1969.118487	870.114685
1970.846173	869.699301
1972.568323	870.839860
1974.293574	867.139161
1976.015019	870.537063
1977.739563	873.008392
1979.462028	874.141259
1981.180689	874.991608
1982.902449	875.177622
1984.620407	874.900699
1986.339738	875.083217
1988.055270	870.925175
1989.775622	876.149650
1991.492176	869.912587
1993.204933	867.316084
1994.920787	861.617483
1996.634567	861.281119
1998.347998	856.243357
2000.059358	858.124476
2001.772090	857.774126
2003.481032	859.618881
2005.193067	858.260839
2006.899592	855.666434
2008.609210	856.062238
2010.316760	861.425874
2012.023963	858.425874
2013.729100	860.308392
2015.433890	862.368531
2017.140052	862.594406
2018.842432	862.271329
2020.546184	869.013287
2022.247872	862.741259
2023.949216	864.376224
2025.650214	865.014685
2027.349151	863.719580
2029.049460	860.904895
2030.745994	862.278322
2032.443899	860.434266
2034.139745	862.016783
2035.838677	863.731469
2037.532123	862.404196
2039.226940	865.086014
2040.921415	867.462937
2042.612121	862.624476
2044.305911	862.983916
2045.995934	862.402797
2047.687328	860.683217
2049.376669	855.083916
2051.067380	859.316783
2052.754328	856.819580
2054.440937	857.651748
2056.128916	851.560140
2057.813135	850.312587
2059.498724	851.723077
2061.183974	848.796503
2062.867176	842.584615
2064.551747	841.186014
2066.230856	843.118881
2067.914750	843.174825
2069.593184	844.546853
2071.274694	852.716783
2072.952454	851.682517
2074.629876	848.241958
2076.308668	843.923776
2077.985418	847.620280
2079.660126	850.944755
2081.336203	847.175524
2083.010240	843.162238
2084.683941	844.059441
2086.357307	846.870629
2088.028635	847.629371
2089.699628	847.237063
2091.370287	848.279021
2093.040611	842.724476
2094.710602	838.639161
2096.378557	837.465734
2098.046179	836.858042
2099.711766	836.452448
2101.378723	830.804895
2103.043645	832.403497
2104.708236	835.958741
2106.370795	844.664336
2108.034722	847.339860
2109.696619	847.800000
2111.358184	846.810490
2113.019418	847.261538
2114.678624	851.232168
2116.337499	854.750350
2117.996045	853.225874
2119.654261	857.028671
2121.308753	859.947552
2122.966310	862.806993
2124.623538	860.127972
2126.277044	861.002797
2127.931918	851.658042
2129.583074	841.988811
2131.237291	830.330070
2132.887792	830.007692
2134.539659	829.088112
2136.186118	824.607692
2137.837332	825.360839
2139.484832	830.469930
2141.133699	836.539161
2142.780548	837.936364
2144.427070	838.095105
2146.073267	841.059441
2147.715756	839.858741
2149.361303	840.800000
2151.003143	840.490210
2152.648040	838.772028
2154.289232	835.530070
2155.930100	833.442657
2157.570644	835.916783
2159.209176	834.913986
2160.849074	837.039860
2162.485272	834.866434
2164.122837	832.124476
2165.760078	829.172727
2167.395310	827.687413
2169.030221	824.000000
2170.664810	818.427273
2172.299077	809.755944
2173.929651	811.867133
2175.563277	812.548252
2177.193211	816.118182
2178.824510	817.286014
2180.453804	818.473427
2182.082779	822.023776
2183.711434	820.938462
2185.339770	818.872727
2186.966104	825.055245
2188.592119	818.974825
2190.216133	818.323776
2191.841511	816.738462
2193.464890	814.219580
2195.089632	810.000699
2196.710694	809.418881
2198.331439	805.467133
2199.953549	802.739860
2201.573661	807.717483
2203.191776	805.381119
2204.809576	809.902098
2206.427061	813.348951
2208.044230	809.268531
2209.661084	815.655245
2211.277623	817.329371
2212.892168	811.709790
2214.504721	810.797902
2216.118638	807.802797
2217.730564	803.825874
2219.343853	807.781818
2220.955152	808.010490
2222.564461	801.509091
2224.175134	797.672727
2225.783818	791.239161
2227.392190	790.879021
2228.998574	799.693007
2230.606322	801.306294
2232.212083	800.626573
2233.817533	800.220979
2235.420998	800.804196
2237.025826	802.753147
2238.628670	810.650350
2240.229532	807.160839
2241.831755	803.300699
2243.431997	803.098601
2245.033601	807.310490
2246.631553	807.815385
2248.230867	815.503497
2249.828201	813.262937
2251.425226	812.851748
2253.023614	808.356643
2254.618353	808.864336
2256.211115	804.610490
2257.805240	806.293706
2259.400726	806.324476
2260.992568	805.646154
2262.584103	810.734965
2264.176999	814.267133
2265.764586	809.958042
2267.356870	812.688112
2268.943846	812.837063
2270.533851	813.404895
2272.118551	808.525175
2273.707944	803.469231
2275.292036	800.296503
2276.877489	797.462937
2278.460972	798.946154
2280.047482	798.680420
2281.630358	803.917483
2283.212930	803.252448
2284.795199	798.772028
2286.373839	792.372028
2287.955502	787.180420
2289.533537	783.327273
2291.114595	775.754545
2292.692026	765.299301
2294.267494	758.604196
2295.845984	751.375524
2297.420850	752.246853
2298.995415	753.931469
2300.569680	756.623776
2302.143644	758.877622
2303.717308	757.175524
2305.290671	761.812587
2306.860416	764.614685
2308.429862	770.898601
2310.002326	769.965734
2311.569516	759.897902
2313.139724	759.162238
2314.706317	757.560839
2316.274270	750.475524
2317.840267	751.826573
2319.405967	752.679021
2320.971370	756.434965
2322.534818	760.693706
2324.099626	771.402797
2325.660826	775.848951
2327.225040	785.055944
2328.783992	784.402098
2330.345959	779.885315
2331.905975	779.685315
2333.465695	773.490909
2335.023466	768.292308
2336.580942	769.402797
2338.138124	765.805594
2339.693358	763.810490
2341.248299	768.197902
2342.802946	773.218881
2344.357299	783.325175
2345.911358	792.479720
2347.465123	791.498601
2349.016945	785.837762
2350.566823	773.973427
2352.119709	774.723776
2353.667353	774.306993
2355.218004	772.232867
2356.765064	773.745455
2358.313483	770.676923
2359.861609	774.812587
2361.406147	772.662238
2362.952043	774.688811
2364.496001	775.816084
2366.041316	769.690909
2367.583046	764.909091
2369.126133	765.142657
2370.667285	769.046853
2372.208147	768.481119
2373.748719	774.146853
2375.289003	777.056643
2376.828998	775.116084
2378.365415	776.127273
2379.904833	771.867133
2381.440674	776.965035
2382.977871	780.503497
2384.511493	781.937063
2386.048116	785.968531
2387.582807	791.101399
2389.115569	779.440559
2390.648044	780.365734
2392.178591	780.032168
2393.712136	776.291608
2395.240470	777.553846
2396.770161	778.709790
2398.299566	784.264336
2399.828685	788.543357
2401.357520	788.009790
2402.881149	792.378322
2404.409415	792.773427
2405.932477	789.072727
2407.460173	784.518182
2408.981030	787.427972
2410.506520	777.372727
2412.028449	777.671329
2413.551734	779.689510
2415.073098	780.847552
2416.592542	788.172727
2418.113341	790.823776
2419.632221	794.141259
2421.150819	796.978322
2422.667500	792.571329
2424.185535	783.619580
2425.703289	777.427972
2427.217492	765.449650
2428.731414	760.552448
2430.245056	758.901399
2431.760053	752.016783
2433.271501	759.844056
2434.784304	767.457343
2436.295193	769.234266
2437.805804	773.206993
2439.314503	769.909091
2440.826188	763.290210
2442.334330	758.446154
2443.842194	749.800000
2445.349780	749.276224
2446.853825	755.259441
2448.360856	746.306993
2449.865978	740.772028
2451.370823	747.545455
2452.873760	747.091608
2454.376422	747.460140
2455.878807	751.772028
2457.379287	744.420979
2458.881120	743.198601
2460.381049	740.406993
2461.880702	732.095804
2463.380079	738.058042
2464.877554	736.960839
2466.373127	730.726573
2467.871680	730.895105
2469.366705	734.789510
2470.863082	739.759441
2472.355933	742.848951
2473.850137	745.539161
2475.344067	743.882517
2476.834473	748.463636
2478.327857	739.939860
2479.819343	739.714685
2481.308932	742.425874
2482.798249	735.651748
2484.285671	737.202098
2485.776068	732.474825
2487.262946	730.897902
2488.751176	732.772727
2490.235890	726.712587
2491.720333	732.916783
2493.206128	737.286713
2494.690030	737.917483
2496.175284	739.413287
2497.655403	739.428671
2499.138496	732.165035
2500.619698	732.262937
2502.100631	731.016084
2503.579675	727.374825
2505.058450	729.952448
2506.536957	730.679021
2508.015196	720.861538
2509.493166	726.218182
2510.967632	725.925175
2512.445066	723.362937
2513.918997	731.260140
2515.394278	729.495804
2516.869293	734.369930
2518.340806	741.644056
2519.813669	739.457343
2521.284650	743.754545
2522.756981	740.062937
2524.224199	733.597203
2525.694382	727.172727
2527.162685	725.390210
2528.630723	721.900699
2530.098496	720.159441
2531.566004	728.576224
2533.033247	732.451748
2534.496998	734.254545
2535.962099	735.381119
2537.425323	731.611189
2538.889897	733.206294
2540.350981	729.555245
2541.813415	728.811888
2543.275586	727.816783
2544.734271	721.704895
2546.197528	719.695105
2547.655688	723.460839
2549.115197	727.650350
2550.569613	727.426573
2552.028598	722.565734
2553.485712	730.413287
2554.940955	728.137762
2556.395937	733.674825
2557.849049	732.655944
2559.303510	729.083217
2560.756102	724.895105
2562.208434	718.604196
2563.658898	714.483916
2565.112318	711.378322
2566.560656	707.022378
2568.011950	704.746853
2569.461377	704.076923
2570.907332	711.096503
2572.356242	710.227273
2573.801682	715.629371
2575.248470	718.246853
2576.693394	721.480420
2578.138060	727.381119
2579.584075	723.990210
2581.026622	721.938462
2582.470517	716.739161
2583.910947	710.979021
2585.352724	709.917483
2586.792642	708.688811
2588.233907	710.045455
2589.671711	710.913986
2591.112464	716.484615
2592.548154	718.256643
2593.986794	722.923776
2595.423576	721.221678
2596.858503	720.948252
2598.296377	719.065734
2599.729194	709.958741
2601.163358	707.720979
2602.595668	708.113986
2604.029324	704.133566
2605.461127	707.527972
2606.892676	708.037063
2608.323973	709.293007
2609.753417	704.655245
2611.182609	702.254545
2612.609951	700.774126
2614.038638	705.795105
2615.467074	702.534266
2616.892062	702.013287
2618.318397	705.002797
2619.742883	704.325874
2621.168715	701.132168
2622.591103	701.534965
2624.014837	701.455944
2625.436724	700.634266
2626.858362	695.793007
2628.278154	692.695105
2629.699292	693.336364
2631.120180	691.596503
2632.537630	689.599301
2633.958019	686.647552
2635.374971	686.475524
2636.791674	686.579720
2638.208130	688.716084
2639.624336	688.479021
2641.040295	691.088112
2642.454413	692.253147
2643.868284	694.395804
2645.280315	696.886014
2646.693691	694.099301
2648.103637	693.544755
2649.516518	694.851049
2650.925971	690.709790
2652.335178	692.672727
2653.742549	692.144056
2655.152855	693.688112
2656.561324	691.045455
2657.967958	690.712587
2659.374347	688.954545
2660.778902	688.693706
2662.184801	690.939860
2663.588867	689.418881
2664.992688	694.460140
2666.396266	690.431469
2667.798011	689.017483
2669.201100	685.481119
2670.600771	684.804196
2672.001786	688.694406
2673.399385	686.218881
2674.799914	685.974126
2676.197028	684.965035
2677.595485	680.377622
2678.992114	681.800000
2680.388501	679.962238
2681.784647	682.662937
2683.178966	677.544755
2684.574628	676.055944
2685.966880	670.599301
2687.360475	674.551049
2688.752247	681.687413
2690.145360	684.976224
2691.536650	689.462238
2692.926117	692.076923
2694.315344	686.923077
2695.704332	687.318182
2697.094662	685.891608
2698.480007	686.105594
2699.868276	677.227972
2701.254725	675.180420
2702.640935	680.756643
2704.026907	686.475524
2705.409479	693.306993
2706.793394	696.906294
2708.177071	693.660839
2709.560510	691.823776
2710.940553	686.393007
2712.321938	686.739161
2713.701507	683.140559
2715.082418	675.308392
2716.461513	672.536364
2717.838795	676.202797
2719.217418	678.940559
2720.594228	677.634965
2721.970802	675.590909
2723.347140	676.086713
2724.721666	673.342657
2726.097533	673.603497
2727.470013	672.820280
2728.845409	679.093706
2730.215845	681.465035
2731.587622	681.562238
2732.959164	686.674825
2734.328898	685.313986
2735.699973	683.656643
2737.069239	677.409091
2738.438273	669.574126
2739.805499	671.556643
2741.172493	669.184615
2742.539254	666.841259
2743.905782	661.701399
2745.270505	665.595804
2746.634997	668.776224
2747.999256	671.900699
2749.363283	673.384615
2750.727079	677.721678
2752.087501	674.736364
2753.450834	669.825175
2754.809224	669.709091
2756.170524	667.192308
2757.528453	658.547552
2758.889291	656.887413
2760.248330	648.760839
2761.604000	646.600000
2762.962578	648.262238
2764.317789	650.203497
2765.672772	651.625874
2767.025957	659.364336
2768.382049	660.639161
2769.734777	662.328671
2771.087276	662.586713
2772.439547	656.627273
2773.793157	650.929371
2775.143405	654.837063
2776.491860	647.526573
2777.843219	651.711888
2779.191219	655.552448
2780.540557	653.228671
2781.888104	656.500000
2783.235423	659.972727
2784.582516	656.668531
2785.927818	647.348951
2787.272894	650.130769
2788.617743	644.643357
2789.962367	637.038462
2791.303639	638.335664
2792.646249	639.400000
2793.988633	640.468531
2795.330793	638.014685
2796.669603	634.463636
2798.011312	642.287413
2799.349674	640.755245
2800.689373	638.779021
2802.027286	637.916084
2803.363415	650.409091
2804.699320	650.706993
2806.036563	653.822378
2807.372022	659.282517
2808.707258	657.550350
2810.040711	651.776923
2811.375502	650.504196
2812.706951	652.503497
2814.041296	655.641259
2815.370743	649.641259
2816.701527	648.586014
2818.032089	648.406294
2819.360872	653.125874
2820.690991	653.576224
2822.019332	651.370629
2823.347452	650.023776
2824.673794	639.976923
2826.001473	638.162238
2827.325818	632.698601
2828.651500	633.587413
2829.975406	629.567133
2831.299093	627.570629
2832.624115	627.652448
2833.945807	626.579021
2835.267281	627.107692
2836.588536	631.748252
2837.909572	633.029371
2839.228836	637.633566
2840.549435	636.765734
2841.868262	637.728671
2843.186871	635.265734
2844.503709	636.154545
2845.820330	636.404196
2847.136734	635.832867
2848.451368	633.625874
2849.767338	632.941958
2851.079987	628.174126
2852.393972	630.712587
2853.707739	629.529371
2855.021291	628.341958
2856.333075	626.960140
2857.643093	623.290909
2858.954446	627.030070
2860.262484	628.541259
2861.571857	628.090210
2862.881014	631.627972
2864.189956	635.979021
2865.497134	637.710490
2866.802550	633.509091
2868.109300	630.642657
2869.414287	631.606294
2870.719061	631.972727
2872.022073	632.413986
2873.327967	636.606294
2874.629005	636.232168
2875.931378	630.566434
2877.231991	625.921678
2878.533938	630.155245
2879.835672	629.454545
2881.134101	626.195105
2882.433865	626.100699
2883.731870	623.410490
2885.029664	626.979021
2886.325702	633.720280
2887.623073	629.054545
2888.918688	632.523077
2890.214092	628.544755
2891.509285	621.146853
2892.801181	619.780420
2894.095953	617.685315
2895.387428	611.717483
2896.680236	610.781818
2897.972834	610.856643
2899.262138	610.198601
2900.552774	612.374126
2901.841659	614.182517
2903.131877	612.108392
2904.418802	617.267832
2905.707061	623.990909
2906.993569	626.411888
2908.279870	629.074126
2909.565962	630.353846
2910.850306	626.324476
2912.137521	623.629371
2913.419910	618.603497
2914.703631	616.797902
2915.985606	614.130769
2917.267373	612.448252
2918.547396	615.988112
2919.830288	612.811888
2921.111435	615.623776
2922.389300	618.993007
2923.670034	615.808392
2924.947487	618.553147
2926.224734	615.281818
2927.500240	615.983916
2928.778613	619.146154
2930.052171	618.893007
2931.328597	622.018881
2932.603282	625.227273
2933.876227	625.362238
2935.150502	619.688811
2936.423038	618.334965
2937.695370	616.648951
2938.964428	610.267832
2940.236352	608.779720
2941.506538	610.908392
2942.776521	606.289510
2944.046300	604.915385
2945.314342	604.574126
2946.580649	602.471329
2947.846753	600.239860
2949.114187	596.294406
2950.379887	592.148252
2951.645384	596.911189
2952.910679	596.032168
2954.172709	593.739161
2955.436070	597.106294
2956.699228	603.986014
2957.960655	598.720979
2959.223411	603.889510
2960.484436	611.300000
2961.743729	610.407692
2963.002823	615.399301
2964.261716	613.398601
2965.520409	610.024476
2966.778902	611.200000
2968.035666	612.214685
2969.292230	608.782517
2970.547067	606.820979
2971.803232	602.620979
2973.056143	598.073427
2974.310383	597.047552
2975.564424	598.554545
2976.816739	598.276923
2978.068856	599.672028
2979.319247	590.511888
2980.572494	588.572028
2981.820964	590.185315
2983.072289	595.135664
2984.320364	592.095105
2985.568243	591.748951
2986.815924	596.297902
2988.063409	602.990210
2989.309171	607.462937
2990.554738	616.163636
2991.801632	618.035664
2993.045282	612.666434
2994.290260	602.203497
2995.531994	602.521678
2996.776580	597.374825
2998.019447	595.901399
2999.259073	591.091608
3000.501549	591.828671
3001.740786	591.590210
3002.981350	594.818182
3004.220197	600.932168
3005.458850	607.433566
3006.695787	603.343357
3007.934051	593.765734
3009.170601	588.931469
3010.406956	587.003497
3011.643118	585.895105
3012.877567	589.383916
3014.111822	588.493706
3015.345884	590.785315
3016.578234	589.066434
3017.808872	593.902797
3019.042356	600.164336
3020.274128	602.843357
3021.504190	596.954545
3022.734060	593.232168
3023.962220	588.677622
3025.191706	586.025874
3026.419484	583.181119
3027.647070	581.155245
3028.875982	580.851049
3030.100152	583.328671
3031.327165	577.930070
3032.550954	580.940559
3033.776070	586.258042
3034.999479	587.325175
3036.222698	588.769231
3037.444212	594.783916
3038.668567	595.002098
3039.888187	598.706294
3041.109133	593.754545
3042.329890	592.872727
3043.548943	595.068531
3044.769322	593.419580
3045.986484	584.555245
3047.204971	585.811189
3048.421756	585.351049
3049.638354	579.727273
3050.854763	577.044056
3052.067960	579.270629
3053.283994	578.157343
3054.496816	580.158042
3055.712475	576.193007
3056.923411	580.117483
3058.135672	580.601399
3059.347747	583.182517
3060.559635	586.119580
3061.769825	587.955245
3062.979829	588.702098
3064.189647	585.981119
3065.397770	578.497203
3066.605706	576.021678
3067.811948	572.453846
3069.019513	569.830769
3070.225384	568.343357
3071.431071	569.892308
3072.636572	564.648252
3073.840380	564.957343
3075.045512	568.739161
3076.248952	571.007692
3077.450699	575.200000
3078.652263	575.139860
3079.853642	566.876224
3081.054839	569.813986
3082.254344	573.569930
3083.453667	577.833566
3084.654313	583.811189
3085.853269	582.753846
3087.049031	577.002098
3088.247622	578.411888
3089.443019	578.566434
3090.639739	576.834266
3091.833267	578.015385
3093.029623	578.073427
3094.224293	574.171329
3095.415772	582.116783
3096.611582	584.806294
3097.802699	586.106993
3098.995138	588.899301
3100.184390	588.530070
3101.376468	583.786014
3102.566861	581.594406
3103.754069	575.711888
3104.942600	572.200699
3106.132452	570.780420
3107.319121	576.290909
3108.505610	571.660839
3109.691919	577.408392
3110.879550	573.323077
3112.064000	572.201399
3113.246769	575.579720
3114.432361	574.104895
3115.616274	566.890909
3116.798508	562.852448
3117.980563	562.467832
3119.162441	557.860140
3120.344140	555.356643
3121.524161	561.106294
3122.702506	559.485315
3123.883672	561.102797
3125.061662	561.162937
3126.239475	564.774825
3127.417111	566.466434
3128.593072	565.134965
3129.768856	562.874126
3130.945962	564.581818
3132.121393	565.018182
3133.295151	562.709790
3134.467237	562.906294
3135.640643	564.294406
3136.813874	560.460140
3137.985432	557.643357
3139.158311	555.263636
3140.328024	554.334965
3141.499056	552.262937
3142.668419	553.955944
3143.836112	557.597902
3145.006620	558.311189
3146.172469	555.811888
3147.342628	558.874126
3148.508129	562.386014
3149.673457	562.427972
3150.838611	564.332168
3152.003591	566.582517
3153.169892	563.629371
3154.331539	563.382517
3155.494506	561.790210
3156.657301	561.006993
3157.819923	560.569930
3158.980880	552.860140
3160.141664	547.914685
3161.302276	545.846154
3162.461225	543.799301
3163.620001	546.304196
3164.778606	548.467133
3165.937039	549.032168
3167.095300	550.806993
3168.251899	548.719580
3169.406837	544.132867
3170.563094	544.710490
3171.717690	543.769231
3172.872116	540.695105
3174.024882	543.873427
3175.177478	547.131469
3176.329903	548.513986
3177.482159	550.342657
3178.634244	551.040559
3179.783184	556.237063
3180.934930	556.055245
3182.085018	554.290210
3183.233450	550.289510
3184.381713	550.425874
3185.529806	541.819580
3186.677731	541.902098
3187.824001	541.617483
3188.970102	541.923077
3190.114548	543.151049
3191.258827	545.690909
3192.402938	552.855245
3193.548367	557.103497
3194.690656	553.545455
3195.832779	555.581119
3196.974734	553.167133
3198.116523	549.062238
3199.258144	542.348951
3200.396629	542.305594
3201.536432	539.224476
3202.677553	543.099301
3203.815539	550.711888
3204.951876	556.976923
3206.088047	560.473427
3207.225536	558.539860
3208.361375	551.431469
3209.498532	552.021678
3210.631076	539.663636
3211.767902	533.530769
3212.900116	523.506294
3214.033647	519.279021
3215.167014	517.467133
3216.297253	518.770629
3217.430290	522.325175
3218.560201	526.334965
3219.691428	525.993007
3220.819531	524.444056
3221.950430	523.007692
3223.079685	524.248951
3224.207297	519.681119
3225.331787	523.530769
3226.460551	518.809790
3227.586194	518.004196
3228.711675	519.146154
3229.835514	517.045455
3230.962147	517.108392
3232.084183	515.150350
3233.207535	510.386014
3234.330725	511.913986
3235.453753	513.039860
3236.575141	516.288811
3237.696368	520.421678
3238.815956	524.782517
3239.935383	526.564336
3241.053172	527.600699
3242.173754	533.794406
3243.291221	536.695105
3244.408528	538.598601
3245.525675	538.052448
3246.641186	542.015385
3247.758012	543.603497
3248.871727	547.063636
3249.988232	545.673427
3251.103103	543.295105
3252.214865	536.141958
3253.326468	529.868531
3254.439385	529.153846
3255.552144	527.943357
3256.661796	526.641259
3257.772762	527.301399
3258.883570	527.975524
3259.992747	531.043357
3261.100292	532.772028
3262.209151	541.958042
3263.317853	547.227273
3264.423452	547.233566
3265.530365	547.901399
3266.635649	547.750350
3267.742248	553.752448
3268.845746	556.491608
3269.950558	557.573427
3271.055213	554.120280
3272.156769	547.022378
3273.258170	540.695105
3274.360884	538.033566
3275.463441	540.311189
3276.562902	539.604895
3277.665147	534.526573
3278.764296	535.995105
3279.861821	534.043357
3280.959190	540.991608
3282.059342	545.136364
3283.156400	543.830070
3284.253303	542.845455
3285.350051	543.476923
3286.442241	542.431469
3287.538679	543.762238
3288.633495	543.110490
3289.728157	536.593007
3290.821197	534.144056
3291.914083	532.038462
3293.005348	530.854545
3294.097926	528.668531
3295.188883	527.011189
3296.278221	528.977622
3297.367406	533.671329
3298.457904	537.427273
3299.545317	540.474825
3300.632578	542.330070
3301.721151	538.751748
3302.809571	541.729371
3303.893444	542.978322
3304.981559	541.685315
3306.066593	539.739860
3307.150010	539.987413
3308.234740	539.417483
3309.317855	545.411189
3310.402281	546.492308
3311.483629	549.359441
3312.566289	551.460140
3313.647335	552.176224
3314.728230	551.173427
3315.807511	551.184615
3316.886643	544.025175
3317.967085	536.046853
3319.044454	535.462238
3320.123133	540.002098
3321.200202	538.120280
3322.277120	543.553846
3323.352427	536.957343
3324.427585	535.753147
3325.504054	535.958042
3326.577453	539.520979
3327.650703	537.989510
3328.725263	532.941259
3329.798215	530.733566
3330.869558	531.411189
3331.942213	538.927972
3333.011800	542.484615
3334.082698	540.109091
3335.151989	541.107692
3336.222591	534.818182
3337.291586	536.887413
3338.358975	536.510490
3339.424759	535.823077
3340.494769	531.808392
3341.561716	532.380420
3342.625601	538.113986
3343.692254	538.790210
3344.757302	541.872028
3345.820747	537.032168
3346.884046	536.657343
3347.947198	535.686713
3349.010204	540.079720
3350.073064	539.915385
3351.134322	535.895105
3352.192523	533.567133
3353.254945	531.958042
3354.314310	530.648951
3355.373530	528.606294
3356.434060	520.690210
3357.490080	520.920280
3358.548865	520.060140
3359.603142	527.016084
3360.660182	528.290909
3361.715625	538.344056
3362.772376	536.773427
3363.827529	540.995105
3364.881086	540.712587
3365.933045	541.497902
3366.987766	536.853846
3368.039438	533.316783
3369.090967	532.187413
3370.143804	531.258741
3371.193594	534.209790
3372.244693	533.867133
3373.292746	534.409790
3374.343559	537.090909
3375.391326	533.986014
3376.438951	533.449650
3377.486433	532.378322
3378.532323	535.595804
3379.579521	532.974825
3380.623677	533.885315
3381.670591	533.083916
3382.715913	526.657343
3383.758194	526.662238
3384.800335	523.303497
3385.843783	526.400000
3386.887091	524.968531
3387.928808	524.966434
3388.970384	525.490909
3390.011820	530.498601
3391.051666	537.885315
3392.089924	541.102797
3393.129491	539.452448
3394.168916	533.616783
3395.206754	530.218182
3396.243005	527.272028
3397.279117	527.243357
3398.316536	525.039860
3399.350922	521.803497
3400.386615	526.190210
3401.422169	524.625175
3402.454692	528.247552
3403.489968	530.455245
3404.522213	535.701399
3405.554320	533.434965
3406.584843	532.899301
3407.616673	530.197203
3408.648365	531.649650
3409.677030	533.293706
3410.705556	529.769930
3411.735390	530.253147
3412.765085	531.539161
3413.791755	527.338462
3414.819732	527.492308
3415.844684	524.976224
3416.872386	527.098601
3417.897065	523.750350
3418.923050	522.989510
3419.947455	518.581818
3420.971724	521.518881
3421.994414	520.714685
3423.016968	522.965734
3424.040828	523.863636
3425.061668	523.960839
3426.082373	526.121978
3427.104383	528.181269
3428.123375	529.825774
3429.142232	530.742557
3430.162394	530.618681
3431.179540	529.141209
