-118.077073	7.226099
-115.407473	14.696703
-112.740808	18.220030
-110.074895	18.645554
-107.411914	16.822752
-104.747504	13.601099
-102.086024	9.830070
-99.423114	8.136364
-96.765312	5.545455
-94.106079	7.942657
-91.447596	12.203497
-88.792036	13.207692
-86.135048	16.794406
-83.483157	20.687413
-80.829837	22.946154
-78.179437	21.632168
-75.527607	18.630769
-72.880868	15.378322
-70.232699	12.446853
-67.585274	8.521678
-64.940762	7.679720
-62.294822	9.493007
-59.653963	10.240559
-57.011675	11.146154
-54.372295	13.427273
-51.731487	11.546853
-49.091419	9.620280
-46.456423	9.483916
-43.819999	14.204895
-41.186477	15.869930
-38.551527	17.340559
-35.921642	17.209091
-33.288165	21.374825
-30.659750	22.209091
-28.032069	18.844755
-25.402959	16.930070
-22.778906	-1.514685
-20.151264	-47.620979
-17.528675	-131.706993
-14.906818	-73.500699
-12.285691	230.979720
-9.665294	651.205594
-7.047786	989.154545
-4.428848	1215.598601
-1.812797	1330.365035
0.802526	1332.032867
3.417122	1223.081119
6.028835	1007.041958
8.641977	688.247552
11.250085	306.501399
13.861775	-46.572727
16.468434	-168.848252
19.076521	-87.523776
21.683884	9.704895
24.286222	21.232168
26.892138	21.253147
29.493032	19.860839
32.095354	18.988811
34.692659	20.858042
37.293539	17.883916
39.889405	18.143357
42.486698	18.597203
45.083272	17.929371
47.674837	18.891608
50.267830	23.431469
52.857962	22.727972
55.449522	22.206993
58.038222	24.311888
60.628349	24.900699
63.213478	22.867133
65.800033	22.554545
68.385875	21.369930
70.968863	24.940559
73.553277	24.491608
76.130563	27.876923
78.711415	30.934965
81.289418	34.534965
83.866711	34.315385
86.445430	38.185315
89.019168	43.820979
91.594332	41.733566
94.166653	39.365734
96.738266	39.712587
99.307039	41.551748
101.877239	43.058042
104.444601	45.962238
107.013388	51.258042
109.579339	60.565035
112.142455	72.016084
114.709127	88.653846
117.266578	119.365734
119.829714	165.418182
122.387891	240.852448
124.949621	379.688811
127.506395	611.995105
130.064596	976.767832
132.617844	1480.579720
135.170393	2128.497902
137.726493	2868.805594
140.277646	3670.588112
142.828100	4456.897902
145.377857	5165.126573
147.924796	5748.511888
150.471038	6176.215385
153.018706	6439.859441
155.565678	6570.770629
158.107715	6597.844755
160.649058	6565.111189
163.189708	6510.739860
165.731784	6455.953147
168.271048	6409.701399
170.807504	6381.503497
173.343268	6350.659441
175.880458	6312.754545
178.416957	6286.618182
180.950650	6272.928671
183.481540	6259.209091
186.011741	6249.876224
188.543367	6240.538462
191.072192	6228.224476
193.598218	6225.195804
196.123558	6222.127273
198.650324	6221.304895
201.174292	6208.444056
203.697576	6190.126573
206.220175	6164.276923
208.739981	6151.327273
211.259104	6141.953846
213.777544	6140.595804
216.297408	6138.072727
218.810271	6150.741259
221.326665	6161.779720
223.842377	6177.496503
226.353199	6195.271329
228.865447	6212.800000
231.374911	6220.237762
233.883697	6222.514685
236.391805	6226.242657
238.901336	6237.047552
241.405987	6250.276224
243.909962	6261.711888
246.415362	6270.685315
248.915886	6283.414685
251.419933	6290.876923
253.917010	6303.926573
256.417609	6316.319580
258.915437	6317.574126
261.412592	6299.111888
263.909074	6290.937762
266.400693	6293.224476
268.895832	6287.513287
271.388205	6288.002797
273.879907	6278.995804
276.368845	6282.546154
278.859208	6282.641958
281.346808	6292.846154
283.831649	6303.424476
286.320005	6308.956643
288.801421	6303.200000
291.286351	6297.305594
293.766436	6307.060140
296.250033	6304.666434
298.728787	6306.676224
301.208965	6318.092308
303.686390	6310.075524
306.163152	6313.046154
308.639251	6310.220280
311.112601	6323.351049
313.585289	6334.155944
316.057316	6347.879021
318.528682	6359.335664
320.997304	6359.581818
323.465266	6365.679720
325.934650	6360.449650
328.399212	6361.913986
330.867278	6354.739161
333.330524	6339.032168
335.793112	6322.632168
338.255044	6304.500699
340.716319	6294.145455
343.174860	6274.867133
345.634823	6254.148252
348.092053	6223.457343
350.548629	6186.534965
353.004551	6136.619580
355.457744	6084.858741
357.912358	6025.648252
360.362171	5968.670629
362.815480	5906.182517
365.263991	5833.356643
367.711851	5770.734965
370.161132	5704.184615
372.605620	5641.099301
375.051530	5586.992308
377.496791	5529.325175
379.939332	5479.979720
382.381226	5415.294406
384.822473	5368.772727
387.261004	5322.080420
389.700957	5277.939161
392.138196	5232.102797
394.572723	5184.527273
397.010738	5151.141259
399.443976	5112.083916
401.878636	5080.180420
404.308522	5044.442657
406.741894	5014.798601
409.170496	4989.608392
411.598457	4965.374825
414.027838	4950.767133
416.452454	4938.575524
418.878492	4924.182517
421.303889	4912.531469
423.728646	4893.638462
426.148645	4884.151049
428.570065	4871.886713
430.988788	4862.768531
433.408932	4846.339161
435.826381	4835.481119
438.245250	4824.574825
440.661426	4812.344056
443.072855	4810.195804
445.487760	4819.125874
447.899975	4816.389510
450.311556	4814.548951
452.722503	4806.197902
455.130764	4807.193007
457.538392	4802.267832
459.945389	4795.330070
462.351753	4782.625175
464.755435	4770.013287
467.158487	4756.362937
469.560909	4741.586713
471.962701	4740.879021
474.361816	4736.119580
476.762350	4722.974825
479.162255	4712.870629
481.557437	4702.260140
483.956086	4690.232168
486.350015	4669.091608
488.743318	4651.241958
491.135995	4625.806294
493.528047	4609.413287
495.921517	4591.160839
498.310276	4573.072727
500.696368	4552.280420
503.083879	4526.814685
505.470768	4510.119580
507.854993	4491.677622
510.240637	4480.187413
512.623618	4466.137762
515.003939	4450.430769
517.385679	4438.927273
519.764760	4427.554545
522.145260	4427.284615
524.523102	4428.258741
526.898289	4416.490909
529.272858	4403.122378
531.648846	4382.728671
534.022180	4358.751748
536.396932	4328.022378
538.766999	4291.475524
541.136450	4250.751049
543.507319	4204.488811
545.873508	4160.843357
548.241115	4116.013986
550.606076	4070.368531
552.970424	4026.328671
555.334160	3974.058042
557.699312	3931.947552
560.059793	3878.000000
562.421692	3826.086014
564.780950	3768.500699
567.137571	3711.723776
569.497636	3655.102098
571.851011	3599.826573
574.207830	3543.985315
576.562013	3492.492308
578.915589	3439.634266
581.268556	3391.535664
583.618892	3351.514685
585.970644	3307.146154
588.315720	3268.602098
590.666260	3227.439161
593.010126	3185.995105
595.359454	3141.569930
597.704134	3104.825175
600.046188	3062.696503
602.389660	3029.773427
604.730509	3002.888112
607.070756	2978.950350
609.408382	2957.632168
611.749443	2946.015385
614.085866	2931.791608
616.423706	2934.332168
618.758929	2927.708392
621.091536	2919.554545
623.425559	2909.400000
625.756969	2906.620979
628.087780	2894.872727
630.417993	2899.116783
632.747608	2892.434266
635.072601	2889.200000
637.403035	2889.779021
639.728847	2893.726573
642.052053	2899.223776
644.376674	2905.911888
646.698690	2909.787413
649.020113	2910.910490
651.338932	2918.326573
653.659167	2927.839860
655.978809	2944.398601
658.295850	2959.764336
660.612299	2970.387413
662.926150	2995.634965
665.241417	3026.270629
667.554087	3046.741958
669.868172	3078.411888
672.177657	3107.358741
674.488558	3141.834266
676.796866	3174.396503
679.104586	3211.709790
681.413721	3249.432867
683.718263	3288.600699
686.022218	3315.634965
688.325588	3350.567133
690.630372	3391.615385
692.930570	3417.895105
695.232182	3443.479720
697.533210	3469.853846
699.829655	3491.072727
702.127516	3512.239860
704.424793	3532.790909
706.721487	3561.997203
709.013605	3586.590210
711.309134	3621.364336
713.600090	3653.794406
715.892460	3695.025175
718.182254	3737.975524
720.471468	3768.425874
722.760103	3804.559441
725.046166	3836.338462
727.333642	3868.910490
729.618547	3896.102098
731.902875	3921.485315
734.184634	3946.650350
736.467807	3969.830070
738.750403	3998.384615
741.028444	4029.848252
743.307898	4064.648951
745.586777	4091.927972
747.865080	4126.481818
750.138834	4169.293706
752.414002	4217.494406
754.688596	4258.904895
756.960630	4293.358042
759.234078	4326.740559
761.504968	4359.131469
763.773302	4387.900699
766.043049	4411.408392
768.310242	4440.455944
770.576864	4467.157343
772.842916	4482.837762
775.106417	4517.775524
777.371331	4550.122378
779.635675	4580.117483
781.895490	4607.204196
784.156717	4636.878322
786.417377	4666.286014
788.675491	4695.381818
790.931060	4725.925175
793.190020	4746.120979
795.442481	4774.402098
797.700309	4799.869930
799.953617	4812.002797
802.204386	4825.374825
804.456567	4839.920979
806.706210	4848.925874
808.957264	4852.965035
811.203807	4864.113287
813.451762	4873.532867
815.697183	4896.547552
817.944015	4916.689510
820.190286	4929.972727
822.432053	4961.765035
824.677202	4983.193706
826.915879	4999.379021
829.157938	5019.619580
831.395499	5057.444056
833.634472	5088.764336
835.870918	5115.992308
838.108775	5159.699301
840.344107	5206.237063
842.576916	5273.525874
844.811136	5322.880420
847.042834	5383.723776
849.273976	5458.835664
851.504565	5523.569930
853.734598	5597.582517
855.964078	5684.546853
858.189076	5787.362238
860.417449	5880.413287
862.641343	5971.836364
864.866647	6080.553147
867.087476	6185.510490
869.311677	6305.988112
871.531405	6420.062238
873.752544	6529.378322
875.973132	6646.013287
878.191210	6751.759441
880.410698	6856.973427
882.625720	6948.210490
884.840195	7042.888811
887.054121	7110.151748
889.267501	7164.026573
891.480333	7214.662238
893.692619	7254.301399
895.902402	7278.633566
898.111640	7299.234266
900.320333	7289.594406
902.526527	7271.827972
904.734130	7223.245455
906.939235	7160.816084
909.143797	7073.246154
911.345864	6978.261538
913.549340	6857.638462
915.750322	6733.695804
917.950763	6592.897203
920.152611	6450.386014
922.348069	6286.553147
924.546886	6138.348252
926.741264	5987.720979
928.939000	5839.832867
931.132300	5697.676923
933.327009	5567.557343
935.519232	5437.891608
937.710917	5320.568531
939.902064	5229.662937
942.090728	5148.558042
944.278855	5070.737063
946.464502	5014.479720
948.653501	4965.202098
950.838077	4935.598601
953.022118	4919.627972
955.209509	4907.830070
957.388596	4911.219580
959.571034	4915.136364
961.752938	4914.528671
963.932368	4920.430070
966.109324	4931.940559
968.287689	4923.190909
970.467461	4914.516084
972.640884	4900.610490
974.817653	4867.702797
976.990015	4829.879720
979.163785	4783.622378
981.333151	4724.367832
983.505861	4669.065734
985.676106	4609.340559
987.845822	4536.297203
990.015009	4472.395105
992.179799	4400.992308
994.347930	4326.121678
996.511667	4258.132168
998.676810	4192.134266
1000.839495	4123.854545
1003.001653	4065.739860
1005.161355	4002.766434
1007.320533	3934.744755
1009.481117	3873.726573
1011.639246	3810.547552
1013.796851	3742.965035
1015.953933	3678.305594
1018.110492	3604.567133
1020.262671	3546.829371
1022.416256	3492.862937
1024.569320	3448.309091
1026.719936	3403.326573
1028.871957	3371.610490
1031.019605	3334.193007
1033.170585	3304.390909
1035.317194	3272.529371
1037.463285	3243.232867
1039.608856	3210.183217
1041.755833	3168.583916
1043.896521	3124.127273
1046.040539	3088.704196
1048.182116	3057.537063
1050.323177	3024.283217
1052.465642	2996.386014
1054.601828	2977.588112
1056.741340	2948.802098
1058.876496	2922.572727
1061.014977	2895.146154
1063.149104	2877.586014
1065.282718	2850.188811
1067.417737	2815.531469
1069.548406	2782.207692
1071.680480	2756.025874
1073.810125	2734.339161
1075.939258	2700.748951
1078.067879	2672.356643
1080.195989	2640.370629
1082.321673	2607.061538
1084.446847	2568.006294
1086.573425	2535.449650
1088.695666	2497.758042
1090.819310	2450.473427
1092.938621	2401.206294
1095.063160	2354.046853
1097.181454	2319.109790
1099.301153	2278.223077
1101.418433	2228.634266
1103.535207	2182.613986
1105.651474	2147.174126
1107.765326	2106.953846
1109.880581	2061.508392
1111.991513	2015.853846
1114.105758	1964.127972
1116.215682	1913.964336
1118.327010	1868.402098
1120.437833	1827.848252
1122.544340	1799.667133
1124.654157	1761.158741
1126.759659	1723.725175
1128.866564	1691.151748
1130.967254	1667.290210
1133.073156	1634.079021
1135.174749	1604.420979
1137.277745	1570.644755
1139.380240	1534.160839
1141.476528	1498.653846
1143.578024	1463.457343
1145.675216	1429.572028
1147.771911	1398.833566
1149.868107	1370.241259
1151.963806	1345.867133
1154.059006	1319.958741
1156.151811	1299.326573
1158.246017	1277.016783
1160.334032	1256.087413
1162.427245	1233.067133
1164.514270	1208.401399
1166.604594	1184.348252
1168.690631	1159.479021
1170.779965	1134.272727
1172.863118	1118.282517
1174.947673	1107.091608
1177.033630	1089.069930
1179.115305	1068.153846
1181.198382	1056.202098
1183.279073	1039.841259
1185.359272	1021.348951
1187.438980	1007.823077
1189.518197	995.158042
1191.595032	980.062937
1193.669486	970.516783
1195.747231	960.098601
1197.820707	956.735664
1199.895583	948.582517
1201.966192	937.278322
1204.038203	925.131469
1206.107837	922.555245
1208.178872	910.273427
1210.249419	895.959441
1212.315705	891.775524
1214.383392	881.062238
1216.448707	873.612587
1218.515422	871.641958
1220.577881	865.559441
1222.643625	862.388811
1224.705116	853.795804
1226.768006	851.600000
1228.828529	845.663636
1230.888568	847.585315
1232.948125	844.106294
1235.005316	841.837063
1237.062026	844.844056
1239.116373	837.788811
1241.174000	835.260839
1243.229265	830.511888
1245.280289	827.492308
1247.332713	827.035664
1249.384657	824.139860
1251.434243	822.978322
1253.483350	819.425874
1255.531979	820.530070
1257.580129	821.448252
1259.627800	819.188811
1261.671242	815.069930
1263.717958	808.136364
1265.762321	805.974126
1267.806208	805.475524
1269.847743	808.443357
1271.886929	808.069930
1273.929388	808.539161
1275.967624	806.189510
1278.007259	807.415385
1280.046419	808.233566
1282.081360	808.018182
1284.117700	806.124476
1286.151696	803.141259
1288.187090	800.930769
1290.218270	797.089510
1292.250848	795.331469
1294.282955	794.987413
1296.312721	792.544755
1298.343885	789.765035
1300.370841	784.967832
1302.399195	783.980420
1304.423345	785.941958
1306.450759	786.018182
1308.473971	787.439161
1310.498581	787.048252
1312.520857	787.780420
1314.544530	785.555944
1316.565870	792.897203
1318.586742	792.823077
1320.607147	792.874825
1322.623359	791.041958
1324.640968	790.961538
1326.656249	795.635664
1328.674789	801.423776
1330.689140	802.959441
1332.701165	803.652448
1334.716447	804.099301
1336.727544	806.209790
1338.740038	805.553147
1340.748349	806.315385
1342.759916	797.244755
1344.765443	797.237762
1346.774226	796.620280
1348.778831	798.305594
1350.786690	802.008392
1352.794087	803.097902
1354.795453	804.131469
1356.798216	801.563636
1358.800518	799.386713
1360.802361	801.026573
1362.803744	801.225874
1364.802814	801.102098
1366.801425	800.790909
1368.799578	801.728671
1370.797272	800.765035
1372.790804	801.959441
1374.785732	803.262238
1376.780202	805.558042
1378.774217	807.300699
1380.765923	800.972028
1382.757175	796.104895
1384.746121	796.375524
1386.736462	794.818182
1388.726348	794.350350
1390.713931	793.443357
1392.701059	790.627273
1394.685886	791.983217
1396.672108	794.698601
1398.656030	797.593706
1400.639499	798.538462
1402.622515	796.558741
1404.603234	788.662937
1406.585347	780.976923
1408.565164	775.462238
1410.544529	772.340559
1412.519756	766.181119
1414.498222	763.723077
1416.474393	766.658042
1418.450116	769.870629
1420.425389	772.742657
1422.398371	778.468531
1424.370905	777.894406
1426.342992	778.647552
1428.314630	776.783916
1430.282140	772.544056
1432.254724	771.279021
1434.219503	769.150350
1436.189353	761.553147
1438.155080	759.372727
1440.122199	759.494406
1442.087035	756.800000
1444.047751	754.647552
1446.013536	753.167832
1447.973365	745.571329
1449.934587	740.225874
1451.897202	735.951049
1453.855702	736.371329
1455.813759	736.854545
1457.771375	735.179720
1459.728549	737.058741
1461.683447	741.155245
1463.639737	746.176224
1465.593753	744.381119
1467.547329	743.240559
1469.498632	736.800000
1471.451327	731.134965
1473.401751	724.332168
1475.351735	720.934965
1477.301281	721.559441
1479.248558	720.779720
1481.193568	720.801399
1483.139969	722.276923
1485.085933	726.604895
1487.031460	730.873427
1488.974722	735.304196
1490.917547	737.527972
1492.858109	736.761538
1494.800062	736.960839
1496.739753	732.486713
1498.679010	727.204895
1500.617831	723.378322
1502.554393	716.578322
1504.492346	712.861538
1506.428040	706.592308
1508.363301	708.081818
1510.296306	709.194406
1512.228878	715.534266
1514.161018	713.675524
1516.092726	713.873427
1518.022180	714.020280
1519.953025	715.686014
1521.883438	710.731469
1523.809779	708.286014
1525.737511	707.372028
1527.662992	709.220979
1529.588044	706.625874
1531.512667	712.067832
1533.436861	713.921678
1535.358807	720.227972
1537.282144	714.279021
1539.203235	713.722378
1541.122081	711.579021
1543.042316	707.417483
1544.960309	702.997902
1546.877875	701.719580
1548.793199	700.697902
1550.709913	697.812587
1552.622572	692.790210
1554.538435	694.670629
1556.452058	696.564336
1558.363444	697.151748
1560.276218	692.023077
1562.184943	691.293007
1564.095058	684.062238
1566.004748	681.524476
1567.914016	683.995105
1569.821050	684.184615
1571.725851	682.551049
1573.632041	680.781119
1575.535999	674.790210
1577.439537	680.943357
1579.342653	680.860140
1581.243540	678.753147
1583.145816	679.434965
1585.045864	678.134266
1586.947299	675.177622
1588.844701	674.693007
1590.741684	678.032867
1592.638249	676.097203
1594.536202	672.920979
1596.428320	667.211888
1598.323631	667.258042
1600.218525	671.526573
1602.111197	670.541259
1604.003453	668.495105
1605.893488	675.875524
1607.783109	678.611888
1609.672313	683.507692
1611.561103	685.042657
1613.447675	684.193007
1615.335635	675.490909
1617.219578	673.339860
1619.104909	665.658042
1620.989825	665.739161
1622.872528	662.062238
1624.756618	663.562937
1626.636697	663.744056
1628.518162	666.599301
1630.397417	667.403497
1632.278058	667.126573
1634.152895	660.516783
1636.032714	657.696503
1637.908527	653.857343
1639.783930	653.948252
1641.660719	652.360839
1643.531712	656.473427
1645.405886	657.872028
1647.276062	663.504196
1649.149418	665.686014
1651.020571	667.384615
1652.889522	670.593706
1654.759859	666.518182
1656.626202	659.090909
1658.493931	656.656643
1660.359461	647.456643
1662.226377	641.216084
1664.089304	642.809091
1665.953616	650.218182
1667.815732	649.118182
1669.677444	649.339860
1671.540540	650.162238
1673.401442	656.305594
1675.260150	659.412587
1677.118455	659.093007
1678.978145	652.828671
1680.832068	655.126573
1682.689163	653.913287
1684.545856	649.543357
1686.398573	657.087413
1688.254460	656.445455
1690.106374	650.886713
1691.957887	645.466434
1693.808999	638.602797
1695.659711	633.973427
1697.510022	637.641958
1699.358148	639.672727
1701.207659	635.527273
1703.051421	641.202098
1704.900132	636.794406
1706.743098	635.894406
1708.589229	640.779021
1710.431399	637.810490
1712.276733	639.549650
1714.116327	638.846154
1715.957305	635.921678
1717.799666	634.767133
1719.638071	638.963636
1721.477859	640.571329
1723.315472	633.596503
1725.152689	627.551049
1726.987733	625.872727
1728.824160	629.550350
1730.658415	631.663636
1732.492275	633.997203
1734.325742	634.691608
1736.155262	640.297902
1737.987941	637.421678
1739.816676	641.204196
1741.648568	644.474126
1743.476519	642.809091
1745.304077	637.972028
1747.131243	631.656643
1748.958018	638.569930
1750.784402	639.855245
1752.606848	642.900000
1754.432450	641.172028
1756.254117	638.680420
1758.077166	637.999301
1759.898053	635.402797
1761.718552	636.318182
1763.540432	630.590210
1765.356612	626.095105
1767.175944	623.624476
1768.991349	622.965035
1770.809904	626.558741
1772.624534	624.829371
1774.438778	625.362238
1776.252634	622.014685
1778.066104	619.867832
1779.877421	616.848252
1781.690119	617.951049
1783.502430	614.272727
1785.310824	614.478322
1787.120598	618.357343
1788.926458	622.142657
1790.735463	624.866434
1792.540555	629.415385
1794.347028	630.334965
1796.153117	629.630769
1797.955296	632.604196
1799.760618	630.855944
1801.562032	624.053147
1803.364826	623.905594
1805.163714	613.011189
1806.963983	605.251748
1808.763870	603.388811
1810.561616	602.248252
1812.358980	598.658042
1814.155965	599.237762
1815.952569	596.956643
1817.747034	596.140559
1819.542878	604.831469
1821.333068	604.091608
1823.128153	601.357343
1824.917587	603.579720
1826.710157	597.750350
1828.500592	604.535664
1830.288893	613.130769
1832.080329	612.358741
1833.866119	612.888811
1835.653289	612.790909
1837.438327	621.474126
1839.226499	619.460839
1841.010785	623.006993
1842.792942	620.204895
1844.576477	615.124476
1846.357884	612.993007
1848.140670	606.586713
1849.919575	609.532168
1851.699860	603.378322
1853.478018	594.593007
1855.257555	592.301399
1857.034967	591.767832
1858.810255	598.555944
1860.586922	593.406294
1862.361465	598.229371
1864.137387	599.620979
1865.907688	598.893706
1867.681117	605.555944
1869.452426	602.334266
1871.223365	607.085315
1872.995680	606.123776
1874.762382	600.830769
1876.532210	604.207692
1878.298174	606.745455
1880.067262	612.313986
1881.832488	614.056643
1883.597345	614.480420
1885.363580	615.346853
1887.125956	618.748252
1888.887965	620.960140
1890.649606	613.588112
1892.410881	609.171329
1894.171788	604.902098
1895.932329	594.294406
1897.690760	592.179720
1899.448826	590.299301
1901.204783	588.605594
1902.962117	582.870629
1904.719086	581.351748
1906.473949	582.136364
1908.226706	583.671329
1909.979100	583.843357
1911.732869	584.717483
1913.484535	586.577622
1915.234099	586.831469
1916.985038	587.493007
1918.735615	588.964336
1920.482352	594.265734
1922.230466	591.879021
1923.976480	594.982517
1925.723870	603.655245
1927.469161	602.328671
1929.212355	605.344755
1930.956924	605.378322
1932.699398	604.293007
1934.441511	599.808392
1936.183264	594.067133
1937.924658	592.844755
1939.663957	584.062238
1941.402898	583.355245
1943.141481	579.846853
1944.877971	582.856643
1946.614104	588.133566
1948.351611	586.472028
1950.085296	590.765734
1951.820356	589.802797
1953.553328	592.435664
1955.285942	592.027273
1957.018201	590.795105
1958.750103	589.600699
1960.479919	587.376224
1962.207650	590.879720
1963.936756	590.462238
1965.665507	590.550350
1967.392174	592.822378
1969.118487	591.986014
1970.846173	587.596503
1972.568323	587.238462
1974.293574	589.469231
1976.015019	589.544755
1977.739563	586.753147
1979.462028	585.804196
1981.180689	587.154545
1982.902449	588.959441
1984.620407	590.919580
1986.339738	590.872727
1988.055270	594.095105
1989.775622	592.769930
1991.492176	584.325874
1993.204933	587.155245
1994.920787	589.837063
1996.634567	593.208392
1998.347998	587.304196
2000.059358	587.343357
2001.772090	591.447552
2003.481032	591.691608
2005.193067	594.528671
2006.899592	595.684615
2008.609210	595.993007
2010.316760	591.167133
2012.023963	587.837063
2013.729100	589.187413
2015.433890	590.051748
2017.140052	590.665035
2018.842432	586.208392
2020.546184	590.876224
2022.247872	592.913986
2023.949216	588.876224
2025.650214	590.388811
2027.349151	588.040559
2029.049460	588.254545
2030.745994	587.844755
2032.443899	588.720280
2034.139745	587.808392
2035.838677	591.158741
2037.532123	588.475524
2039.226940	587.879720
2040.921415	586.457343
2042.612121	583.879021
2044.305911	583.526573
2045.995934	583.993706
2047.687328	584.106993
2049.376669	584.569231
2051.067380	578.899301
2052.754328	576.516783
2054.440937	576.044755
2056.128916	579.710490
2057.813135	576.294406
2059.498724	579.751049
2061.183974	579.456643
2062.867176	579.697203
2064.551747	581.472028
2066.230856	580.341958
2067.914750	574.995804
2069.593184	568.725874
2071.274694	562.067133
2072.952454	560.845455
2074.629876	559.667133
2076.308668	562.605594
2077.985418	562.190909
2079.660126	566.863636
2081.336203	566.722378
2083.010240	567.746154
2084.683941	565.584615
2086.357307	566.076224
2088.028635	560.049650
2089.699628	558.342657
2091.370287	557.760839
2093.040611	561.482517
2094.710602	559.586014
2096.378557	565.611189
2098.046179	565.961538
2099.711766	566.427972
2101.378723	567.965734
2103.043645	574.279720
2104.708236	576.479021
2106.370795	578.369930
2108.034722	577.074825
2109.696619	578.982517
2111.358184	579.822378
2113.019418	582.289510
2114.678624	581.279720
2116.337499	580.651049
2117.996045	572.993706
2119.654261	567.641958
2121.308753	573.817483
2122.966310	581.001399
2124.623538	581.444755
2126.277044	582.612587
2127.931918	586.560140
2129.583074	586.389510
2131.237291	587.716084
2132.887792	588.632168
2134.539659	588.402098
2136.186118	582.594406
2137.837332	580.704196
2139.484832	579.943357
2141.133699	581.329371
2142.780548	573.100699
2144.427070	569.872028
2146.073267	567.219580
2147.715756	563.604895
2149.361303	561.445455
2151.003143	560.986713
2152.648040	560.688811
2154.289232	559.965734
2155.930100	558.862937
2157.570644	561.654545
2159.209176	559.688811
2160.849074	559.804196
2162.485272	554.368531
2164.122837	558.084615
2165.760078	555.301399
2167.395310	554.174825
2169.030221	556.150350
2170.664810	552.755245
2172.299077	550.413986
2173.929651	544.388112
2175.563277	542.247552
2177.193211	544.555944
2178.824510	543.853846
2180.453804	547.216783
2182.082779	543.651049
2183.711434	546.042657
2185.339770	544.566434
2186.966104	545.934965
2188.592119	546.917483
2190.216133	548.090909
2191.841511	546.158741
2193.464890	544.239860
2195.089632	547.749650
2196.710694	552.170629
2198.331439	549.620280
2199.953549	549.534266
2201.573661	544.465035
2203.191776	541.904196
2204.809576	536.514685
2206.427061	537.361538
2208.044230	537.883916
2209.661084	539.780420
2211.277623	536.665734
2212.892168	535.133566
2214.504721	534.177622
2216.118638	534.991608
2217.730564	535.100699
2219.343853	538.206993
2220.955152	538.594406
2222.564461	539.517483
2224.175134	536.665035
2225.783818	541.229371
2227.392190	543.376224
2228.998574	545.551748
2230.606322	538.215385
2232.212083	536.256643
2233.817533	530.419580
2235.420998	531.376224
2237.025826	533.320979
2238.628670	533.925874
2240.229532	530.453147
2241.831755	529.093706
2243.431997	526.009091
2245.033601	530.590210
2246.631553	533.713986
2248.230867	534.220280
2249.828201	531.595804
2251.425226	538.461538
2253.023614	539.589510
2254.618353	542.709091
2256.211115	546.422378
2257.805240	546.096503
2259.400726	544.230070
2260.992568	546.352448
2262.584103	548.802797
2264.176999	548.637762
2265.764586	545.732867
2267.356870	543.853846
2268.943846	547.272028
2270.533851	548.302098
2272.118551	543.015385
2273.707944	541.092308
2275.292036	541.000000
2276.877489	538.776923
2278.460972	533.330769
2280.047482	530.991608
2281.630358	528.827273
2283.212930	525.118531
2284.795199	524.139860
2286.373839	522.394755
2287.955502	525.341259
2289.533537	522.122727
2291.114595	519.177622
2292.692026	521.688462
2294.267494	517.606294
2295.845984	517.596853
2297.420850	513.995804
2298.995415	516.496853
2300.569680	519.008392
2302.143644	519.298252
2303.717308	518.150350
2305.290671	513.562238
2306.860416	513.688811
2308.429862	515.003497
2310.002326	512.700699
2311.569516	513.821678
2313.139724	515.130769
2314.706317	523.265734
2316.274270	527.590210
2317.840267	532.890210
2319.405967	532.425175
2320.971370	531.416783
2322.534818	531.486713
2324.099626	532.839161
2325.660826	531.350350
2327.225040	535.388112
2328.783992	531.053846
2330.345959	529.883916
2331.905975	534.115385
2333.465695	536.113287
2335.023466	532.148252
2336.580942	532.473427
2338.138124	531.921678
2339.693358	533.955245
2341.248299	532.537063
2342.802946	532.172028
2344.357299	526.064336
2345.911358	522.352448
2347.465123	518.208392
2349.016945	514.106294
2350.566823	516.613287
2352.119709	517.587413
2353.667353	520.318881
2355.218004	530.956643
2356.765064	534.141958
2358.313483	534.268531
2359.861609	528.599301
2361.406147	525.747552
2362.952043	525.893007
2364.496001	524.000699
2366.041316	528.930070
2367.583046	524.904196
2369.126133	529.211189
2370.667285	534.514685
2372.208147	536.737063
2373.748719	536.998601
2375.289003	537.465035
2376.828998	536.083916
2378.365415	534.475524
2379.904833	538.446154
2381.440674	538.850350
2382.977871	532.872727
2384.511493	528.897203
2386.048116	525.047552
2387.582807	528.911888
2389.115569	524.630070
2390.648044	522.192308
2392.178591	524.359441
2393.712136	526.269231
2395.240470	529.488112
2396.770161	533.484615
2398.299566	532.558042
2399.828685	529.950350
2401.357520	526.187413
2402.881149	525.962937
2404.409415	531.809790
2405.932477	533.704196
2407.460173	533.841958
2408.981030	532.865035
2410.506520	529.931469
2412.028449	529.626573
2413.551734	537.999301
2415.073098	538.928671
2416.592542	541.278322
2418.113341	541.266434
2419.632221	537.650350
2421.150819	540.057343
2422.667500	539.155245
2424.185535	539.793706
2425.703289	538.351049
2427.217492	527.567832
2428.731414	525.252448
2430.245056	531.032867
2431.760053	534.242657
2433.271501	531.018881
2434.784304	529.555944
2436.295193	522.820280
2437.805804	519.848252
2439.314503	524.195105
2440.826188	520.512587
2442.334330	526.589510
2443.842194	524.311189
2445.349780	523.707692
2446.853825	521.243357
2448.360856	522.937063
2449.865978	522.433566
2451.370823	519.734266
2452.873760	513.248951
2454.376422	506.685315
2455.878807	499.555944
2457.379287	495.746154
2458.881120	484.934266
2460.381049	486.735664
2461.880702	483.911888
2463.380079	484.986713
2464.877554	484.396503
2466.373127	492.374825
2467.871680	497.748252
2469.366705	504.360839
2470.863082	505.055944
2472.355933	503.040559
2473.850137	504.542657
2475.344067	507.997203
2476.834473	504.588811
2478.327857	506.165734
2479.819343	505.837063
2481.308932	508.294406
2482.798249	505.412587
2484.285671	499.120280
2485.776068	496.946853
2487.262946	497.731469
2488.751176	495.127972
2490.235890	489.606294
2491.720333	496.377622
2493.206128	500.881818
2494.690030	507.023077
2496.175284	513.459441
2497.655403	520.723776
2499.138496	526.860140
2500.619698	521.389510
2502.100631	522.210490
2503.579675	519.369231
2505.058450	512.139860
2506.536957	503.787413
2508.015196	493.420979
2509.493166	492.886713
2510.967632	489.407692
2512.445066	481.986713
2513.918997	477.390909
2515.394278	475.164336
2516.869293	478.326573
2518.340806	478.926573
2519.813669	485.025175
2521.284650	488.113986
2522.756981	492.677622
2524.224199	495.465734
2525.694382	503.030769
2527.162685	509.304895
2528.630723	508.217483
2530.098496	496.967832
2531.566004	493.711189
2533.033247	486.829371
2534.496998	481.338462
2535.962099	473.925874
2537.425323	471.238462
2538.889897	469.025874
2540.350981	467.167832
2541.813415	470.303497
2543.275586	478.996503
2544.734271	486.267832
2546.197528	492.659441
2547.655688	499.753846
2549.115197	502.096503
2550.569613	506.349650
2552.028598	503.396503
2553.485712	503.699301
2554.940955	502.278322
2556.395937	500.146853
2557.849049	497.879021
2559.303510	496.665035
2560.756102	491.680420
2562.208434	492.155245
2563.658898	493.116783
2565.112318	495.627273
2566.560656	491.499301
2568.011950	493.141958
2569.461377	489.298601
2570.907332	492.256643
2572.356242	488.669930
2573.801682	489.413287
2575.248470	484.218182
2576.693394	485.351748
2578.138060	481.890210
2579.584075	478.009091
2581.026622	478.423077
2582.470517	473.367133
2583.910947	473.143357
2585.352724	475.801399
2586.792642	480.853147
2588.233907	484.294406
2589.671711	485.806294
2591.112464	491.961538
2592.548154	491.989510
2593.986794	496.547552
2595.423576	495.963636
2596.858503	492.044755
2598.296377	489.583217
2599.729194	479.944056
2601.163358	478.728671
2602.595668	473.946154
2604.029324	474.106993
2605.461127	471.917483
2606.892676	478.368531
2608.323973	482.396503
2609.753417	484.672727
2611.182609	489.133566
2612.609951	495.272727
2614.038638	491.881119
2615.467074	490.696503
2616.892062	488.848252
2618.318397	486.473427
2619.742883	481.948252
2621.168715	480.332168
2622.591103	475.683217
2624.014837	479.132867
2625.436724	475.393007
2626.858362	475.267832
2628.278154	470.616084
2629.699292	465.999301
2631.120180	465.349650
2632.537630	471.797203
2633.958019	467.441259
2635.374971	463.916783
2636.791674	471.247552
2638.208130	472.011189
2639.624336	472.121678
2641.040295	475.278322
2642.454413	476.570629
2643.868284	478.814685
2645.280315	475.672727
2646.693691	478.018881
2648.103637	480.445455
2649.516518	478.842657
2650.925971	474.254545
2652.335178	474.506294
2653.742549	480.752448
2655.152855	479.125874
2656.561324	480.983916
2657.967958	482.671329
2659.374347	487.569930
2660.778902	490.527972
2662.184801	491.522378
2663.588867	488.955944
2664.992688	485.539860
2666.396266	485.855245
2667.798011	484.962238
2669.201100	476.793706
2670.600771	474.256643
2672.001786	471.681119
2673.399385	468.948252
2674.799914	469.320979
2676.197028	473.377622
2677.595485	474.195105
2678.992114	475.483916
2680.388501	474.288811
2681.784647	475.116783
2683.178966	476.651049
2684.574628	476.726573
2685.966880	469.541259
2687.360475	471.216084
2688.752247	464.234965
2690.145360	463.369930
2691.536650	467.672727
2692.926117	470.989510
2694.315344	471.794406
2695.704332	473.360140
2697.094662	472.969231
2698.480007	470.778322
2699.868276	466.446853
2701.254725	469.100699
2702.640935	466.476923
2704.026907	468.597902
2705.409479	466.127273
2706.793394	474.776224
2708.177071	480.493007
2709.560510	482.760140
2710.940553	482.016084
2712.321938	483.216783
2713.701507	479.551748
2715.082418	474.855944
2716.461513	467.946154
2717.838795	468.703497
2719.217418	466.620280
2720.594228	468.578322
2721.970802	470.662238
2723.347140	475.259441
2724.721666	475.169930
2726.097533	471.676224
2727.470013	470.842657
2728.845409	467.982517
2730.215845	461.325874
2731.587622	456.932867
2732.959164	453.555944
2734.328898	450.032168
2735.699973	453.476923
2737.069239	458.123077
2738.438273	457.258741
2739.805499	461.035664
2741.172493	466.417483
2742.539254	468.259441
2743.905782	471.384615
2745.270505	469.118182
2746.634997	470.922378
2747.999256	469.224476
2749.363283	468.697203
2750.727079	457.938462
2752.087501	455.872028
2753.450834	447.718881
2754.809224	438.735664
2756.170524	436.921678
2757.528453	441.257343
2758.889291	438.773427
2760.248330	437.715385
2761.604000	438.058042
2762.962578	442.560839
2764.317789	443.254545
2765.672772	446.053147
2767.025957	439.679021
2768.382049	441.283916
2769.734777	442.337762
2771.087276	445.900000
2772.439547	445.224476
2773.793157	448.677622
2775.143405	444.197203
2776.491860	441.100699
2777.843219	441.088811
2779.191219	439.977622
2780.540557	436.490210
2781.888104	436.462937
2783.235423	426.637063
2784.582516	427.218182
2785.927818	429.527972
2787.272894	430.534266
2788.617743	431.310490
2789.962367	431.513986
2791.303639	428.140559
2792.646249	431.723077
2793.988633	436.262238
2795.330793	439.220280
2796.669603	443.734965
2798.011312	448.086713
2799.349674	448.224476
2800.689373	451.802797
2802.027286	457.838462
2803.363415	462.261538
2804.699320	462.500000
2806.036563	455.853846
2807.372022	449.987413
2808.707258	449.311888
2810.040711	446.775524
2811.375502	445.326573
2812.706951	446.621678
2814.041296	447.381119
2815.370743	450.273427
2816.701527	450.381119
2818.032089	454.811189
2819.360872	456.746853
2820.690991	454.574126
2822.019332	452.180420
2823.347452	449.597203
2824.673794	447.569231
2826.001473	446.277622
2827.325818	445.513986
2828.651500	441.330070
2829.975406	437.360140
2831.299093	433.372727
2832.624115	428.799301
2833.945807	429.058042
2835.267281	432.795804
2836.588536	433.093706
2837.909572	437.371329
2839.228836	434.861538
2840.549435	438.393706
2841.868262	441.192308
2843.186871	439.693706
2844.503709	440.594406
2845.820330	443.151049
2847.136734	441.452448
2848.451368	446.155944
2849.767338	447.598601
2851.079987	441.584615
2852.393972	439.706294
2853.707739	442.512587
2855.021291	436.414685
2856.333075	437.511189
2857.643093	433.420979
2858.954446	432.958042
2860.262484	443.376224
2861.571857	445.446853
2862.881014	446.037762
2864.189956	445.326573
2865.497134	439.807692
2866.802550	435.227972
2868.109300	436.594406
2869.414287	436.465035
2870.719061	433.806993
2872.022073	435.588811
2873.327967	436.130769
2874.629005	436.704196
2875.931378	435.996503
2877.231991	429.532168
2878.533938	424.552448
2879.835672	419.983916
2881.134101	420.706993
2882.433865	420.256643
2883.731870	421.374126
2885.029664	421.002098
2886.325702	427.088811
2887.623073	433.651049
2888.918688	436.709790
2890.214092	439.866434
2891.509285	439.731469
2892.801181	437.816084
2894.095953	435.697902
2895.387428	441.130070
2896.680236	436.046853
2897.972834	431.274126
2899.262138	427.546853
2900.552774	420.937063
2901.841659	420.991608
2903.131877	415.055245
2904.418802	414.799301
2905.707061	414.496503
2906.993569	415.253846
2908.279870	415.394406
2909.565962	420.216783
2910.850306	426.767133
2912.137521	420.549650
2913.419910	427.769231
2914.703631	429.255944
2915.985606	429.275524
2917.267373	429.476923
2918.547396	426.977622
2919.830288	428.309790
2921.111435	427.949650
2922.389300	430.733566
2923.670034	429.050350
2924.947487	427.574825
2926.224734	426.748252
2927.500240	423.434965
2928.778613	427.217483
2930.052171	427.121678
2931.328597	422.652448
2932.603282	418.245455
2933.876227	421.601399
2935.150502	422.437762
2936.423038	423.460839
2937.695370	424.190210
2938.964428	424.027972
2940.236352	426.160839
2941.506538	421.695105
2942.776521	418.548951
2944.046300	417.011189
2945.314342	414.682517
2946.580649	410.248951
2947.846753	409.116783
2949.114187	413.806993
2950.379887	408.574126
2951.645384	411.649650
2952.910679	413.455944
2954.172709	415.287413
2955.436070	420.671329
2956.699228	419.684615
2957.960655	421.723077
2959.223411	422.165734
2960.484436	420.181818
2961.743729	421.676923
2963.002823	420.333566
2964.261716	416.710490
2965.520409	413.082517
2966.778902	414.342657
2968.035666	407.927972
2969.292230	405.693706
2970.547067	406.775524
2971.803232	409.194406
2973.056143	404.260140
2974.310383	403.985315
2975.564424	405.368531
2976.816739	414.506294
2978.068856	417.339161
2979.319247	420.044755
2980.572494	420.906294
2981.820964	419.469930
2983.072289	414.337762
2984.320364	412.438462
2985.568243	410.231469
2986.815924	410.161538
2988.063409	402.354545
2989.309171	400.261538
2990.554738	402.626573
2991.801632	407.595804
2993.045282	410.420979
2994.290260	414.502797
2995.531994	410.851049
2996.776580	411.573427
2998.019447	412.388112
2999.259073	416.151748
3000.501549	416.402797
3001.740786	415.907692
3002.981350	412.474825
3004.220197	407.886713
3005.458850	408.481119
3006.695787	409.403497
3007.934051	411.611189
3009.170601	410.851049
3010.406956	405.237063
3011.643118	408.448252
3012.877567	408.923776
3014.111822	409.591608
3015.345884	410.481119
3016.578234	417.308392
3017.808872	423.230070
3019.042356	422.148951
3020.274128	425.332867
3021.504190	428.516783
3022.734060	427.301399
3023.962220	426.075524
3025.191706	423.948252
3026.419484	417.469930
3027.647070	411.144056
3028.875982	408.589510
3030.100152	413.920280
3031.327165	414.433566
3032.550954	412.570629
3033.776070	409.022378
3034.999479	408.360839
3036.222698	410.491608
3037.444212	409.046154
3038.668567	411.874825
3039.888187	410.158042
3041.109133	405.313986
3042.329890	408.181119
3043.548943	412.839161
3044.769322	413.755944
3045.986484	406.873427
3047.204971	406.369930
3048.421756	404.507692
3049.638354	403.095105
3050.854763	398.100699
3052.067960	402.009091
3053.283994	401.856643
3054.496816	402.510490
3055.712475	407.476224
3056.923411	405.576224
3058.135672	407.858741
3059.347747	405.341958
3060.559635	402.709091
3061.769825	400.289510
3062.979829	397.791608
3064.189647	398.233566
3065.397770	398.966434
3066.605706	407.814685
3067.811948	409.086713
3069.019513	416.576224
3070.225384	420.188112
3071.431071	416.706294
3072.636572	416.930769
3073.840380	415.600699
3075.045512	406.134266
3076.248952	400.936364
3077.450699	397.476923
3078.652263	395.091608
3079.853642	398.466434
3081.054839	398.411189
3082.254344	401.274126
3083.453667	401.986713
3084.654313	400.988811
3085.853269	395.179021
3087.049031	396.051748
3088.247622	392.179021
3089.443019	386.338462
3090.639739	392.160839
3091.833267	389.981119
3093.029623	387.906294
3094.224293	390.372727
3095.415772	388.943357
3096.611582	390.277622
3097.802699	389.572727
3098.995138	388.709091
3100.184390	387.932168
3101.376468	396.690210
3102.566861	393.441259
3103.754069	395.272727
3104.942600	401.534266
3106.132452	397.436364
3107.319121	396.534965
3108.505610	394.827273
3109.691919	392.061538
3110.879550	394.696503
3112.064000	393.823776
3113.246769	392.225874
3114.432361	396.667133
3115.616274	399.974825
3116.798508	395.123077
3117.980563	393.109790
3119.162441	395.530070
3120.344140	393.262238
3121.524161	398.264336
3122.702506	399.267832
3123.883672	399.420979
3125.061662	400.273427
3126.239475	395.423776
3127.417111	396.577622
3128.593072	400.500000
3129.768856	396.308392
3130.945962	393.562937
3132.121393	390.995105
3133.295151	392.469231
3134.467237	388.655245
3135.640643	393.793007
3136.813874	395.139161
3137.985432	393.734965
3139.158311	393.908392
3140.328024	394.018182
3141.499056	397.724476
3142.668419	397.960140
3143.836112	395.529371
3145.006620	395.307692
3146.172469	393.206294
3147.342628	393.305594
3148.508129	391.557343
3149.673457	395.795105
3150.838611	395.483217
3152.003591	398.732168
3153.169892	394.352448
3154.331539	391.569231
3155.494506	391.074825
3156.657301	386.674825
3157.819923	383.735664
3158.980880	382.454545
3160.141664	383.069930
3161.302276	384.467832
3162.461225	383.951049
3163.620001	386.022378
3164.778606	387.291608
3165.937039	389.585315
3167.095300	385.129371
3168.251899	388.577622
3169.406837	390.488811
3170.563094	388.523077
3171.717690	389.672727
3172.872116	388.172028
3174.024882	387.389510
3175.177478	387.086713
3176.329903	385.390210
3177.482159	387.569231
3178.634244	385.332168
3179.783184	382.722378
3180.934930	379.409790
3182.085018	378.242657
3183.233450	376.871329
3184.381713	375.774126
3185.529806	378.455245
3186.677731	383.684615
3187.824001	391.777622
3188.970102	398.296503
3190.114548	403.373427
3191.258827	406.579720
3192.402938	408.680420
3193.548367	410.428671
3194.690656	407.446154
3195.832779	403.218881
3196.974734	398.041958
3198.116523	394.006294
3199.258144	392.842657
3200.396629	396.751049
3201.536432	391.226573
3202.677553	390.469231
3203.815539	387.828671
3204.951876	386.025874
3206.088047	387.057343
3207.225536	385.883916
3208.361375	387.582517
3209.498532	384.862238
3210.631076	385.776224
3211.767902	392.141958
3212.900116	392.218881
3214.033647	396.792308
3215.167014	389.558741
3216.297253	391.266434
3217.430290	389.944755
3218.560201	388.673427
3219.691428	389.651049
3220.819531	386.331469
3221.950430	383.821678
3223.079685	379.223077
3224.207297	376.618182
3225.331787	376.405594
3226.460551	370.565734
3227.586194	367.667133
3228.711675	359.610490
3229.835514	361.232867
3230.962147	362.891608
3232.084183	368.887413
3233.207535	374.093706
3234.330725	371.467832
3235.453753	371.668531
3236.575141	369.261538
3237.696368	370.667133
3238.815956	375.929371
3239.935383	376.766434
3241.053172	378.232168
3242.173754	380.611189
3243.291221	381.546853
3244.408528	379.711888
3245.525675	384.536364
3246.641186	382.983217
3247.758012	383.078322
3248.871727	381.608392
3249.988232	379.929371
3251.103103	383.386014
3252.214865	381.951049
3253.326468	379.100000
3254.439385	382.020979
3255.552144	383.947552
3256.661796	382.276923
3257.772762	380.978322
3258.883570	383.541259
3259.992747	386.087413
3261.100292	390.600000
3262.209151	392.241259
3263.317853	393.862238
3264.423452	394.370629
3265.530365	387.790210
3266.635649	388.283217
3267.742248	388.355245
3268.845746	389.517483
3269.950558	385.541958
3271.055213	386.177622
3272.156769	388.760839
3273.258170	390.431469
3274.360884	390.154545
3275.463441	389.303497
3276.562902	386.654545
3277.665147	383.008392
3278.764296	378.531469
3279.861821	382.902797
3280.959190	383.300000
3282.059342	384.604895
3283.156400	380.520979
3284.253303	384.597902
3285.350051	386.950350
3286.442241	383.244056
3287.538679	381.627972
3288.633495	382.303497
3289.728157	383.901399
3290.821197	380.923077
3291.914083	385.572028
3293.005348	387.734266
3294.097926	388.132867
3295.188883	389.116084
3296.278221	384.902098
3297.367406	386.261538
3298.457904	384.262238
3299.545317	383.100699
3300.632578	381.879021
3301.721151	382.147552
3302.809571	386.538462
3303.893444	384.539161
3304.981559	384.202098
3306.066593	382.483217
3307.150010	376.706294
3308.234740	373.812587
3309.317855	370.082517
3310.402281	367.060140
3311.483629	365.329371
3312.566289	369.909790
3313.647335	370.481119
3314.728230	380.662937
3315.807511	383.844755
3316.886643	385.771329
3317.967085	384.275524
3319.044454	383.591608
3320.123133	373.864336
3321.200202	373.194406
3322.277120	371.796503
3323.352427	370.809790
3324.427585	372.013287
3325.504054	376.608392
3326.577453	380.910490
3327.650703	392.511888
3328.725263	392.384615
3329.798215	395.694406
3330.869558	391.583916
3331.942213	388.287413
3333.011800	382.730769
3334.082698	378.938462
3335.151989	379.155944
3336.222591	375.986713
3337.291586	371.946853
3338.358975	374.530769
3339.424759	375.477622
3340.494769	385.631469
3341.561716	388.344056
3342.625601	387.854545
3343.692254	386.424476
3344.757302	384.630769
3345.820747	379.760140
3346.884046	377.668531
3347.947198	378.323776
3349.010204	376.044056
3350.073064	370.904895
3351.134322	371.424476
3352.192523	372.527273
3353.254945	374.761538
3354.314310	375.245455
3355.373530	376.018881
3356.434060	375.439161
3357.490080	376.039860
3358.548865	378.822378
3359.603142	383.317483
3360.660182	385.205594
3361.715625	386.755245
3362.772376	386.748252
3363.827529	387.259441
3364.881086	383.028671
3365.933045	380.548951
3366.987766	379.300699
3368.039438	382.243357
3369.090967	382.204895
3370.143804	381.697203
3371.193594	383.809091
3372.244693	384.420979
3373.292746	385.916084
3374.343559	385.867133
3375.391326	387.941958
3376.438951	382.221678
3377.486433	378.669930
3378.532323	383.926573
3379.579521	384.867832
3380.623677	390.278322
3381.670591	387.523776
3382.715913	387.509091
3383.758194	391.106993
3384.800335	390.205594
3385.843783	390.248951
3386.887091	388.585315
3387.928808	387.122378
3388.970384	384.825874
3390.011820	386.870629
3391.051666	384.754545
3392.089924	383.616783
3393.129491	382.880420
3394.168916	382.344755
3395.206754	387.506993
3396.243005	387.560140
3397.279117	384.242657
3398.316536	386.634266
3399.350922	386.803497
3400.386615	387.197203
3401.422169	386.944056
3402.454692	383.507692
3403.489968	378.530070
3404.522213	376.822378
3405.554320	376.288811
3406.584843	377.846853
3407.616673	377.105594
3408.648365	374.316084
3409.677030	374.869930
3410.705556	377.748951
3411.735390	379.811888
3412.765085	380.468531
3413.791755	383.418182
3414.819732	384.948951
3415.844684	386.827972
3416.872386	384.437762
3417.897065	383.706993
3418.923050	387.854545
3419.947455	383.485315
3420.971724	385.383217
3421.994414	389.337063
3423.016968	387.658042
3424.040828	387.330769
3425.061668	389.281818
3426.082373	391.579620
3427.104383	391.632268
3428.123375	388.211788
3429.142232	380.090210
3430.162394	366.039560
3431.179540	344.831868
