-118.059454	7.151648
-115.389854	9.390110
-112.723189	10.756643
-110.057276	11.448452
-107.394295	11.662737
-104.729885	11.596703
-102.068405	11.447552
-99.405496	13.348951
-96.747693	12.552448
-94.088461	13.472727
-91.429977	13.593007
-88.774417	12.990909
-86.117429	15.725874
-83.465539	14.228671
-80.812218	11.337762
-78.161818	13.528671
-75.509988	11.992308
-72.863249	14.351049
-70.215081	15.266434
-67.567655	17.071329
-64.923143	16.193007
-62.277203	17.030070
-59.636344	15.243357
-56.994056	15.607692
-54.354677	18.246154
-51.713868	17.908392
-49.073800	17.989510
-46.438804	20.317483
-43.802380	20.634965
-41.168858	25.736364
-38.533908	25.441259
-35.904023	25.925874
-33.270546	24.439161
-30.642131	25.947552
-28.014450	24.597902
-25.385340	21.274825
-22.761287	-2.449650
-20.133645	-66.827972
-17.511056	-224.760140
-14.889199	-171.046853
-12.268072	365.913287
-9.647675	1128.902797
-7.030167	1740.705594
-4.411230	2158.125874
-1.795178	2370.459441
0.820145	2386.028671
3.434741	2201.967832
6.046454	1823.515385
8.659596	1262.874825
11.267704	581.215385
13.879394	-77.579021
16.486053	-334.346853
19.094140	-170.818182
21.701503	6.029371
24.303841	29.055944
26.909757	30.388811
29.510651	25.651748
32.112973	25.104196
34.710278	19.648252
37.311158	18.530769
39.907023	15.590909
42.504317	16.197203
45.100891	16.245455
47.692456	20.036364
50.285449	20.211888
52.875581	21.711888
55.467141	25.849650
58.055841	30.499301
60.645968	29.392308
63.231096	31.123077
65.817652	27.239860
68.403494	28.148252
70.986482	25.604196
73.570896	27.817483
76.148182	26.105594
78.729034	27.434965
81.307037	25.986713
83.884330	25.741259
86.463049	25.383916
89.036786	26.023077
91.611951	23.639161
94.184272	27.751748
96.755885	30.207692
99.324658	31.774126
101.894858	34.260839
104.462220	40.744755
107.031007	43.889510
109.596958	50.772727
112.160074	55.486713
114.726746	65.709790
117.284197	75.020979
119.847333	98.493007
122.405509	138.269930
124.967240	217.533566
127.524014	348.951748
130.082215	559.496503
132.635462	856.248951
135.188012	1234.239161
137.744112	1671.750350
140.295264	2135.616084
142.845719	2594.074126
145.395476	3014.051748
147.942414	3349.599301
150.488657	3593.983217
153.036325	3743.841259
155.583297	3818.009091
158.125334	3831.753147
160.666677	3823.285315
163.207327	3796.425175
165.749403	3772.679720
168.288667	3757.717483
170.825123	3743.361538
173.360887	3737.485315
175.898077	3732.927972
178.434576	3720.184615
180.968269	3707.906993
183.499158	3699.491608
186.029360	3693.104895
188.560986	3687.688112
191.089811	3684.421678
193.615837	3678.843357
196.141177	3678.137762
198.667942	3681.950350
201.191911	3684.014685
203.715195	3680.672028
206.237794	3680.412587
208.757600	3678.257343
211.276723	3671.848951
213.795163	3666.776224
216.315027	3671.017483
218.827890	3675.180420
221.344284	3671.341958
223.859996	3669.466434
226.370818	3674.652448
228.883065	3687.102797
231.392530	3698.003497
233.901316	3697.474126
236.409423	3706.004895
238.918955	3710.862238
241.423606	3718.200000
243.927581	3729.348252
246.432980	3743.464336
248.933504	3751.672028
251.437552	3755.469231
253.934628	3759.469231
256.435228	3773.190909
258.933056	3777.315385
261.430211	3773.072028
263.926693	3766.930070
266.418312	3759.049650
268.913451	3748.406294
271.405823	3752.031469
273.897525	3750.736364
276.386464	3751.516783
278.876827	3755.897203
281.364427	3762.111189
283.849268	3770.958741
286.337624	3786.232168
288.819040	3789.418182
291.303970	3794.783217
293.784055	3792.990909
296.267652	3783.924476
298.746406	3779.506294
301.226584	3785.505594
303.704009	3782.276923
306.180771	3779.146154
308.656870	3775.751049
311.130220	3782.069930
313.602908	3789.568531
316.074935	3799.110490
318.546301	3804.767832
321.014922	3808.766434
323.482885	3807.602098
325.952269	3808.439860
328.416831	3804.729371
330.884897	3810.012587
333.348143	3809.845455
335.810731	3798.420979
338.272663	3790.937762
340.733938	3795.458042
343.192479	3791.148252
345.652442	3781.354545
348.109672	3770.742657
350.566248	3759.018182
353.022170	3737.621678
355.475362	3712.675524
357.929977	3680.686014
360.379790	3657.494406
362.833099	3634.937063
365.281610	3602.229371
367.729469	3580.269231
370.178751	3559.776224
372.623239	3533.990909
375.069149	3511.789510
377.514409	3495.911888
379.956951	3479.470629
382.398845	3451.664336
384.840092	3432.568531
387.278623	3413.139161
389.718576	3388.438462
392.155815	3369.025175
394.590342	3346.938462
397.028357	3324.922378
399.461595	3305.342657
401.896254	3284.384615
404.326141	3273.200000
406.759513	3263.604895
409.188115	3259.432168
411.616075	3255.527273
414.045457	3255.254545
416.470073	3252.540559
418.896111	3239.821678
421.321508	3235.132168
423.746265	3228.875524
426.166264	3218.082517
428.587684	3214.134266
431.006407	3209.018881
433.426551	3212.598601
435.844000	3212.401399
438.262869	3210.003497
440.679045	3210.330769
443.090473	3209.638462
445.505379	3205.981818
447.917594	3203.793706
450.329175	3199.676224
452.740122	3196.531469
455.148383	3188.357343
457.556011	3198.740559
459.963007	3202.675524
462.369372	3205.648951
464.773054	3202.706993
467.176106	3197.560140
469.578528	3197.377622
471.980320	3200.760140
474.379435	3194.991608
476.779969	3196.893007
479.179874	3183.262937
481.575056	3177.430070
483.973705	3161.360839
486.367634	3155.717483
488.760937	3140.313986
491.153614	3128.724476
493.545666	3126.551049
495.939136	3123.154545
498.327894	3121.977622
500.713986	3127.304895
503.101498	3121.431469
505.488387	3126.496503
507.872612	3115.304196
510.258255	3112.351049
512.641237	3096.504196
515.021558	3089.553147
517.403298	3076.690210
519.782379	3068.520979
522.162879	3074.351748
524.540721	3078.874126
526.915908	3078.338462
529.290477	3080.925175
531.666464	3080.187413
534.039799	3076.063636
536.414551	3060.671329
538.784618	3044.246154
541.154069	3020.821678
543.524938	3000.209790
545.891127	2970.000699
548.258734	2951.204196
550.623695	2937.751748
552.988043	2916.910490
555.351778	2894.276224
557.716931	2881.011189
560.077412	2867.095105
562.439311	2843.855245
564.798569	2822.162238
567.155190	2800.244755
569.515255	2775.366434
571.868629	2749.829371
574.225448	2731.165734
576.579632	2715.644056
578.933208	2690.296503
581.286175	2661.541259
583.636510	2638.456643
585.988263	2615.848252
588.333339	2602.158042
590.683879	2583.001399
593.027745	2568.294406
595.377073	2550.569231
597.721752	2529.613986
600.063807	2519.597902
602.407279	2520.724476
604.748128	2517.038462
607.088375	2505.811189
609.426001	2500.407692
611.767062	2492.244056
614.103485	2484.746853
616.441325	2483.025874
618.776548	2476.061538
621.109155	2473.089510
623.443178	2469.888112
625.774587	2469.699301
628.105398	2470.374126
630.435612	2475.360140
632.765227	2477.438462
635.090220	2478.824476
637.420653	2487.441259
639.746466	2488.004895
642.069671	2497.439860
644.394293	2502.505594
646.716309	2506.826573
649.037731	2518.230070
651.356551	2527.647552
653.676786	2533.404895
655.996428	2538.551748
658.313469	2542.742657
660.629918	2549.058042
662.943769	2555.925175
665.259036	2568.372028
667.571706	2573.842657
669.885791	2591.383916
672.195276	2605.593706
674.506177	2622.439860
676.814485	2638.115385
679.122205	2653.081818
681.431339	2665.720280
683.735881	2690.383916
686.039837	2704.937762
688.343207	2724.081119
690.647991	2739.706993
692.948189	2752.356643
695.249801	2756.741958
697.550829	2768.076224
699.847274	2778.052448
702.145135	2788.232867
704.442412	2791.261538
706.739106	2799.304895
709.031224	2812.630070
711.326753	2837.125874
713.617708	2856.741958
715.910078	2883.597203
718.199873	2904.385315
720.489087	2926.163636
722.777722	2945.090909
725.063784	2964.328671
727.351261	2977.312587
729.636166	2986.751049
731.920494	2992.832168
734.202253	2997.234965
736.485426	3012.610490
738.768022	3029.499301
741.046062	3042.164336
743.325517	3067.750350
745.604395	3087.167832
747.882699	3116.436364
750.156453	3139.492308
752.431620	3159.358042
754.706214	3175.450350
756.978249	3189.497203
759.251697	3202.983916
761.522587	3213.674126
763.790921	3230.783217
766.060668	3242.344755
768.327861	3253.741259
770.594483	3273.972727
772.860535	3287.729371
775.124036	3306.693007
777.388950	3315.211189
779.653294	3333.320280
781.913109	3345.087413
784.174336	3355.919580
786.434996	3370.323077
788.693110	3384.237762
790.948679	3394.647552
793.207639	3401.725874
795.460100	3410.976923
797.717927	3422.550350
799.971236	3428.499301
802.222005	3434.820979
804.474186	3437.716783
806.723828	3443.221678
808.974883	3443.794406
811.221426	3446.127273
813.469381	3461.864336
815.714802	3473.380420
817.961634	3487.100000
820.207905	3503.944755
822.449671	3515.730769
824.694821	3543.564336
826.933498	3558.016783
829.175557	3568.993706
831.413118	3580.182517
833.652091	3587.951748
835.888537	3599.165734
838.126394	3612.449650
840.361726	3632.081119
842.594535	3656.953846
844.828755	3685.862937
847.060452	3711.926573
849.291595	3738.154545
851.522183	3778.551748
853.752217	3805.762937
855.981697	3841.066434
858.206695	3880.923776
860.435068	3919.597902
862.658961	3955.906294
864.884266	3992.296503
867.105095	4032.650350
869.329296	4084.887413
871.549024	4132.504895
873.770162	4179.987413
875.990750	4236.060140
878.208829	4293.334266
880.428317	4339.169930
882.643339	4386.372727
884.857814	4437.823077
887.071740	4474.046154
889.285120	4493.759441
891.497952	4511.137762
893.710238	4534.102098
895.920021	4551.736364
898.129259	4557.248951
900.337952	4554.781119
902.544146	4553.434266
904.751749	4533.476923
906.956854	4497.741958
909.161416	4461.672727
911.363483	4424.967832
913.566959	4364.381119
915.767941	4304.267133
917.968381	4246.673427
920.170230	4183.237063
922.365688	4118.711888
924.564505	4046.253147
926.758883	3976.005594
928.956619	3911.882517
931.149919	3842.459441
933.344628	3786.097902
935.536851	3735.421678
937.728535	3697.516084
939.919682	3660.774825
942.108346	3641.750350
944.296474	3621.065035
946.482121	3603.033566
948.671120	3594.095804
950.855696	3586.578322
953.039737	3585.606993
955.227128	3582.237063
957.406215	3581.319580
959.588653	3586.239860
961.770557	3587.193007
963.949986	3594.466434
966.126943	3591.018881
968.305308	3595.218881
970.485080	3589.749650
972.658503	3577.372028
974.835272	3557.754545
977.007634	3541.027273
979.181404	3528.102797
981.350770	3503.193706
983.523480	3486.534965
985.693725	3455.953846
987.863441	3428.716084
990.032628	3407.613287
992.197418	3373.796503
994.365549	3354.209091
996.529286	3325.653147
998.694429	3292.561538
1000.857113	3258.773427
1003.019272	3236.213287
1005.178974	3218.341259
1007.338151	3190.295105
1009.498735	3167.989510
1011.656865	3130.897203
1013.814470	3100.464336
1015.971552	3067.690909
1018.128110	3030.164336
1020.280289	3005.239161
1022.433875	2979.493706
1024.586939	2955.179021
1026.737554	2940.204895
1028.889576	2931.425874
1031.037224	2926.212587
1033.188204	2913.318881
1035.334813	2903.775524
1037.480903	2885.065035
1039.626475	2862.859441
1041.773452	2843.190210
1043.914140	2825.782517
1046.058158	2800.080420
1048.199735	2787.069231
1050.340796	2775.444755
1052.483261	2769.127972
1054.619447	2759.663636
1056.758958	2750.276923
1058.894115	2745.369231
1061.032596	2740.069930
1063.166723	2727.897902
1065.300337	2713.302098
1067.435356	2700.820280
1069.566025	2695.393007
1071.698099	2682.288112
1073.827744	2672.481818
1075.956877	2663.560839
1078.085498	2651.086713
1080.213608	2634.888112
1082.339292	2622.749650
1084.464466	2617.379021
1086.591044	2599.049650
1088.713284	2577.685315
1090.836929	2558.104895
1092.956239	2540.834266
1095.080779	2534.119580
1097.199073	2518.472727
1099.318772	2494.970629
1101.436052	2476.046853
1103.552826	2458.261538
1105.669093	2436.155245
1107.782944	2422.725175
1109.898200	2406.140559
1112.009132	2387.930070
1114.123377	2369.483916
1116.233301	2357.004196
1118.344629	2344.716783
1120.455452	2334.759441
1122.561959	2320.062238
1124.671776	2295.967832
1126.777278	2282.576224
1128.884183	2265.240559
1130.984873	2244.421678
1133.090775	2231.516783
1135.192368	2217.581119
1137.295364	2209.710490
1139.397859	2192.548951
1141.494147	2182.523776
1143.595643	2168.796503
1145.692835	2155.926573
1147.789530	2139.677622
1149.885726	2124.994406
1151.981425	2117.820280
1154.076625	2107.906294
1156.169429	2095.527273
1158.263636	2091.865734
1160.351651	2086.958042
1162.444864	2082.849650
1164.531889	2068.360839
1166.622213	2063.069930
1168.708250	2056.574825
1170.797584	2046.621678
1172.880737	2035.534965
1174.965292	2023.750350
1177.051249	2006.816783
1179.132924	1997.410490
1181.216001	1987.727273
1183.296692	1987.148951
1185.376891	1982.265035
1187.456599	1982.338462
1189.535816	1979.251748
1191.612651	1986.791608
1193.687105	1985.947552
1195.764850	1985.983916
1197.838326	1982.367133
1199.913202	1978.130769
1201.983811	1969.414685
1204.055821	1969.327972
1206.125456	1970.820280
1208.196491	1969.779720
1210.267038	1967.144755
1212.333324	1970.876923
1214.401011	1966.566434
1216.466326	1972.362937
1218.533041	1978.138462
1220.595500	1983.813287
1222.661244	1975.651748
1224.722734	1982.776224
1226.785625	1984.626573
1228.846148	1991.077622
1230.906187	1993.936364
1232.965744	1990.323077
1235.022935	1984.695105
1237.079645	1981.948951
1239.133991	1978.416783
1241.191619	1980.849650
1243.246884	1986.544056
1245.297908	1982.574825
1247.350332	1984.364336
1249.402276	1997.076923
1251.451862	2002.623077
1253.500969	2010.130070
1255.549598	2016.273427
1257.597748	2019.890210
1259.645419	2021.537063
1261.688860	2022.639161
1263.735577	2025.646853
1265.779940	2031.181119
1267.823827	2032.872727
1269.865362	2033.704895
1271.904548	2040.246154
1273.947007	2041.623077
1275.985243	2037.043357
1278.024878	2038.145455
1280.064038	2043.386014
1282.098979	2047.267133
1284.135319	2049.713986
1286.169315	2049.554545
1288.204708	2056.489510
1290.235889	2064.692308
1292.268467	2069.855245
1294.300574	2078.995804
1296.330340	2083.262937
1298.361504	2086.389510
1300.388460	2086.246154
1302.416814	2089.781818
1304.440963	2092.388112
1306.468378	2093.023077
1308.491590	2092.065035
1310.516200	2088.739161
1312.538476	2097.021678
1314.562149	2100.287413
1316.583489	2106.730070
1318.604361	2105.754545
1320.624766	2105.474825
1322.640978	2107.523077
1324.658587	2111.647552
1326.673868	2109.855944
1328.692408	2109.097902
1330.706759	2113.404895
1332.718784	2115.141958
1334.734066	2116.467832
1336.745163	2118.940559
1338.757657	2121.321678
1340.765968	2123.255245
1342.777534	2119.896503
1344.783062	2121.700000
1346.791845	2119.281119
1348.796450	2122.016084
1350.804309	2118.562937
1352.811706	2113.552448
1354.813072	2113.040559
1356.815834	2107.820280
1358.818137	2096.202797
1360.819980	2086.970629
1362.821363	2085.186014
1364.820433	2076.711189
1366.819044	2075.748252
1368.817197	2074.893706
1370.814891	2079.063636
1372.808423	2082.298601
1374.803351	2086.337762
1376.797821	2083.005594
1378.791835	2079.687413
1380.783542	2081.277622
1382.774794	2074.234266
1384.763740	2070.720979
1386.754081	2061.681818
1388.743967	2054.629371
1390.731549	2058.230070
1392.718678	2055.853147
1394.703505	2059.836364
1396.689727	2057.632867
1398.673649	2058.866434
1400.657118	2053.688811
1402.640134	2053.037762
1404.620853	2054.441259
1406.602966	2049.486014
1408.582783	2050.938462
1410.562148	2044.569231
1412.537375	2046.757343
1414.515840	2056.490909
1416.492012	2058.990210
1418.467735	2067.842657
1420.443008	2073.369231
1422.415990	2075.818182
1424.388524	2073.143357
1426.360610	2071.297203
1428.332249	2066.961538
1430.299759	2063.450350
1432.272343	2062.983217
1434.237122	2058.486713
1436.206972	2061.700699
1438.172699	2065.742657
1440.139818	2060.423077
1442.104654	2061.439860
1444.065370	2058.384615
1446.031154	2056.904196
1447.990983	2056.480420
1449.952206	2059.050350
1451.914821	2061.993706
1453.873321	2064.740559
1455.831378	2061.701399
1457.788994	2060.296503
1459.746167	2057.906993
1461.701065	2061.183217
1463.657356	2057.627273
1465.611372	2052.116084
1467.564947	2049.048252
1469.516250	2051.937762
1471.468946	2055.559441
1473.419369	2056.841259
1475.369354	2048.398601
1477.318900	2045.642657
1479.266177	2033.508392
1481.211186	2029.451748
1483.157588	2028.297902
1485.103552	2032.367133
1487.049079	2030.294406
1488.992340	2032.061538
1490.935166	2033.322378
1492.875728	2031.911888
1494.817681	2035.600699
1496.757372	2030.826573
1498.696629	2025.069930
1500.635450	2028.255245
1502.572012	2026.333566
1504.509965	2029.817483
1506.445659	2034.751049
1508.380920	2037.786713
1510.313925	2039.043357
1512.246497	2047.337063
1514.178637	2048.480420
1516.110345	2044.903497
1518.039799	2042.858741
1519.970644	2033.424476
1521.901057	2032.908392
1523.827398	2034.461538
1525.755130	2035.553846
1527.680611	2033.387413
1529.605663	2034.464336
1531.530286	2031.545455
1533.454480	2037.511189
1535.376426	2040.971329
1537.299763	2040.265734
1539.220853	2040.018881
1541.139700	2043.353147
1543.059935	2048.227972
1544.977928	2051.096503
1546.895494	2060.248252
1548.810818	2069.661538
1550.727532	2065.864336
1552.640191	2070.955245
1554.556054	2076.394406
1556.469677	2084.434266
1558.381062	2079.088112
1560.293837	2082.249650
1562.202562	2084.569231
1564.112676	2089.402797
1566.022367	2088.816783
1567.931635	2084.351049
1569.838669	2088.558741
1571.743470	2088.665035
1573.649660	2081.879720
1575.553618	2081.197203
1577.457155	2080.288811
1579.360272	2077.158741
1581.261159	2074.462937
1583.163435	2074.179720
1585.063483	2067.570629
1586.964918	2063.542657
1588.862320	2059.797203
1590.759303	2056.108392
1592.655868	2046.514685
1594.553821	2041.352448
1596.445939	2039.248951
1598.341250	2037.928671
1600.236144	2040.913287
1602.128816	2037.588811
1604.021071	2037.579720
1605.911107	2037.039860
1607.800727	2032.964336
1609.689932	2021.865035
1611.578722	2019.171329
1613.465294	2018.261538
1615.353254	2007.472727
1617.237197	2004.984615
1619.122527	1999.165035
1621.007444	1999.013986
1622.890147	1998.721678
1624.774237	1994.879021
1626.654315	1993.167133
1628.535781	1989.113986
1630.415036	1984.607692
1632.295677	1975.717483
1634.170514	1978.433566
1636.050332	1984.564336
1637.926146	1985.024476
1639.801549	1974.602098
1641.678338	1965.118881
1643.549331	1967.486014
1645.423505	1967.920979
1647.293680	1972.846154
1649.167037	1964.449650
1651.038190	1961.929371
1652.907141	1959.005594
1654.777477	1950.783217
1656.643821	1934.237063
1658.511550	1934.597203
1660.377080	1925.303497
1662.243996	1912.368531
1664.106923	1908.110490
1665.971235	1903.454545
1667.833351	1902.848252
1669.695062	1907.541259
1671.558159	1901.772028
1673.419060	1905.067133
1675.277769	1906.032867
1677.136074	1903.487413
1678.995764	1898.417483
1680.849686	1902.243357
1682.706782	1899.098601
1684.563475	1894.877622
1686.416191	1888.083916
1688.272079	1884.369930
1690.123993	1884.012587
1691.975506	1883.708392
1693.826618	1884.166434
1695.677330	1883.426573
1697.527641	1877.951049
1699.375767	1871.402098
1701.225278	1868.330070
1703.069040	1858.095804
1704.917751	1854.788811
1706.760716	1844.139161
1708.606848	1841.425175
1710.449017	1842.495804
1712.294352	1840.039161
1714.133946	1844.697902
1715.974924	1849.817483
1717.817285	1852.159441
1719.655690	1847.748951
1721.495478	1846.026573
1723.333091	1839.869930
1725.170308	1829.137762
1727.005352	1823.296503
1728.841779	1820.579720
1730.676034	1811.894406
1732.509894	1800.083916
1734.343360	1794.286014
1736.172881	1799.537762
1738.005560	1799.181119
1739.834295	1802.746853
1741.666187	1803.899301
1743.494137	1804.046154
1745.321696	1795.500000
1747.148862	1793.555245
1748.975637	1800.385315
1750.802020	1797.125874
1752.624467	1792.702797
1754.450069	1788.972727
1756.271736	1790.401399
1758.094785	1793.725175
1759.915672	1791.102797
1761.736171	1789.325874
1763.558051	1791.695105
1765.374231	1791.168531
1767.193563	1796.163636
1769.008968	1807.832168
1770.827523	1808.609790
1772.642153	1807.639860
1774.456396	1814.959441
1776.270253	1816.195105
1778.083723	1814.362937
1779.895040	1810.320280
1781.707737	1812.739161
1783.520049	1806.346853
1785.328443	1797.592308
1787.138217	1791.162937
1788.944077	1794.562937
1790.753082	1799.812587
1792.558174	1794.807692
1794.364647	1804.702797
1796.170736	1812.096503
1797.972914	1810.567133
1799.778237	1806.703497
1801.579651	1802.576923
1803.382445	1806.382517
1805.181333	1797.807692
1806.981602	1793.383217
1808.781489	1794.656643
1810.579234	1800.697203
1812.376599	1804.667133
1814.173584	1805.605594
1815.970188	1813.492308
1817.764653	1818.005594
1819.560497	1807.925175
1821.350686	1806.223776
1823.145772	1802.569231
1824.935206	1802.067832
1826.727776	1802.887413
1828.518211	1811.667832
1830.306512	1814.730070
1832.097948	1816.559441
1833.883738	1809.113986
1835.670908	1811.360839
1837.455946	1809.729371
1839.244118	1802.879021
1841.028404	1793.490909
1842.810560	1790.795804
1844.594096	1790.980420
1846.375503	1791.568531
1848.158289	1793.645455
1849.937194	1795.450350
1851.717479	1794.824476
1853.495637	1796.176923
1855.275174	1794.836364
1857.052586	1799.460140
1858.827874	1789.818182
1860.604540	1781.902098
1862.379084	1783.199301
1864.155006	1781.120280
1865.925307	1787.177622
1867.698736	1785.218881
1869.470045	1785.843357
1871.240983	1782.125175
1873.013299	1780.543357
1874.780001	1779.583217
1876.549829	1781.139860
1878.315793	1778.388811
1880.084880	1769.512587
1881.850106	1771.406294
1883.614964	1774.412587
1885.381199	1771.957343
1887.143575	1770.165035
1888.905584	1768.388811
1890.667225	1766.480420
1892.428500	1761.956643
1894.189407	1753.080420
1895.949948	1751.437063
1897.708379	1753.654545
1899.466444	1751.885315
1901.222402	1750.050350
1902.979736	1752.986014
1904.736705	1753.597902
1906.491567	1753.265734
1908.244325	1747.968531
1909.996718	1745.726573
1911.750488	1742.158741
1913.502154	1744.324476
1915.251718	1741.772028
1917.002657	1744.094406
1918.753234	1747.229371
1920.499971	1752.719580
1922.248085	1756.265035
1923.994099	1755.881119
1925.741488	1757.213986
1927.486780	1752.419580
1929.229974	1746.962937
1930.974543	1737.015385
1932.717017	1728.755245
1934.459130	1733.020979
1936.200883	1733.088811
1937.942276	1732.003497
1939.681576	1734.467133
1941.420517	1742.808392
1943.159099	1745.100699
1944.895590	1746.963636
1946.631723	1748.504895
1948.369230	1745.047552
1950.102915	1750.429371
1951.837975	1754.859441
1953.570946	1755.366434
1955.303561	1765.497902
1957.035820	1763.428671
1958.767722	1767.926573
1960.497538	1770.311189
1962.225269	1775.531469
1963.954375	1775.423776
1965.683126	1773.066434
1967.409793	1768.016783
1969.136106	1763.972028
1970.863792	1766.553147
1972.585942	1766.694406
1974.311193	1762.384615
1976.032637	1760.571329
1977.757182	1753.872028
1979.479646	1759.880420
1981.198308	1756.095105
1982.920068	1760.974825
1984.638026	1755.224476
1986.357357	1755.102098
1988.072889	1760.743357
1989.793241	1767.609091
1991.509795	1766.665035
1993.222552	1765.513287
1994.938405	1762.613287
1996.652186	1761.042657
1998.365617	1753.422378
2000.076977	1753.730769
2001.789709	1750.482517
2003.498651	1753.816783
2005.210685	1750.890210
2006.917211	1763.492308
2008.626828	1777.048252
2010.334379	1784.491608
2012.041581	1783.023077
2013.746718	1784.551049
2015.451509	1784.690210
2017.157671	1788.835664
2018.860051	1782.116084
2020.563802	1777.599301
2022.265491	1776.227273
2023.966835	1776.907692
2025.667833	1776.127273
2027.366770	1781.520280
2029.067079	1781.872727
2030.763613	1777.799301
2032.461518	1780.718182
2034.157364	1782.896503
2035.856296	1783.291608
2037.549742	1787.798601
2039.244559	1782.611189
2040.939034	1778.570629
2042.629740	1776.761538
2044.323530	1776.030769
2046.013553	1771.331469
2047.704947	1773.455944
2049.394288	1768.353846
2051.084999	1762.024476
2052.771947	1761.913986
2054.458556	1757.770629
2056.146534	1752.888811
2057.830753	1751.510490
2059.516343	1743.548951
2061.201593	1740.823776
2062.884794	1737.584615
2064.569366	1731.979720
2066.248475	1730.248252
2067.932369	1729.041259
2069.610802	1723.861538
2071.292313	1721.995804
2072.970072	1726.769930
2074.647495	1726.162937
2076.326287	1727.553147
2078.003037	1731.404895
2079.677745	1726.892308
2081.353822	1729.939860
2083.027859	1730.354545
2084.701560	1725.990909
2086.374926	1729.967133
2088.046253	1726.477622
2089.717246	1726.369231
2091.387905	1731.868531
2093.058230	1737.553147
2094.728221	1739.246853
2096.396176	1742.942657
2098.063798	1743.361538
2099.729385	1745.325175
2101.396341	1750.918881
2103.061264	1755.650350
2104.725855	1760.463636
2106.388414	1765.165035
2108.052341	1767.448252
2109.714237	1768.189510
2111.375803	1773.059441
2113.037037	1772.444755
2114.696243	1766.815385
2116.355118	1762.067133
2118.013664	1766.182517
2119.671880	1770.855245
2121.326372	1771.072028
2122.983929	1775.446154
2124.641157	1774.734266
2126.294663	1777.762238
2127.949537	1783.713986
2129.600692	1779.084615
2131.254910	1776.607692
2132.905411	1772.733566
2134.557278	1769.369231
2136.203737	1772.385315
2137.854951	1777.358042
2139.502451	1775.037762
2141.151318	1777.918881
2142.798166	1777.203497
2144.444689	1771.494406
2146.090886	1765.035664
2147.733375	1772.835664
2149.378922	1774.507692
2151.020762	1775.059441
2152.665659	1781.367832
2154.306850	1780.147552
2155.947719	1776.281119
2157.588263	1774.803497
2159.226795	1770.700699
2160.866693	1765.074825
2162.502891	1756.110490
2164.140455	1742.658042
2165.777697	1729.608392
2167.412929	1732.674825
2169.047840	1729.304196
2170.682428	1727.095804
2172.316696	1729.133566
2173.947270	1727.009091
2175.580896	1723.522378
2177.210830	1726.295804
2178.842129	1725.381818
2180.471423	1723.625874
2182.100398	1725.373427
2183.729053	1725.296503
2185.357389	1723.478322
2186.983723	1723.483916
2188.609738	1721.837762
2190.233751	1722.830070
2191.859130	1721.995804
2193.482508	1723.066434
2195.107251	1723.142657
2196.728313	1720.690210
2198.349058	1714.391608
2199.971168	1711.474825
2201.591280	1712.716084
2203.209395	1714.680420
2204.827195	1715.336364
2206.444680	1717.018881
2208.061849	1712.797902
2209.678703	1709.239161
2211.295241	1708.653846
2212.909787	1709.419580
2214.522340	1712.811189
2216.136257	1708.332867
2217.748183	1702.170629
2219.361472	1705.756643
2220.972771	1704.841958
2222.582080	1704.113287
2224.192753	1711.088811
2225.801437	1715.820280
2227.409808	1719.446853
2229.016193	1721.698601
2230.623941	1728.731469
2232.229702	1732.746154
2233.835152	1735.662937
2235.438617	1733.837063
2237.043445	1729.973427
2238.646289	1730.583916
2240.247150	1722.410490
2241.849374	1716.658042
2243.449616	1713.750350
2245.051220	1713.220280
2246.649171	1716.737762
2248.248485	1721.288811
2249.845819	1724.740559
2251.442845	1732.441259
2253.041233	1735.553147
2254.635972	1735.953846
2256.228734	1737.326573
2257.822859	1743.462937
2259.418345	1743.179021
2261.010186	1747.470629
2262.601721	1746.251748
2264.194618	1743.432168
2265.782205	1741.967832
2267.374488	1739.756643
2268.961465	1731.983217
2270.551469	1735.368531
2272.136169	1732.734266
2273.725563	1720.916783
2275.309655	1719.625874
2276.895107	1722.217483
2278.478591	1729.951748
2280.065100	1732.460140
2281.647976	1727.267832
2283.230549	1720.425175
2284.812818	1717.294406
2286.391457	1704.156643
2287.973121	1692.474825
2289.551156	1687.876224
2291.132214	1681.564336
2292.709645	1665.926573
2294.285113	1665.509790
2295.863603	1665.296503
2297.438469	1664.329371
2299.013034	1661.222378
2300.587299	1659.025175
2302.161263	1661.349650
2303.734926	1655.930769
2305.308290	1649.119580
2306.878035	1649.716783
2308.447481	1652.487413
2310.019945	1653.708392
2311.587135	1646.249650
2313.157343	1654.602098
2314.723936	1653.560140
2316.291889	1647.203497
2317.857886	1650.915385
2319.423586	1646.734266
2320.988988	1647.600699
2322.552437	1644.784615
2324.117245	1650.118881
2325.678445	1651.848951
2327.242659	1650.952448
2328.801611	1648.950350
2330.363578	1654.388112
2331.923593	1660.722378
2333.483314	1660.870629
2335.041085	1662.000699
2336.598561	1669.140559
2338.155743	1666.310490
2339.710977	1666.051049
2341.265918	1668.630769
2342.820564	1668.120280
2344.374917	1670.561538
2345.928977	1670.088112
2347.482742	1677.024476
2349.034564	1685.232168
2350.584442	1680.853846
2352.137328	1678.458741
2353.684972	1672.359441
2355.235623	1667.981818
2356.782683	1660.962238
2358.331101	1658.071329
2359.879228	1654.549650
2361.423766	1647.650350
2362.969662	1654.048951
2364.513620	1650.992308
2366.058935	1657.183217
2367.600665	1655.699301
2369.143752	1649.102797
2370.684903	1650.430769
2372.225765	1646.218182
2373.766338	1646.825175
2375.306622	1653.061538
2376.846617	1656.005594
2378.383034	1652.804895
2379.922452	1643.993007
2381.458293	1643.328671
2382.995490	1639.825874
2384.529112	1642.710490
2386.065734	1635.112587
2387.600426	1633.909790
2389.133188	1638.437063
2390.665663	1637.567133
2392.196210	1645.763636
2393.729755	1651.579720
2395.258089	1647.669930
2396.787780	1646.202098
2398.317184	1634.969930
2399.846304	1634.038462
2401.375139	1635.819580
2402.898768	1643.862238
2404.427033	1644.046154
2405.950096	1642.462238
2407.477792	1640.937762
2408.998649	1647.141958
2410.524139	1651.341259
2412.046068	1649.258741
2413.569353	1648.772028
2415.090716	1649.086014
2416.610160	1647.394406
2418.130959	1648.718182
2419.649840	1657.613287
2421.168438	1662.814685
2422.685119	1655.086014
2424.203154	1642.649650
2425.720908	1642.768531
2427.235111	1644.256643
2428.749033	1652.365734
2430.262675	1655.201399
2431.777672	1651.704895
2433.289120	1652.521678
2434.801923	1658.077622
2436.312812	1656.073427
2437.823423	1658.320979
2439.332122	1647.784615
2440.843807	1632.627972
2442.351949	1622.233566
2443.859813	1623.421678
2445.367399	1618.756643
2446.871444	1622.232867
2448.378474	1611.100699
2449.883597	1603.605594
2451.388441	1605.704895
2452.891379	1604.763636
2454.394041	1606.447552
2455.896426	1600.117483
2457.396906	1597.459441
2458.898739	1591.300699
2460.398667	1594.674825
2461.898320	1600.924476
2463.397698	1599.244755
2464.895173	1596.934965
2466.390746	1596.181818
2467.889299	1596.232867
2469.384324	1593.839161
2470.880701	1594.926573
2472.373552	1595.732867
2473.867756	1585.084615
2475.361686	1585.310490
2476.852092	1582.016084
2478.345476	1586.077622
2479.836962	1586.425874
2481.326551	1585.366434
2482.815868	1584.373427
2484.303289	1587.900699
2485.793686	1588.267133
2487.280565	1588.746154
2488.768795	1589.730070
2490.253508	1590.458741
2491.737952	1581.939860
2493.223746	1575.274126
2494.707649	1575.411888
2496.192902	1578.421678
2497.673022	1580.664336
2499.156115	1581.604895
2500.637317	1584.767133
2502.118250	1591.579021
2503.597294	1597.789510
2505.076069	1595.851748
2506.554576	1591.783916
2508.032815	1591.714685
2509.510785	1586.697203
2510.985250	1582.164336
2512.462685	1578.498601
2513.936616	1575.889510
2515.411897	1573.999301
2516.886911	1562.718881
2518.358425	1563.166434
2519.831288	1561.039161
2521.302269	1559.190210
2522.774600	1561.165734
2524.241817	1563.360140
2525.712001	1569.623077
2527.180304	1572.555944
2528.648342	1571.581818
2530.116115	1574.471329
2531.583623	1575.558741
2533.050866	1581.703497
2534.514617	1580.360140
2535.979718	1587.237762
2537.442942	1589.036364
2538.907516	1594.069231
2540.368600	1597.753846
2541.831034	1595.031469
2543.293205	1594.762937
2544.751890	1586.996503
2546.215147	1589.148252
2547.673307	1586.902098
2549.132816	1578.993007
2550.587231	1586.725874
2552.046217	1590.765035
2553.503331	1596.630769
2554.958574	1596.134266
2556.413555	1592.698601
2557.866668	1594.623776
2559.321129	1601.787413
2560.773720	1599.244755
2562.226052	1592.623077
2563.676517	1592.481818
2565.129937	1582.124476
2566.578275	1573.730070
2568.029569	1577.320979
2569.478996	1575.574126
2570.924951	1572.386014
2572.373861	1568.656643
2573.819301	1572.781119
2575.266088	1581.392308
2576.711013	1584.472028
2578.155679	1577.518881
2579.601693	1581.520979
2581.044241	1578.240559
2582.488136	1573.422378
2583.928566	1567.690210
2585.370343	1574.092308
2586.810261	1571.589510
2588.251526	1567.209091
2589.689329	1567.713986
2591.130082	1570.809790
2592.565773	1569.756643
2594.004413	1566.543357
2595.441195	1566.290909
2596.876122	1568.351049
2598.313996	1564.086713
2599.746813	1566.906294
2601.180977	1567.911888
2602.613287	1578.588811
2604.046943	1576.011888
2605.478746	1576.151049
2606.910295	1581.805594
2608.341592	1581.854545
2609.771036	1578.579021
2611.200228	1577.892308
2612.627570	1573.009790
2614.056257	1571.344056
2615.484693	1568.153147
2616.909681	1562.962238
2618.336016	1555.528671
2619.760502	1556.697902
2621.186334	1547.714685
2622.608722	1547.241259
2624.032456	1548.559441
2625.454343	1540.854545
2626.875981	1537.567133
2628.295773	1538.422378
2629.716911	1537.737063
2631.137799	1537.577622
2632.555249	1533.894406
2633.975638	1525.469930
2635.392590	1516.213986
2636.809293	1516.485315
2638.225748	1513.624476
2639.641955	1511.858042
2641.057914	1515.978322
2642.472032	1516.116084
2643.885902	1512.879021
2645.297934	1513.927273
2646.711309	1518.669930
2648.121255	1518.068531
2649.534137	1521.155944
2650.943590	1526.939161
2652.352797	1522.955944
2653.760168	1526.230070
2655.170473	1521.248252
2656.578943	1514.372028
2657.985577	1521.734965
2659.391966	1520.801399
2660.796521	1515.736364
2662.202420	1516.164336
2663.606486	1512.555245
2665.010307	1514.553846
2666.413884	1519.200699
2667.815630	1526.730769
2669.218719	1519.145455
2670.618390	1515.930769
2672.019405	1514.211189
2673.417004	1517.708392
2674.817533	1524.365734
2676.214646	1524.147552
2677.613103	1520.101399
2679.009733	1522.223077
2680.406120	1513.218182
2681.802265	1513.886014
2683.196585	1517.358042
2684.592246	1514.218182
2685.984499	1513.804895
2687.378094	1518.348951
2688.769865	1521.104196
2690.162979	1520.202098
2691.554269	1516.365035
2692.943736	1516.388811
2694.332963	1510.674825
2695.721951	1520.277622
2697.112280	1517.346154
2698.497626	1523.616084
2699.885895	1526.416084
2701.272344	1518.439161
2702.658554	1515.851748
2704.044525	1515.596503
2705.427098	1505.776923
2706.811013	1498.969930
2708.194690	1497.740559
2709.578128	1498.707692
2710.958172	1495.152448
2712.339556	1507.005594
2713.719126	1508.942657
2715.100036	1509.581818
2716.479132	1508.982517
2717.856414	1504.220280
2719.235037	1498.213986
2720.611847	1500.667133
2721.988420	1499.419580
2723.364758	1498.736364
2724.739285	1498.084615
2726.115152	1492.010490
2727.487632	1488.518881
2728.863028	1495.927273
2730.233464	1490.918182
2731.605241	1491.372727
2732.976783	1494.474126
2734.346517	1490.611189
2735.717592	1491.318881
2737.086858	1493.851049
2738.455891	1495.729371
2739.823118	1489.059441
2741.190112	1482.367832
2742.556872	1481.543357
2743.923401	1481.913986
2745.288124	1489.539860
2746.652615	1485.152448
2748.016875	1486.919580
2749.380902	1479.308392
2750.744698	1477.034266
2752.105120	1479.062937
2753.468452	1472.827273
2754.826842	1471.773427
2756.188142	1463.941958
2757.546072	1457.236364
2758.906910	1455.020280
2760.265949	1445.979720
2761.621619	1441.901399
2762.980197	1430.572727
2764.335408	1425.610490
2765.690390	1419.646154
2767.043576	1417.407692
2768.399668	1423.204196
2769.752395	1427.337762
2771.104895	1437.258741
2772.457166	1439.330070
2773.810776	1439.195105
2775.161024	1443.525874
2776.509478	1444.279720
2777.860838	1441.995804
2779.208838	1440.411189
2780.558176	1438.304196
2781.905722	1433.574825
2783.253042	1427.458741
2784.600135	1428.107692
2785.945437	1429.276224
2787.290512	1427.994406
2788.635362	1425.158741
2789.979986	1426.908392
2791.321258	1433.637063
2792.663868	1433.665035
2794.006252	1433.043357
2795.348411	1433.138462
2796.687221	1431.050350
2798.028931	1433.012587
2799.367293	1433.957343
2800.706991	1435.962238
2802.044905	1438.580420
2803.381034	1441.995105
2804.716939	1448.100699
2806.054182	1449.841259
2807.389641	1448.425874
2808.724877	1445.611888
2810.058330	1444.048252
2811.393120	1447.046853
2812.724570	1443.697902
2814.058915	1448.016783
2815.388362	1446.967133
2816.719146	1450.727972
2818.049708	1449.635664
2819.378491	1448.343357
2820.708610	1446.350350
2822.036951	1437.234266
2823.365071	1433.364336
2824.691413	1430.567832
2826.019092	1429.192308
2827.343437	1430.638462
2828.669119	1427.816084
2829.993025	1429.630070
2831.316712	1434.062937
2832.641734	1432.754545
2833.963426	1432.000000
2835.284900	1427.648951
2836.606155	1423.896503
2837.927191	1422.090909
2839.246454	1415.848951
2840.567053	1403.505594
2841.885881	1399.421678
2843.204490	1396.605594
2844.521328	1396.360839
2845.837949	1392.380420
2847.154353	1391.799301
2848.468987	1382.720979
2849.784957	1387.433566
2851.097606	1383.789510
2852.411590	1380.102098
2853.725358	1381.060140
2855.038909	1371.004196
2856.350694	1369.309790
2857.660712	1378.754545
2858.972065	1378.445455
2860.280103	1377.526573
2861.589475	1380.943357
2862.898633	1378.817483
2864.207575	1374.681818
2865.514753	1376.974126
2866.820169	1380.228671
2868.126919	1378.352448
2869.431906	1380.144056
2870.736680	1378.526573
2872.039692	1383.954545
2873.345585	1385.704196
2874.646624	1381.527273
2875.948997	1380.010490
2877.249610	1382.090909
2878.551557	1381.453147
2879.853290	1371.604895
2881.151720	1376.044056
2882.451483	1382.336364
2883.749489	1375.315385
2885.047283	1370.834965
2886.343321	1365.571329
2887.640692	1361.679720
2888.936307	1356.914685
2890.231711	1356.362937
2891.526904	1353.904895
2892.818800	1353.360140
2894.113572	1352.241958
2895.405047	1341.820280
2896.697855	1342.695804
2897.990453	1334.676923
2899.279757	1331.930070
2900.570393	1329.475524
2901.859278	1331.260839
2903.149495	1332.373427
2904.436421	1338.367832
2905.724679	1343.878322
2907.011188	1353.721678
2908.297489	1355.409091
2909.583581	1352.727972
2910.867925	1346.009790
2912.155140	1338.521678
2913.437529	1331.899301
2914.721250	1327.506294
2916.003225	1325.079720
2917.284992	1327.675524
2918.565015	1327.378322
2919.847907	1332.158042
2921.129054	1331.200000
2922.406919	1341.736364
2923.687653	1336.683916
2924.965106	1331.260140
2926.242353	1326.113986
2927.517858	1319.532168
2928.796231	1314.769231
2930.069790	1307.421678
2931.346216	1306.318182
2932.620901	1310.093706
2933.893845	1311.299301
2935.168121	1317.615385
2936.440657	1317.600000
2937.712988	1324.512587
2938.982047	1318.757343
2940.253971	1315.190909
2941.524157	1308.408392
2942.794139	1297.096503
2944.063918	1291.087413
2945.331961	1282.510490
2946.598267	1275.040559
2947.864372	1277.232168
2949.131806	1279.312587
2950.397506	1282.532867
2951.663003	1288.700000
2952.928298	1292.205594
2954.190328	1296.169930
2955.453688	1296.553147
2956.716847	1298.996503
2957.978274	1295.660140
2959.241030	1295.281818
2960.502054	1291.853147
2961.761348	1293.639161
2963.020442	1297.881818
2964.279335	1298.716783
2965.538028	1293.993706
2966.796521	1297.468531
2968.053285	1292.569930
2969.309849	1288.773427
2970.564686	1284.280420
2971.820851	1287.209091
2973.073762	1280.264336
2974.328002	1276.705594
2975.582043	1273.505594
2976.834358	1274.061538
2978.086474	1275.293706
2979.336866	1278.413986
2980.590113	1279.662238
2981.838583	1282.020979
2983.089908	1284.128671
2984.337983	1276.531469
2985.585862	1282.357343
2986.833543	1278.922378
2988.081027	1277.118182
2989.326790	1276.992308
2990.572357	1272.851748
2991.819251	1272.025175
2993.062901	1271.915385
2994.307879	1270.794406
2995.549613	1264.181818
2996.794199	1260.994406
2998.037066	1262.967133
2999.276692	1254.263636
3000.519168	1250.605594
3001.758404	1244.438462
3002.998968	1248.960839
3004.237816	1257.592308
3005.476468	1256.688811
3006.713406	1261.268531
3007.951670	1260.273427
3009.188219	1263.069231
3010.424575	1269.850350
3011.660737	1275.579021
3012.895185	1276.955944
3014.129441	1271.786014
3015.363503	1264.437063
3016.595853	1267.537762
3017.826491	1265.106993
3019.059975	1268.172028
3020.291747	1262.604196
3021.521809	1266.350350
3022.751679	1266.946853
3023.979839	1270.093706
3025.209325	1270.695804
3026.437102	1268.974825
3027.664688	1272.173427
3028.893601	1267.154545
3030.117771	1268.686014
3031.344784	1272.057343
3032.568573	1268.510490
3033.793689	1271.757343
3035.017098	1268.602797
3036.240317	1268.590909
3037.461831	1263.690909
3038.686186	1256.240559
3039.905806	1250.827972
3041.126752	1247.602098
3042.347509	1249.939161
3043.566562	1250.934965
3044.786940	1253.293007
3046.004102	1252.425175
3047.222590	1251.946154
3048.439375	1254.509790
3049.655973	1251.878322
3050.872382	1249.553147
3052.085579	1247.469930
3053.301613	1241.059441
3054.514435	1236.504895
3055.730094	1234.006294
3056.941030	1235.486014
3058.153291	1231.827273
3059.365366	1225.481818
3060.577253	1227.214685
3061.787444	1224.735664
3062.997448	1224.213287
3064.207266	1224.286014
3065.415388	1226.897902
3066.623325	1227.807692
3067.829566	1224.567133
3069.037132	1225.158741
3070.243003	1228.006294
3071.448690	1225.569231
3072.654191	1221.631469
3073.857999	1223.430769
3075.063131	1219.720280
3076.266570	1212.051748
3077.468318	1212.401399
3078.669881	1209.375524
3079.871261	1212.565035
3081.072457	1206.081818
3082.271963	1197.914685
3083.471286	1196.496503
3084.671932	1200.883916
3085.870888	1199.468531
3087.066650	1197.955944
3088.265241	1195.095804
3089.460638	1189.290909
3090.657358	1190.625175
3091.850886	1190.959441
3093.047242	1189.606294
3094.241912	1196.738462
3095.433391	1190.408392
3096.629201	1188.981818
3097.820318	1192.380420
3099.012757	1192.911888
3100.202009	1189.193007
3101.394086	1185.977622
3102.584480	1180.619580
3103.771688	1175.675524
3104.960219	1173.625175
3106.150071	1172.575524
3107.336740	1174.177622
3108.523228	1182.566434
3109.709538	1179.902098
3110.897169	1181.966434
3112.081618	1183.391608
3113.264388	1181.534266
3114.449980	1180.673427
3115.633893	1174.975524
3116.816127	1168.044056
3117.998182	1161.111888
3119.180059	1152.863636
3120.361758	1151.000699
3121.541780	1145.780420
3122.720125	1148.131469
3123.901290	1147.026573
3125.079280	1154.311189
3126.257094	1157.791608
3127.434730	1158.739161
3128.610691	1159.060140
3129.786475	1156.519580
3130.963581	1150.672727
3132.139012	1145.057343
3133.312770	1139.018182
3134.484855	1138.533566
3135.658262	1136.648252
3136.831492	1142.056643
3138.003051	1147.462937
3139.175930	1148.467832
3140.345642	1140.779720
3141.516675	1140.206993
3142.686038	1139.066434
3143.853730	1136.731469
3145.024238	1128.598601
3146.190088	1126.252448
3147.360246	1130.987413
3148.525748	1135.068531
3149.691075	1140.009091
3150.856229	1141.293706
3152.021210	1136.236364
3153.187510	1130.437762
3154.349158	1124.504196
3155.512125	1124.839161
3156.674920	1124.554545
3157.837542	1121.891608
3158.998499	1119.937762
3160.159283	1114.759441
3161.319895	1115.081818
3162.478843	1108.626573
3163.637620	1101.663636
3164.796225	1088.900000
3165.954657	1084.365035
3167.112919	1087.792308
3168.269518	1094.313287
3169.424456	1097.144056
3170.580713	1109.876923
3171.735309	1112.978322
3172.889735	1116.594406
3174.042501	1109.406294
3175.195096	1111.469930
3176.347522	1105.781119
3177.499778	1102.135664
3178.651863	1095.844755
3179.800803	1097.181119
3180.952549	1096.683217
3182.102637	1099.286014
3183.251069	1095.870629
3184.399331	1108.235664
3185.547425	1103.665734
3186.695350	1103.384615
3187.841619	1103.945455
3188.987720	1112.251049
3190.132167	1111.164336
3191.276446	1113.415385
3192.420557	1111.597902
3193.565985	1110.820280
3194.708275	1108.298601
3195.850398	1110.265035
3196.992353	1103.858741
3198.134141	1102.089510
3199.275762	1093.643357
3200.414248	1090.421678
3201.554051	1084.671329
3202.695172	1082.874825
3203.833158	1076.767133
3204.969495	1070.763636
3206.105666	1071.767832
3207.243154	1076.362937
3208.378994	1075.483217
3209.516151	1080.716084
3210.648695	1071.507692
3211.785521	1072.397902
3212.917735	1074.595804
3214.051266	1073.634266
3215.184633	1071.517483
3216.314872	1072.026573
3217.447909	1066.112587
3218.577820	1061.990210
3219.709047	1063.946853
3220.837150	1065.321678
3221.968049	1055.468531
3223.097304	1052.446853
3224.224916	1047.363636
3225.349405	1051.634266
3226.478170	1050.718182
3227.603813	1050.672028
3228.729294	1057.943357
3229.853133	1055.986014
3230.979766	1056.095105
3232.101802	1058.661538
3233.225154	1052.727273
3234.348344	1050.706294
3235.471372	1040.223776
3236.592760	1036.713287
3237.713986	1038.272028
3238.833575	1040.687413
3239.953002	1042.949650
3241.070791	1047.580420
3242.191372	1059.325175
3243.308840	1059.651748
3244.426147	1065.867832
3245.543294	1066.407692
3246.658805	1062.976923
3247.775630	1066.695804
3248.889346	1064.821678
3250.005851	1064.341958
3251.120722	1061.491608
3252.232484	1064.316783
3253.344086	1063.760140
3254.457004	1060.897203
3255.569762	1059.741259
3256.679414	1056.539161
3257.790381	1053.698601
3258.901189	1047.579021
3260.010365	1045.761538
3261.117911	1052.283916
3262.226770	1053.372028
3263.335472	1052.427273
3264.441071	1053.179720
3265.547984	1056.134965
3266.653268	1055.086014
3267.759866	1054.629371
3268.863364	1051.418182
3269.968177	1049.281119
3271.072832	1045.874126
3272.174388	1039.767832
3273.275788	1038.371329
3274.378502	1039.615385
3275.481060	1031.350350
3276.580521	1025.328671
3277.682766	1025.635664
3278.781915	1022.320280
3279.879440	1021.517483
3280.976809	1020.935664
3282.076960	1019.207692
3283.174019	1017.546853
3284.270922	1023.733566
3285.367670	1026.968531
3286.459860	1026.982517
3287.556298	1025.608392
3288.651114	1019.653147
3289.745776	1016.986713
3290.838816	1017.455245
3291.931701	1010.150350
3293.022967	1002.481119
3294.115544	998.614685
3295.206502	992.037063
3296.295840	991.447552
3297.385025	997.678322
3298.475523	995.186014
3299.562936	991.904895
3300.650196	992.079021
3301.738769	989.255944
3302.827190	986.895804
3303.911063	984.425874
3304.999178	981.456643
3306.084211	981.600000
3307.167629	987.090909
3308.252359	986.222378
3309.335473	994.243357
3310.419900	998.148252
3311.501248	999.423077
3312.583908	1001.725874
3313.664954	1000.425175
3314.745849	998.716084
3315.825130	993.592308
3316.904261	996.289510
3317.984704	998.288112
3319.062072	999.337762
3320.140752	998.139860
3321.217820	996.847552
3322.294739	996.003497
3323.370046	994.672028
3324.445204	995.095804
3325.521673	994.237063
3326.595072	993.448252
3327.668322	995.730769
3328.742882	998.645455
3329.815834	1001.257343
3330.887177	996.897203
3331.959831	992.848951
3333.029419	988.158042
3334.100317	987.031469
3335.169608	975.500000
3336.240210	970.679021
3337.309205	967.069930
3338.376594	965.784615
3339.442378	966.339161
3340.512388	966.365734
3341.579335	967.538462
3342.643220	962.183916
3343.709873	959.497902
3344.774921	958.294406
3345.838366	956.853147
3346.901665	956.991608
3347.964817	949.890210
3349.027823	947.202098
3350.090683	954.959441
3351.151941	955.585315
3352.210142	959.776224
3353.272563	956.994406
3354.331929	957.658741
3355.391149	952.520280
3356.451679	949.132867
3357.507699	948.775524
3358.566483	944.480420
3359.620760	943.303497
3360.677801	939.672028
3361.733243	934.488112
3362.789995	945.197203
3363.845148	937.703497
3364.898704	938.293706
3365.950664	935.757343
3367.005385	936.769930
3368.057057	938.243357
3369.108586	942.582517
3370.161423	950.684615
3371.211213	953.668531
3372.262312	952.643357
3373.310365	952.586014
3374.361177	954.778322
3375.408945	958.651049
3376.456570	953.741958
3377.504052	953.462238
3378.549942	950.769930
3379.597140	950.690909
3380.641296	955.040559
3381.688210	954.112587
3382.733532	950.141958
3383.775813	941.001399
3384.817954	932.542657
3385.861402	923.004196
3386.904709	920.793007
3387.946427	919.309091
3388.988003	920.100699
3390.029438	921.172727
3391.069285	925.479021
3392.107543	931.034965
3393.147109	940.432867
3394.186535	944.595804
3395.224373	945.818182
3396.260624	950.223077
3397.296736	953.054545
3398.334155	948.465035
3399.368541	948.605594
3400.404234	946.100699
3401.439788	937.052448
3402.472311	934.546154
3403.507587	930.386014
3404.539832	929.890909
3405.571939	930.441958
3406.602462	927.303497
3407.634292	929.699301
3408.665984	936.234266
3409.694648	939.936364
3410.723175	944.072727
3411.753008	946.855245
3412.782704	943.109790
3413.809374	940.398601
3414.837351	945.109091
3415.862303	938.518182
3416.890005	938.547552
3417.914684	930.348951
3418.940669	925.875524
3419.965074	926.199301
3420.989343	926.704196
3422.012033	924.352448
3423.034587	923.973427
3424.058447	921.590909
3425.079287	911.127972
3426.099991	904.952248
3427.122002	900.573102
3428.140994	899.036164
3429.159850	901.387063
3430.180013	908.671429
3431.197159	921.934890
