-118.059454	-0.712088
-115.389854	3.241758
-112.723189	6.115385
-110.057276	8.062637
-107.394295	9.237363
-104.729885	9.793407
-102.068405	9.884615
-99.405496	9.294406
-96.747693	10.697203
-94.088461	10.474825
-91.429977	7.835664
-88.774417	6.667133
-86.117429	5.155944
-83.465539	6.003497
-80.812218	4.518182
-78.161818	6.541958
-75.509988	6.816084
-72.863249	10.072727
-70.215081	11.191608
-67.567655	13.476923
-64.923143	15.377622
-62.277203	13.290210
-59.636344	9.642657
-56.994056	7.664336
-54.354677	5.002098
-51.713868	4.051049
-49.073800	3.462937
-46.438804	4.680420
-43.802380	5.577622
-41.168858	8.266434
-38.533908	7.204895
-35.904023	13.018182
-33.270546	15.462937
-30.642131	15.877622
-28.014450	13.865734
-25.385340	9.002797
-22.761287	-7.105594
-20.133645	-48.580420
-17.511056	-136.576224
-14.889199	-118.104196
-12.268072	179.253846
-9.647675	633.960140
-7.030167	1001.878322
-4.411230	1257.814685
-1.795178	1393.672028
0.820145	1412.159441
3.434741	1309.545455
6.046454	1090.574825
8.659596	763.538462
11.267704	360.801399
13.879394	-28.916783
16.486053	-198.090210
19.094140	-115.096503
21.701503	-4.619580
24.303841	6.527972
26.909757	6.858741
29.510651	6.545455
32.112973	7.279720
34.710278	5.447552
37.311158	6.909091
39.907023	7.594406
42.504317	7.458741
45.100891	10.235664
47.692456	12.318182
50.285449	10.681818
52.875581	10.167832
55.467141	8.386014
58.055841	12.321678
60.645968	14.122378
63.231096	14.367133
65.817652	15.648951
68.403494	18.195804
70.986482	18.224476
73.570896	17.028671
76.148182	17.535664
78.729034	17.467832
81.307037	14.358042
83.884330	14.454545
86.463049	8.818182
89.036786	11.923776
91.611951	11.882517
94.184272	10.827972
96.755885	14.366434
99.324658	16.983217
101.894858	20.755944
104.462220	24.585315
107.031007	25.063636
109.596958	28.281818
112.160074	30.396503
114.726746	33.518182
117.284197	39.737762
119.847333	58.016084
122.405509	83.125874
124.967240	132.783916
127.524014	222.976224
130.082215	363.267832
132.635462	554.386014
135.188012	793.229371
137.744112	1069.616084
140.295264	1367.604196
142.845719	1662.325175
145.395476	1928.948951
147.942414	2148.300699
150.488657	2307.675524
153.036325	2401.523776
155.583297	2451.489510
158.125334	2468.155944
160.666677	2466.065035
163.207327	2444.337762
165.749403	2422.753846
168.288667	2408.290909
170.825123	2402.888112
173.360887	2395.462937
175.898077	2388.681119
178.434576	2383.070629
180.968269	2376.874126
183.499158	2371.547552
186.029360	2372.480420
188.560986	2378.502797
191.089811	2377.177622
193.615837	2372.057343
196.141177	2369.944056
198.667942	2371.799301
201.191911	2369.815385
203.715195	2365.630769
206.237794	2363.161538
208.757600	2361.406993
211.276723	2358.241958
213.795163	2356.046853
216.315027	2358.348252
218.827890	2363.574126
221.344284	2358.298601
223.859996	2359.939161
226.370818	2368.330769
228.883065	2377.574825
231.392530	2380.882517
233.901316	2386.234266
236.409423	2391.683916
238.918955	2396.837063
241.423606	2404.809790
243.927581	2413.567133
246.432980	2419.866434
248.933504	2422.055245
251.437552	2419.625874
253.934628	2419.231469
256.435228	2431.492308
258.933056	2433.669930
261.430211	2433.400000
263.926693	2430.198601
266.418312	2431.074126
268.913451	2431.700699
271.405823	2432.916084
273.897525	2435.386713
276.386464	2428.139860
278.876827	2420.790909
281.364427	2414.237762
283.849268	2407.905594
286.337624	2411.106993
288.819040	2412.813986
291.303970	2423.538462
293.784055	2423.695804
296.267652	2430.835664
298.746406	2438.063636
301.226584	2439.146853
303.704009	2442.188112
306.180771	2438.576224
308.656870	2430.660140
311.130220	2429.073427
313.602908	2426.923776
316.074935	2434.330769
318.546301	2435.332867
321.014922	2443.015385
323.482885	2443.286713
325.952269	2453.261538
328.416831	2458.555944
330.884897	2461.358042
333.348143	2467.225874
335.810731	2462.355944
338.272663	2453.849650
340.733938	2454.258741
343.192479	2447.037762
345.652442	2437.516783
348.109672	2420.257343
350.566248	2406.052448
353.022170	2393.336364
355.475362	2384.046853
357.929977	2373.194406
360.379790	2360.481818
362.833099	2350.930070
365.281610	2332.384615
367.729469	2315.090210
370.178751	2302.361538
372.623239	2286.641259
375.069149	2271.427273
377.514409	2260.655245
379.956951	2245.788811
382.398845	2236.038462
384.840092	2230.637762
387.278623	2224.126573
389.718576	2213.868531
392.155815	2206.767133
394.590342	2192.859441
397.028357	2184.744755
399.461595	2173.271329
401.896254	2158.090909
404.326141	2147.056643
406.759513	2136.103497
409.188115	2127.988112
411.616075	2121.855245
414.045457	2123.082517
416.470073	2120.886014
418.896111	2120.632168
421.321508	2120.005594
423.746265	2125.399301
426.166264	2129.473427
428.587684	2128.283916
431.006407	2127.149650
433.426551	2134.379720
435.844000	2136.489510
438.262869	2134.632867
440.679045	2134.797902
443.090473	2134.466434
445.505379	2129.859441
447.917594	2131.478322
450.329175	2131.884615
452.740122	2130.811888
455.148383	2125.397902
457.556011	2127.646154
459.963007	2126.269930
462.369372	2129.611888
464.773054	2124.454545
467.176106	2120.840559
469.578528	2123.400000
471.980320	2121.838462
474.379435	2120.583217
476.779969	2121.766434
479.179874	2118.900000
481.575056	2114.795804
483.973705	2109.202098
486.367634	2103.441958
488.760937	2097.489510
491.153614	2090.816084
493.545666	2085.834965
495.939136	2081.627273
498.327894	2076.100699
500.713986	2071.266434
503.101498	2066.731469
505.488387	2064.441958
507.872612	2057.674825
510.258255	2055.555944
512.641237	2051.845455
515.021558	2054.924476
517.403298	2056.141259
519.782379	2064.416783
522.162879	2065.330769
524.540721	2066.081818
526.915908	2067.643357
529.290477	2066.120280
531.666464	2060.222378
534.039799	2052.418182
536.414551	2038.020280
538.784618	2030.569930
541.154069	2021.593007
543.524938	2015.156643
545.891127	2000.886713
548.258734	1997.041259
550.623695	1988.444056
552.988043	1981.782517
555.351778	1969.428671
557.716931	1958.296503
560.077412	1940.858741
562.439311	1925.192308
564.798569	1915.252448
567.155190	1906.946154
569.515255	1890.340559
571.868629	1877.681818
574.225448	1857.781119
576.579632	1843.472028
578.933208	1830.833566
581.286175	1809.548951
583.636510	1793.350350
585.988263	1781.844755
588.333339	1769.414685
590.683879	1764.865035
593.027745	1762.300699
595.377073	1757.017483
597.721752	1753.055245
600.063807	1750.660839
602.407279	1743.905594
604.748128	1740.267832
607.088375	1731.237762
609.426001	1722.589510
611.767062	1717.284615
614.103485	1713.597203
616.441325	1714.294406
618.776548	1715.604895
621.109155	1711.868531
623.443178	1706.483916
625.774587	1706.581818
628.105398	1705.518881
630.435612	1706.130769
632.765227	1707.895105
635.090220	1705.917483
637.420653	1703.826573
639.746466	1702.507692
642.069671	1705.632168
644.394293	1711.506294
646.716309	1717.248951
649.037731	1720.162238
651.356551	1723.739161
653.676786	1727.483916
655.996428	1733.225175
658.313469	1741.560140
660.629918	1749.794406
662.943769	1757.668531
665.259036	1763.090909
667.571706	1766.121678
669.885791	1776.834965
672.195276	1789.211189
674.506177	1795.746154
676.814485	1804.123776
679.122205	1813.341259
681.431339	1819.870629
683.735881	1833.204196
686.039837	1843.759441
688.343207	1854.000699
690.647991	1863.594406
692.948189	1868.935664
695.249801	1875.197203
697.550829	1888.962238
699.847274	1896.176224
702.145135	1903.895804
704.442412	1910.043357
706.739106	1914.093706
709.031224	1924.247552
711.326753	1934.716084
713.617708	1943.865734
715.910078	1955.550350
718.199873	1965.897902
720.489087	1973.629371
722.777722	1986.397203
725.063784	1997.884615
727.351261	2003.906993
729.636166	2012.469930
731.920494	2018.521678
734.202253	2023.097203
736.485426	2030.741259
738.768022	2038.525874
741.046062	2047.952448
743.325517	2060.523077
745.604395	2071.663636
747.882699	2082.853147
750.156453	2091.446154
752.431620	2101.540559
754.706214	2111.886713
756.978249	2126.749650
759.251697	2139.930769
761.522587	2152.827972
763.790921	2167.634965
766.060668	2178.065035
768.327861	2188.605594
770.594483	2202.520280
772.860535	2208.534965
775.124036	2214.416084
777.388950	2213.986713
779.653294	2219.155245
781.913109	2222.466434
784.174336	2226.440559
786.434996	2224.927273
788.693110	2238.037762
790.948679	2250.003497
793.207639	2250.510490
795.460100	2267.800699
797.717927	2282.493706
799.971236	2288.569231
802.222005	2297.969231
804.474186	2304.640559
806.723828	2306.836364
808.974883	2307.776224
811.221426	2307.142657
813.469381	2303.448951
815.714802	2309.251748
817.961634	2313.069930
820.207905	2317.195804
822.449671	2329.935664
824.694821	2339.509790
826.933498	2348.031469
829.175557	2359.603497
831.413118	2366.145455
833.652091	2373.927972
835.888537	2379.113287
838.126394	2387.190909
840.361726	2397.688811
842.594535	2410.283916
844.828755	2423.494406
847.060452	2443.986713
849.291595	2463.219580
851.522183	2479.009091
853.752217	2503.676923
855.981697	2529.187413
858.206695	2553.956643
860.435068	2579.731469
862.658961	2595.247552
864.884266	2626.155245
867.105095	2649.530070
869.329296	2674.135664
871.549024	2707.078322
873.770162	2742.596503
875.990750	2776.743357
878.208829	2807.684615
880.428317	2840.946154
882.643339	2869.009790
884.857814	2890.441259
887.071740	2901.298601
889.285120	2905.559441
891.497952	2914.483916
893.710238	2917.016783
895.920021	2921.341259
898.129259	2930.511888
900.337952	2934.661538
902.544146	2939.706993
904.751749	2939.081119
906.956854	2925.448252
909.161416	2912.106294
911.363483	2890.211189
913.566959	2857.320280
915.767941	2815.432168
917.968381	2774.858741
920.170230	2732.211189
922.365688	2688.560140
924.564505	2647.995105
926.758883	2610.683217
928.956619	2566.769231
931.149919	2530.098601
933.344628	2497.997203
935.536851	2476.837762
937.728535	2455.016783
939.919682	2432.581119
942.108346	2411.532168
944.296474	2396.114685
946.482121	2385.391608
948.671120	2377.369231
950.855696	2367.993706
953.039737	2363.751049
955.227128	2363.564336
957.406215	2370.155944
959.588653	2378.798601
961.770557	2392.397902
963.949986	2399.383217
966.126943	2402.640559
968.305308	2404.742657
970.485080	2401.477622
972.658503	2398.256643
974.835272	2388.974126
977.007634	2377.599301
979.181404	2370.974825
981.350770	2367.788112
983.523480	2354.883916
985.693725	2342.845455
987.863441	2325.049650
990.032628	2299.778322
992.197418	2274.286713
994.365549	2255.011888
996.529286	2236.253846
998.694429	2224.940559
1000.857113	2206.128671
1003.019272	2189.644056
1005.178974	2179.510490
1007.338151	2165.479720
1009.498735	2149.590210
1011.656865	2128.909790
1013.814470	2104.553846
1015.971552	2081.992308
1018.128110	2063.302797
1020.280289	2053.162937
1022.433875	2045.550350
1024.586939	2047.370629
1026.737554	2038.908392
1028.889576	2031.370629
1031.037224	2031.600699
1033.188204	2028.025874
1035.334813	2015.951049
1037.480903	1999.016084
1039.626475	1980.709790
1041.773452	1958.299301
1043.914140	1943.836364
1046.058158	1934.034266
1048.199735	1926.645455
1050.340796	1925.390210
1052.483261	1918.044056
1054.619447	1911.503497
1056.758958	1914.438462
1058.894115	1913.399301
1061.032596	1902.239161
1063.166723	1889.309790
1065.300337	1883.134266
1067.435356	1874.776923
1069.566025	1871.556643
1071.698099	1861.491608
1073.827744	1857.353846
1075.956877	1851.164336
1078.085498	1842.480420
1080.213608	1839.837762
1082.339292	1837.791608
1084.464466	1828.734266
1086.591044	1816.062937
1088.713284	1800.034965
1090.836929	1792.637063
1092.956239	1778.472727
1095.080779	1764.396503
1097.199073	1752.951049
1099.318772	1751.890909
1101.436052	1745.223077
1103.552826	1735.295804
1105.669093	1729.227972
1107.782944	1723.191608
1109.898200	1716.342657
1112.009132	1701.813287
1114.123377	1688.456643
1116.233301	1677.516783
1118.344629	1670.564336
1120.455452	1663.757343
1122.561959	1662.641259
1124.671776	1659.931469
1126.777278	1647.883916
1128.884183	1632.904196
1130.984873	1617.449650
1133.090775	1611.861538
1135.192368	1601.826573
1137.295364	1585.637063
1139.397859	1578.173427
1141.494147	1572.764336
1143.595643	1567.136364
1145.692835	1563.953846
1147.789530	1565.983217
1149.885726	1560.501399
1151.981425	1554.220979
1154.076625	1547.930769
1156.169429	1546.670629
1158.263636	1552.279021
1160.351651	1541.579720
1162.444864	1534.287413
1164.531889	1530.264336
1166.622213	1523.647552
1168.708250	1518.246154
1170.797584	1515.929371
1172.880737	1517.589510
1174.965292	1514.837762
1177.051249	1512.044056
1179.132924	1512.485315
1181.216001	1516.962937
1183.296692	1517.958042
1185.376891	1508.639161
1187.456599	1501.059441
1189.535816	1491.731469
1191.612651	1485.693706
1193.687105	1476.834266
1195.764850	1469.759441
1197.838326	1472.174825
1199.913202	1471.571329
1201.983811	1472.253147
1204.055821	1479.874825
1206.125456	1483.665734
1208.196491	1487.629371
1210.267038	1489.274825
1212.333324	1489.600699
1214.401011	1490.627273
1216.466326	1492.533566
1218.533041	1488.950350
1220.595500	1492.225175
1222.661244	1493.616783
1224.722734	1495.694406
1226.785625	1495.063636
1228.846148	1496.383916
1230.906187	1494.601399
1232.965744	1498.481119
1235.022935	1497.106294
1237.079645	1501.604196
1239.133991	1499.580420
1241.191619	1500.211189
1243.246884	1505.440559
1245.297908	1513.513287
1247.350332	1512.903497
1249.402276	1515.983916
1251.451862	1517.783916
1253.500969	1523.858741
1255.549598	1528.612587
1257.597748	1532.590909
1259.645419	1527.224476
1261.688860	1531.500699
1263.735577	1524.497902
1265.779940	1527.132168
1267.823827	1525.813287
1269.865362	1532.559441
1271.904548	1526.658042
1273.947007	1531.301399
1275.985243	1536.698601
1278.024878	1544.751748
1280.064038	1548.540559
1282.098979	1549.260140
1284.135319	1552.787413
1286.169315	1557.945455
1288.204708	1562.644755
1290.235889	1568.250350
1292.268467	1564.240559
1294.300574	1569.498601
1296.330340	1564.527972
1298.361504	1568.401399
1300.388460	1566.504196
1302.416814	1568.826573
1304.440963	1566.876224
1306.468378	1568.574825
1308.491590	1570.870629
1310.516200	1572.896503
1312.538476	1583.290210
1314.562149	1586.562238
1316.583489	1589.780420
1318.604361	1596.524476
1320.624766	1602.279021
1322.640978	1609.724476
1324.658587	1612.654545
1326.673868	1616.961538
1328.692408	1618.244056
1330.706759	1619.021678
1332.718784	1612.724476
1334.734066	1612.492308
1336.745163	1611.384615
1338.757657	1606.041259
1340.765968	1603.635664
1342.777534	1600.885315
1344.783062	1595.246154
1346.791845	1589.441259
1348.796450	1585.286014
1350.804309	1583.360140
1352.811706	1577.115385
1354.813072	1579.141958
1356.815834	1579.551748
1358.818137	1582.295804
1360.819980	1579.483916
1362.821363	1579.474825
1364.820433	1583.106993
1366.819044	1586.365035
1368.817197	1580.559441
1370.814891	1580.409790
1372.808423	1580.424476
1374.803351	1580.104196
1376.797821	1579.653846
1378.791835	1583.509790
1380.783542	1580.849650
1382.774794	1576.042657
1384.763740	1571.235664
1386.754081	1568.633566
1388.743967	1566.003497
1390.731549	1561.727273
1392.718678	1555.339161
1394.703505	1554.235664
1396.689727	1551.360839
1398.673649	1551.840559
1400.657118	1554.472727
1402.640134	1554.864336
1404.620853	1553.396503
1406.602966	1551.916084
1408.582783	1551.025175
1410.562148	1550.896503
1412.537375	1546.358741
1414.515840	1550.838462
1416.492012	1554.856643
1418.467735	1562.811888
1420.443008	1570.701399
1422.415990	1577.639161
1424.388524	1577.558042
1426.360610	1577.967832
1428.332249	1576.653147
1430.299759	1576.884615
1432.272343	1571.232168
1434.237122	1569.034266
1436.206972	1559.909790
1438.172699	1559.071329
1440.139818	1557.923077
1442.104654	1561.406294
1444.065370	1561.968531
1446.031154	1557.951049
1447.990983	1557.831469
1449.952206	1562.646154
1451.914821	1568.468531
1453.873321	1573.315385
1455.831378	1573.969930
1457.788994	1577.906993
1459.746167	1573.574126
1461.701065	1569.520280
1463.657356	1567.349650
1465.611372	1562.228671
1467.564947	1554.665035
1469.516250	1555.109790
1471.468946	1555.937063
1473.419369	1548.852448
1475.369354	1544.791608
1477.318900	1542.730769
1479.266177	1542.240559
1481.211186	1544.541259
1483.157588	1541.597902
1485.103552	1539.345455
1487.049079	1542.009091
1488.992340	1548.145455
1490.935166	1549.446154
1492.875728	1556.978322
1494.817681	1559.200000
1496.757372	1556.490909
1498.696629	1560.315385
1500.635450	1554.325175
1502.572012	1551.713287
1504.509965	1550.192308
1506.445659	1544.799301
1508.380920	1543.328671
1510.313925	1547.424476
1512.246497	1549.151748
1514.178637	1547.546154
1516.110345	1548.833566
1518.039799	1554.785315
1519.970644	1557.136364
1521.901057	1561.590909
1523.827398	1557.292308
1525.755130	1558.278322
1527.680611	1556.099301
1529.605663	1555.311189
1531.530286	1556.981119
1533.454480	1560.581818
1535.376426	1565.632168
1537.299763	1570.447552
1539.220853	1572.172028
1541.139700	1577.465734
1543.059935	1577.830070
1544.977928	1576.928671
1546.895494	1579.788811
1548.810818	1580.945455
1550.727532	1577.969231
1552.640191	1577.688112
1554.556054	1584.703497
1556.469677	1588.445455
1558.381062	1591.354545
1560.293837	1589.857343
1562.202562	1589.779021
1564.112676	1589.202098
1566.022367	1585.543357
1567.931635	1581.009091
1569.838669	1585.831469
1571.743470	1582.767133
1573.649660	1576.140559
1575.553618	1574.959441
1577.457155	1581.084615
1579.360272	1573.382517
1581.261159	1567.827972
1583.163435	1567.811189
1585.063483	1565.872028
1586.964918	1565.569231
1588.862320	1566.102098
1590.759303	1563.225874
1592.655868	1566.534266
1594.553821	1561.092308
1596.445939	1562.993007
1598.341250	1562.792308
1600.236144	1561.817483
1602.128816	1557.027972
1604.021071	1550.305594
1605.911107	1541.330070
1607.800727	1529.665035
1609.689932	1521.790909
1611.578722	1515.495105
1613.465294	1509.581818
1615.353254	1507.083916
1617.237197	1501.385315
1619.122527	1505.966434
1621.007444	1506.724476
1622.890147	1507.286713
1624.774237	1505.253846
1626.654315	1496.465734
1628.535781	1495.509091
1630.415036	1491.960839
1632.295677	1486.576224
1634.170514	1485.544056
1636.050332	1481.688112
1637.926146	1484.108392
1639.801549	1485.824476
1641.678338	1495.630070
1643.549331	1501.344056
1645.423505	1503.709091
1647.293680	1498.397902
1649.167037	1497.333566
1651.038190	1497.211189
1652.907141	1488.268531
1654.777477	1473.273427
1656.643821	1457.746154
1658.511550	1445.144755
1660.377080	1442.046154
1662.243996	1436.630769
1664.106923	1439.758741
1665.971235	1440.487413
1667.833351	1434.724476
1669.695062	1429.878322
1671.558159	1434.371329
1673.419060	1432.234965
1675.277769	1429.931469
1677.136074	1425.883916
1678.995764	1423.979720
1680.849686	1428.962937
1682.706782	1434.188112
1684.563475	1432.151748
1686.416191	1427.736364
1688.272079	1421.296503
1690.123993	1418.183916
1691.975506	1419.327273
1693.826618	1417.112587
1695.677330	1406.972028
1697.527641	1400.437063
1699.375767	1396.368531
1701.225278	1393.425874
1703.069040	1393.083217
1704.917751	1392.997203
1706.760716	1390.297203
1708.606848	1382.219580
1710.449017	1387.672028
1712.294352	1391.142657
1714.133946	1388.302098
1715.974924	1387.882517
1717.817285	1387.393706
1719.655690	1385.318182
1721.495478	1386.853846
1723.333091	1384.409091
1725.170308	1381.612587
1727.005352	1375.970629
1728.841779	1369.488811
1730.676034	1354.731469
1732.509894	1348.360140
1734.343360	1335.814685
1736.172881	1333.200699
1738.005560	1335.933566
1739.834295	1334.830769
1741.666187	1337.232867
1743.494137	1346.346853
1745.321696	1345.016084
1747.148862	1339.465734
1748.975637	1341.298601
1750.802020	1339.641259
1752.624467	1335.242657
1754.450069	1338.976224
1756.271736	1337.849650
1758.094785	1341.869231
1759.915672	1341.967133
1761.736171	1334.063636
1763.558051	1334.342657
1765.374231	1340.537762
1767.193563	1332.909790
1769.008968	1331.847552
1770.827523	1341.481119
1772.642153	1338.900000
1774.456396	1342.993007
1776.270253	1351.893007
1778.083723	1354.709091
1779.895040	1354.392308
1781.707737	1356.146853
1783.520049	1347.304196
1785.328443	1352.081818
1787.138217	1358.720979
1788.944077	1354.893007
1790.753082	1353.440559
1792.558174	1348.519580
1794.364647	1342.741958
1796.170736	1342.187413
1797.972914	1338.051748
1799.778237	1333.287413
1801.579651	1329.586014
1803.382445	1330.768531
1805.181333	1328.692308
1806.981602	1334.524476
1808.781489	1340.588811
1810.579234	1346.133566
1812.376599	1343.951049
1814.173584	1344.180420
1815.970188	1342.052448
1817.764653	1346.824476
1819.560497	1348.406294
1821.350686	1349.381119
1823.145772	1350.425874
1824.935206	1352.727273
1826.727776	1351.277622
1828.518211	1349.409790
1830.306512	1351.286014
1832.097948	1348.058741
1833.883738	1347.197203
1835.670908	1341.546853
1837.455946	1337.830070
1839.244118	1343.111888
1841.028404	1343.240559
1842.810560	1341.663636
1844.594096	1339.161538
1846.375503	1337.370629
1848.158289	1331.312587
1849.937194	1330.112587
1851.717479	1330.283916
1853.495637	1332.513287
1855.275174	1334.633566
1857.052586	1331.695804
1858.827874	1334.463636
1860.604540	1335.952448
1862.379084	1339.376224
1864.155006	1339.708392
1865.925307	1339.146853
1867.698736	1341.294406
1869.470045	1343.182517
1871.240983	1344.150350
1873.013299	1344.917483
1874.780001	1346.743357
1876.549829	1340.592308
1878.315793	1339.120280
1880.084880	1335.711888
1881.850106	1330.900699
1883.614964	1327.395105
1885.381199	1323.702098
1887.143575	1320.090909
1888.905584	1318.972028
1890.667225	1316.352448
1892.428500	1316.555944
1894.189407	1314.348951
1895.949948	1316.174126
1897.708379	1314.568531
1899.466444	1319.306294
1901.222402	1322.340559
1902.979736	1321.896503
1904.736705	1318.993007
1906.491567	1317.534965
1908.244325	1309.832168
1909.996718	1305.665035
1911.750488	1306.295804
1913.502154	1307.109091
1915.251718	1303.225175
1917.002657	1308.952448
1918.753234	1309.922378
1920.499971	1316.195105
1922.248085	1317.820280
1923.994099	1318.867133
1925.741488	1316.356643
1927.486780	1316.224476
1929.229974	1306.506294
1930.974543	1299.658042
1932.717017	1292.529371
1934.459130	1287.312587
1936.200883	1283.916783
1937.942276	1287.329371
1939.681576	1283.042657
1941.420517	1285.975524
1943.159099	1293.125175
1944.895590	1305.110490
1946.631723	1314.341958
1948.369230	1319.762937
1950.102915	1313.451049
1951.837975	1314.054545
1953.570946	1314.436364
1955.303561	1317.435664
1957.035820	1313.202797
1958.767722	1310.958741
1960.497538	1307.381119
1962.225269	1311.039860
1963.954375	1313.374126
1965.683126	1316.549650
1967.409793	1312.970629
1969.136106	1308.809091
1970.863792	1306.993007
1972.585942	1311.853846
1974.311193	1316.849650
1976.032637	1316.318881
1977.757182	1319.444056
1979.479646	1325.295804
1981.198308	1326.946154
1982.920068	1327.983217
1984.638026	1321.518182
1986.357357	1314.300000
1988.072889	1305.904895
1989.793241	1308.885315
1991.509795	1308.972028
1993.222552	1308.133566
1994.938405	1312.097203
1996.652186	1317.963636
1998.365617	1329.383217
2000.076977	1335.914685
2001.789709	1336.472727
2003.498651	1339.901399
2005.210685	1341.189510
2006.917211	1342.253147
2008.626828	1342.655944
2010.334379	1345.017483
2012.041581	1337.032168
2013.746718	1332.902098
2015.451509	1335.376224
2017.157671	1334.802797
2018.860051	1337.522378
2020.563802	1337.974126
2022.265491	1334.504895
2023.966835	1337.545455
2025.667833	1337.200000
2027.366770	1338.122378
2029.067079	1338.858042
2030.763613	1336.695804
2032.461518	1330.539161
2034.157364	1335.222378
2035.856296	1337.624476
2037.549742	1337.320979
2039.244559	1337.692308
2040.939034	1333.662238
2042.629740	1332.274825
2044.323530	1331.352448
2046.013553	1324.846853
2047.704947	1321.165035
2049.394288	1317.393007
2051.084999	1311.015385
2052.771947	1306.494406
2054.458556	1304.318881
2056.146534	1300.729371
2057.830753	1293.293007
2059.516343	1287.362238
2061.201593	1284.877622
2062.884794	1287.933566
2064.569366	1287.153147
2066.248475	1283.390909
2067.932369	1284.139161
2069.610802	1285.307692
2071.292313	1289.102797
2072.970072	1290.868531
2074.647495	1290.846154
2076.326287	1292.748252
2078.003037	1292.660140
2079.677745	1295.816783
2081.353822	1291.660140
2083.027859	1292.605594
2084.701560	1289.281818
2086.374926	1289.453147
2088.046253	1292.030070
2089.717246	1290.663636
2091.387905	1289.948252
2093.058230	1291.300000
2094.728221	1290.050350
2096.396176	1292.276923
2098.063798	1296.149650
2099.729385	1300.752448
2101.396341	1300.870629
2103.061264	1309.593007
2104.725855	1310.107692
2106.388414	1316.897203
2108.052341	1318.713287
2109.714237	1318.512587
2111.375803	1321.632168
2113.037037	1326.239860
2114.696243	1321.960839
2116.355118	1324.281119
2118.013664	1327.723077
2119.671880	1337.401399
2121.326372	1338.129371
2122.983929	1340.690909
2124.641157	1334.072028
2126.294663	1334.125874
2127.949537	1335.244755
2129.600692	1334.990210
2131.254910	1336.293007
2132.905411	1331.338462
2134.557278	1326.551748
2136.203737	1325.572028
2137.854951	1322.248252
2139.502451	1320.377622
2141.151318	1312.941259
2142.798166	1311.917483
2144.444689	1307.560839
2146.090886	1309.368531
2147.733375	1312.520979
2149.378922	1312.209091
2151.020762	1314.312587
2152.665659	1312.404196
2154.306850	1316.939161
2155.947719	1320.373427
2157.588263	1318.513986
2159.226795	1317.506294
2160.866693	1317.330769
2162.502891	1320.113986
2164.140455	1319.974825
2165.777697	1320.090210
2167.412929	1316.231469
2169.047840	1314.009790
2170.682428	1311.148951
2172.316696	1301.442657
2173.947270	1301.192308
2175.580896	1297.181119
2177.210830	1291.762238
2178.842129	1289.086014
2180.471423	1290.195804
2182.100398	1287.908392
2183.729053	1289.541958
2185.357389	1290.413287
2186.983723	1293.479720
2188.609738	1292.672028
2190.233751	1292.534266
2191.859130	1287.705594
2193.482508	1290.502797
2195.107251	1288.024476
2196.728313	1286.839860
2198.349058	1285.264336
2199.971168	1285.703497
2201.591280	1282.103497
2203.209395	1284.268531
2204.827195	1287.731469
2206.444680	1288.981818
2208.061849	1291.429371
2209.678703	1291.855245
2211.295241	1294.337063
2212.909787	1295.339161
2214.522340	1295.496503
2216.136257	1294.306993
2217.748183	1289.028671
2219.361472	1288.977622
2220.972771	1285.090210
2222.582080	1284.048252
2224.192753	1285.034965
2225.801437	1281.658042
2227.409808	1285.927972
2229.016193	1286.840559
2230.623941	1290.306993
2232.229702	1292.516084
2233.835152	1293.806294
2235.438617	1295.283217
2237.043445	1290.901399
2238.646289	1293.980420
2240.247150	1292.047552
2241.849374	1290.213986
2243.449616	1289.032168
2245.051220	1285.140559
2246.649171	1288.352448
2248.248485	1289.846853
2249.845819	1288.783916
2251.442845	1290.444056
2253.041233	1291.064336
2254.635972	1292.558042
2256.228734	1294.584615
2257.822859	1299.574825
2259.418345	1294.916084
2261.010186	1293.082517
2262.601721	1292.604196
2264.194618	1292.313287
2265.782205	1295.408392
2267.374488	1298.098601
2268.961465	1300.035664
2270.551469	1299.485315
2272.136169	1299.217483
2273.725563	1300.402098
2275.309655	1297.520979
2276.895107	1287.638462
2278.478591	1280.174825
2280.065100	1274.382517
2281.647976	1268.858741
2283.230549	1266.318881
2284.812818	1265.627972
2286.391457	1269.523077
2287.973121	1269.541958
2289.551156	1264.685315
2291.132214	1264.825874
2292.709645	1265.463636
2294.285113	1262.352448
2295.863603	1255.311189
2297.438469	1253.474126
2299.013034	1245.512587
2300.587299	1237.179021
2302.161263	1231.401399
2303.734926	1226.905594
2305.308290	1223.858741
2306.878035	1218.138462
2308.447481	1216.406993
2310.019945	1221.520979
2311.587135	1221.355245
2313.157343	1226.112587
2314.723936	1225.881119
2316.291889	1227.571329
2317.857886	1230.953147
2319.423586	1235.396503
2320.988988	1242.439860
2322.552437	1247.462937
2324.117245	1251.034266
2325.678445	1255.142657
2327.242659	1256.382517
2328.801611	1253.230070
2330.363578	1245.662238
2331.923593	1243.271329
2333.483314	1239.292308
2335.041085	1231.983217
2336.598561	1228.090210
2338.155743	1228.810490
2339.710977	1232.046154
2341.265918	1238.648252
2342.820564	1238.037063
2344.374917	1239.102797
2345.928977	1237.998601
2347.482742	1242.360140
2349.034564	1246.150350
2350.584442	1244.038462
2352.137328	1241.369231
2353.684972	1235.930769
2355.235623	1232.850350
2356.782683	1230.659441
2358.331101	1231.976224
2359.879228	1231.193706
2361.423766	1230.357343
2362.969662	1228.130070
2364.513620	1225.880420
2366.058935	1228.604895
2367.600665	1228.465035
2369.143752	1217.706993
2370.684903	1218.402098
2372.225765	1211.968531
2373.766338	1210.202797
2375.306622	1204.546853
2376.846617	1204.430769
2378.383034	1201.715385
2379.922452	1199.753147
2381.458293	1193.258741
2382.995490	1197.467133
2384.529112	1200.737762
2386.065734	1205.013287
2387.600426	1205.786014
2389.133188	1216.070629
2390.665663	1216.374126
2392.196210	1218.809091
2393.729755	1219.320979
2395.258089	1220.801399
2396.787780	1218.149650
2398.317184	1221.186014
2399.846304	1227.972028
2401.375139	1231.069231
2402.898768	1230.868531
2404.427033	1233.334266
2405.950096	1236.865734
2407.477792	1241.339161
2408.998649	1236.574126
2410.524139	1236.869231
2412.046068	1234.757343
2413.569353	1235.304196
2415.090716	1235.434965
2416.610160	1239.912587
2418.130959	1237.531469
2419.649840	1232.688811
2421.168438	1233.078322
2422.685119	1232.800000
2424.203154	1237.383217
2425.720908	1237.251049
2427.235111	1235.446154
2428.749033	1241.804895
2430.262675	1237.133566
2431.777672	1239.097203
2433.289120	1236.527273
2434.801923	1232.368531
2436.312812	1223.643357
2437.823423	1216.579021
2439.332122	1214.160140
2440.843807	1210.558741
2442.351949	1210.023077
2443.859813	1207.230070
2445.367399	1206.657343
2446.871444	1209.239161
2448.378474	1207.476224
2449.883597	1211.184615
2451.388441	1210.141958
2452.891379	1207.327972
2454.394041	1201.369930
2455.896426	1190.418182
2457.396906	1184.828671
2458.898739	1174.788112
2460.398667	1176.381818
2461.898320	1173.982517
2463.397698	1172.591608
2464.895173	1181.134965
2466.390746	1189.957343
2467.889299	1197.248951
2469.384324	1198.792308
2470.880701	1201.843357
2472.373552	1199.458741
2473.867756	1187.934965
2475.361686	1184.844056
2476.852092	1174.600000
2478.345476	1174.838462
2479.836962	1165.957343
2481.326551	1163.925874
2482.815868	1167.855944
2484.303289	1172.751748
2485.793686	1175.276923
2487.280565	1171.995105
2488.768795	1172.772727
2490.253508	1169.923077
2491.737952	1170.321678
2493.223746	1171.026573
2494.707649	1168.279720
2496.192902	1167.943357
2497.673022	1163.172727
2499.156115	1160.623776
2500.637317	1164.467133
2502.118250	1168.188811
2503.597294	1169.867832
2505.076069	1166.822378
2506.554576	1169.825175
2508.032815	1169.578322
2509.510785	1173.257343
2510.985250	1171.986014
2512.462685	1177.342657
2513.936616	1175.437762
2515.411897	1175.989510
2516.886911	1178.945455
2518.358425	1183.636364
2519.831288	1184.269231
2521.302269	1183.565035
2522.774600	1178.425175
2524.241817	1174.409091
2525.712001	1171.502797
2527.180304	1169.816783
2528.648342	1170.108392
2530.116115	1171.077622
2531.583623	1167.895105
2533.050866	1168.688811
2534.514617	1168.494406
2535.979718	1168.926573
2537.442942	1168.690909
2538.907516	1166.296503
2540.368600	1165.960839
2541.831034	1170.700699
2543.293205	1177.230769
2544.751890	1186.410490
2546.215147	1189.955245
2547.673307	1189.386713
2549.132816	1184.286713
2550.587231	1177.593007
2552.046217	1174.137063
2553.503331	1171.425175
2554.958574	1161.339860
2556.413555	1163.006993
2557.866668	1165.795105
2559.321129	1167.309091
2560.773720	1164.393007
2562.226052	1170.876923
2563.676517	1172.395804
2565.129937	1175.735664
2566.578275	1171.425175
2568.029569	1175.130769
2569.478996	1177.445455
2570.924951	1172.486014
2572.373861	1169.197902
2573.819301	1172.682517
2575.266088	1168.116084
2576.711013	1161.100000
2578.155679	1155.246154
2579.601693	1161.253846
2581.044241	1163.423077
2582.488136	1164.658741
2583.928566	1166.564336
2585.370343	1169.204196
2586.810261	1166.201399
2588.251526	1164.096503
2589.689329	1166.981119
2591.130082	1157.962238
2592.565773	1155.748252
2594.004413	1153.554545
2595.441195	1154.721678
2596.876122	1158.177622
2598.313996	1159.423776
2599.746813	1165.764336
2601.180977	1171.799301
2602.613287	1168.862238
2604.046943	1170.102098
2605.478746	1170.634266
2606.910295	1169.119580
2608.341592	1161.518881
2609.771036	1158.114685
2611.200228	1154.270629
2612.627570	1151.138462
2614.056257	1150.794406
2615.484693	1154.159441
2616.909681	1156.086014
2618.336016	1152.219580
2619.760502	1151.467832
2621.186334	1154.253846
2622.608722	1153.233566
2624.032456	1154.748252
2625.454343	1150.029371
2626.875981	1143.093706
2628.295773	1142.162238
2629.716911	1142.990909
2631.137799	1139.162937
2632.555249	1138.336364
2633.975638	1135.230070
2635.392590	1128.427273
2636.809293	1130.170629
2638.225748	1124.351049
2639.641955	1122.746853
2641.057914	1118.220280
2642.472032	1112.121678
2643.885902	1110.980420
2645.297934	1112.155245
2646.711309	1120.933566
2648.121255	1123.972727
2649.534137	1127.444755
2650.943590	1132.741958
2652.352797	1134.606993
2653.760168	1137.823776
2655.170473	1132.097203
2656.578943	1133.581119
2657.985577	1127.595804
2659.391966	1121.380420
2660.796521	1114.357343
2662.202420	1109.975524
2663.606486	1113.350350
2665.010307	1111.744056
2666.413884	1111.720280
2667.815630	1119.979720
2669.218719	1125.090210
2670.618390	1130.472028
2672.019405	1133.793706
2673.417004	1141.960839
2674.817533	1137.818182
2676.214646	1132.986713
2677.613103	1126.293007
2679.009733	1127.444056
2680.406120	1124.005594
2681.802265	1118.067133
2683.196585	1114.962937
2684.592246	1105.460140
2685.984499	1101.113287
2687.378094	1099.023077
2688.769865	1098.261538
2690.162979	1100.683217
2691.554269	1100.209790
2692.943736	1101.474825
2694.332963	1103.320979
2695.721951	1116.274825
2697.112280	1116.175524
2698.497626	1119.591608
2699.885895	1119.025874
2701.272344	1117.623077
2702.658554	1121.039161
2704.044525	1116.906993
2705.427098	1118.662238
2706.811013	1118.057343
2708.194690	1119.136364
2709.578128	1109.481818
2710.958172	1106.957343
2712.339556	1110.568531
2713.719126	1104.373427
2715.100036	1105.939860
2716.479132	1098.874126
2717.856414	1100.152448
2719.235037	1094.855944
2720.611847	1094.620280
2721.988420	1096.837063
2723.364758	1095.179720
2724.739285	1098.723077
2726.115152	1092.599301
2727.487632	1092.222378
2728.863028	1099.225874
2730.233464	1102.005594
2731.605241	1104.827972
2732.976783	1102.679720
2734.346517	1106.048951
2735.717592	1104.565035
2737.086858	1109.116084
2738.455891	1107.826573
2739.823118	1105.709091
2741.190112	1103.199301
2742.556872	1098.130070
2743.923401	1094.616084
2745.288124	1098.543357
2746.652615	1098.649650
2748.016875	1097.391608
2749.380902	1093.769231
2750.744698	1092.810490
2752.105120	1090.255245
2753.468452	1085.555944
2754.826842	1082.104196
2756.188142	1078.756643
2757.546072	1076.504196
2758.906910	1074.831469
2760.265949	1071.144755
2761.621619	1072.879720
2762.980197	1069.417483
2764.335408	1067.145455
2765.690390	1065.078322
2767.043576	1062.528671
2768.399668	1059.156643
2769.752395	1054.406993
2771.104895	1058.144755
2772.457166	1059.472727
2773.810776	1058.220280
2775.161024	1057.773427
2776.509478	1059.073427
2777.860838	1062.378322
2779.208838	1059.990909
2780.558176	1060.170629
2781.905722	1063.091608
2783.253042	1061.123776
2784.600135	1060.837762
2785.945437	1057.302797
2787.290512	1058.597203
2788.635362	1051.918881
2789.979986	1043.607692
2791.321258	1042.627273
2792.663868	1043.296503
2794.006252	1043.355944
2795.348411	1043.450350
2796.687221	1049.048252
2798.028931	1056.169231
2799.367293	1059.044755
2800.706991	1058.951748
2802.044905	1064.415385
2803.381034	1067.582517
2804.716939	1059.505594
2806.054182	1056.890210
2807.389641	1064.416783
2808.724877	1064.816084
2810.058330	1065.776923
2811.393120	1068.283916
2812.724570	1066.325874
2814.058915	1064.005594
2815.388362	1065.440559
2816.719146	1063.947552
2818.049708	1067.369231
2819.378491	1061.499301
2820.708610	1055.582517
2822.036951	1055.215385
2823.365071	1060.149650
2824.691413	1053.705594
2826.019092	1049.992308
2827.343437	1047.399301
2828.669119	1041.675524
2829.993025	1040.232168
2831.316712	1045.944056
2832.641734	1043.729371
2833.963426	1051.328671
2835.284900	1054.501399
2836.606155	1061.481818
2837.927191	1060.949650
2839.246454	1060.942657
2840.567053	1057.211189
2841.885881	1053.595105
2843.204490	1051.038462
2844.521328	1047.144056
2845.837949	1041.494406
2847.154353	1038.748252
2848.468987	1032.211189
2849.784957	1033.959441
2851.097606	1027.949650
2852.411590	1024.867133
2853.725358	1019.788811
2855.038909	1015.662238
2856.350694	1010.978322
2857.660712	1006.095804
2858.972065	999.020280
2860.280103	999.336364
2861.589475	999.686014
2862.898633	1001.569231
2864.207575	1005.375524
2865.514753	1010.488112
2866.820169	1013.138462
2868.126919	1019.056643
2869.431906	1022.343357
2870.736680	1021.897203
2872.039692	1021.789510
2873.345585	1017.092308
2874.646624	1013.450350
2875.948997	1012.609091
2877.249610	1008.471329
2878.551557	1008.561538
2879.853290	1007.714685
2881.151720	1005.506294
2882.451483	1003.310490
2883.749489	1005.129371
2885.047283	1001.823077
2886.343321	1002.948951
2887.640692	1009.050350
2888.936307	1009.874126
2890.231711	1014.613986
2891.526904	1010.509790
2892.818800	1007.925874
2894.113572	1002.607692
2895.405047	999.495105
2896.697855	990.539860
2897.990453	984.434266
2899.279757	982.642657
2900.570393	977.860140
2901.859278	977.621678
2903.149495	981.367133
2904.436421	982.032168
2905.724679	984.226573
2907.011188	978.122378
2908.297489	981.604895
2909.583581	975.275524
2910.867925	978.481818
2912.155140	976.151748
2913.437529	978.547552
2914.721250	978.223077
2916.003225	977.760140
2917.284992	980.297203
2918.565015	981.467832
2919.847907	981.425874
2921.129054	981.306294
2922.406919	978.277622
2923.687653	977.520979
2924.965106	970.979021
2926.242353	972.765035
2927.517858	976.530769
2928.796231	977.809790
2930.069790	978.973427
2931.346216	981.994406
2932.620901	986.965035
2933.893845	983.783916
2935.168121	983.672727
2936.440657	979.498601
2937.712988	971.545455
2938.982047	964.681119
2940.253971	960.441958
2941.524157	959.955944
2942.794139	959.605594
2944.063918	955.356643
2945.331961	955.562238
2946.598267	959.665734
2947.864372	959.440559
2949.131806	956.568531
2950.397506	954.820979
2951.663003	953.676923
2952.928298	946.686713
2954.190328	947.312587
2955.453688	942.820979
2956.716847	942.064336
2957.978274	938.823776
2959.241030	935.947552
2960.502054	935.634965
2961.761348	942.350350
2963.020442	942.269930
2964.279335	940.274825
2965.538028	945.077622
2966.796521	951.896503
2968.053285	949.877622
2969.309849	948.551748
2970.564686	946.342657
2971.820851	946.211189
2973.073762	948.100000
2974.328002	948.241958
2975.582043	949.131469
2976.834358	947.644056
2978.086474	938.559441
2979.336866	930.805594
2980.590113	934.262238
2981.838583	931.432867
2983.089908	922.917483
2984.337983	920.297902
2985.585862	922.958741
2986.833543	929.088811
2988.081027	938.689510
2989.326790	942.330769
2990.572357	950.216084
2991.819251	944.768531
2993.062901	940.861538
2994.307879	940.910490
2995.549613	936.018182
2996.794199	930.763636
2998.037066	925.054545
2999.276692	924.259441
3000.519168	923.805594
3001.758404	931.216783
3002.998968	930.351049
3004.237816	931.201399
3005.476468	933.521678
3006.713406	930.227972
3007.951670	931.724476
3009.188219	932.893007
3010.424575	932.511888
3011.660737	937.494406
3012.895185	934.372028
3014.129441	930.238462
3015.363503	931.195804
3016.595853	934.777622
3017.826491	929.485315
3019.059975	932.660839
3020.291747	931.297203
3021.521809	933.088811
3022.751679	931.210490
3023.979839	932.398601
3025.209325	935.537063
3026.437102	932.491608
3027.664688	925.181818
3028.893601	923.229371
3030.117771	923.086014
3031.344784	923.875524
3032.568573	920.735664
3033.793689	921.767832
3035.017098	920.145455
3036.240317	918.235664
3037.461831	918.826573
3038.686186	920.160140
3039.905806	922.425874
3041.126752	912.162937
3042.347509	915.578322
3043.566562	919.406993
3044.786940	922.355944
3046.004102	921.953147
3047.222590	920.912587
3048.439375	918.898601
3049.655973	913.616783
3050.872382	909.880420
3052.085579	913.284615
3053.301613	910.871329
3054.514435	909.721678
3055.730094	901.058741
3056.941030	902.142657
3058.153291	897.388811
3059.365366	896.454545
3060.577253	892.900000
3061.787444	891.696503
3062.997448	889.179021
3064.207266	887.662937
3065.415388	886.127273
3066.623325	889.020979
3067.829566	890.276923
3069.037132	888.692308
3070.243003	885.668531
3071.448690	881.490909
3072.654191	879.679021
3073.857999	881.090210
3075.063131	881.895804
3076.266570	878.669231
3077.468318	879.097203
3078.669881	877.834965
3079.871261	874.899301
3081.072457	874.530769
3082.271963	871.126573
3083.471286	871.983217
3084.671932	872.632168
3085.870888	871.447552
3087.066650	872.458042
3088.265241	876.289510
3089.460638	877.786713
3090.657358	873.512587
3091.850886	872.168531
3093.047242	874.897203
3094.241912	877.532168
3095.433391	879.818881
3096.629201	881.179720
3097.820318	880.838462
3099.012757	878.734266
3100.202009	872.974825
3101.394086	872.520280
3102.584480	872.028671
3103.771688	863.886014
3104.960219	855.963636
3106.150071	854.381119
3107.336740	858.876224
3108.523228	857.018881
3109.709538	857.078322
3110.897169	860.244056
3112.081618	857.666434
3113.264388	859.182517
3114.449980	854.012587
3115.633893	852.623077
3116.816127	849.816783
3117.998182	847.376923
3119.180059	846.370629
3120.361758	850.293706
3121.541780	846.805594
3122.720125	843.025175
3123.901290	842.993007
3125.079280	844.778322
3126.257094	841.638462
3127.434730	838.497203
3128.610691	835.048252
3129.786475	830.141958
3130.963581	829.061538
3132.139012	831.001399
3133.312770	831.370629
3134.484855	836.848252
3135.658262	831.694406
3136.831492	839.022378
3138.003051	841.269930
3139.175930	841.509790
3140.345642	845.809091
3141.516675	844.720280
3142.686038	840.937762
3143.853730	838.018881
3145.024238	832.420280
3146.190088	828.381818
3147.360246	831.534965
3148.525748	834.934266
3149.691075	832.675524
3150.856229	837.031469
3152.021210	833.762937
3153.187510	831.558741
3154.349158	830.579021
3155.512125	823.412587
3156.674920	817.778322
3157.837542	814.783916
3158.998499	807.136364
3160.159283	803.604895
3161.319895	805.739161
3162.478843	809.376224
3163.637620	808.368531
3164.796225	804.776224
3165.954657	803.337762
3167.112919	800.220979
3168.269518	796.772028
3169.424456	794.532867
3170.580713	791.817483
3171.735309	790.456643
3172.889735	793.481119
3174.042501	794.045455
3175.195096	797.630769
3176.347522	800.447552
3177.499778	800.915385
3178.651863	801.810490
3179.800803	801.918182
3180.952549	802.065035
3182.102637	799.497902
3183.251069	798.546154
3184.399331	796.648252
3185.547425	796.675524
3186.695350	801.495105
3187.841619	802.467832
3188.987720	805.453147
3190.132167	803.621678
3191.276446	809.723776
3192.420557	811.540559
3193.565985	811.173427
3194.708275	810.069231
3195.850398	803.060839
3196.992353	798.618881
3198.134141	795.981818
3199.275762	791.583217
3200.414248	792.462238
3201.554051	791.907692
3202.695172	790.173427
3203.833158	788.119580
3204.969495	791.607692
3206.105666	791.429371
3207.243154	792.267832
3208.378994	790.123077
3209.516151	790.907692
3210.648695	790.558042
3211.785521	787.525175
3212.917735	785.734266
3214.051266	789.495105
3215.184633	788.620280
3216.314872	785.840559
3217.447909	781.853846
3218.577820	778.758741
3219.709047	773.784615
3220.837150	770.295105
3221.968049	766.695804
3223.097304	761.242657
3224.224916	756.171329
3225.349405	757.402797
3226.478170	760.938462
3227.603813	771.769231
3228.729294	775.346853
3229.853133	778.407692
3230.979766	778.913287
3232.101802	779.064336
3233.225154	777.827273
3234.348344	775.013986
3235.471372	768.641259
3236.592760	765.550350
3237.713986	762.914685
3238.833575	762.163636
3239.953002	759.430769
3241.070791	761.949650
3242.191372	759.213287
3243.308840	762.251748
3244.426147	761.253147
3245.543294	763.207692
3246.658805	765.941259
3247.775630	771.255245
3248.889346	772.989510
3250.005851	779.263636
3251.120722	776.245455
3252.232484	779.597902
3253.344086	777.672727
3254.457004	776.112587
3255.569762	775.763636
3256.679414	773.163636
3257.790381	769.223776
3258.901189	768.332867
3260.010365	768.371329
3261.117911	770.373427
3262.226770	768.516084
3263.335472	767.192308
3264.441071	767.020280
3265.547984	771.907692
3266.653268	769.028671
3267.759866	769.260140
3268.863364	767.948252
3269.968177	767.453147
3271.072832	766.241958
3272.174388	764.427273
3273.275788	764.394406
3274.378502	762.140559
3275.481060	760.174825
3276.580521	755.195804
3277.682766	756.230070
3278.781915	755.938462
3279.879440	750.505594
3280.976809	747.959441
3282.076960	746.602098
3283.174019	742.806993
3284.270922	736.765734
3285.367670	735.219580
3286.459860	737.130070
3287.556298	736.601399
3288.651114	737.898601
3289.745776	741.272727
3290.838816	741.664336
3291.931701	737.213287
3293.022967	736.737063
3294.115544	734.906993
3295.206502	731.090909
3296.295840	727.225874
3297.385025	724.725874
3298.475523	719.540559
3299.562936	720.515385
3300.650196	718.655944
3301.738769	721.760839
3302.827190	723.671329
3303.911063	719.446853
3304.999178	718.439860
3306.084211	722.484615
3307.167629	720.513986
3308.252359	720.351748
3309.335473	725.037063
3310.419900	724.639161
3311.501248	720.221678
3312.583908	721.353147
3313.664954	719.247552
3314.745849	718.990210
3315.825130	717.226573
3316.904261	715.078322
3317.984704	715.035664
3319.062072	715.133566
3320.140752	716.923776
3321.217820	715.816084
3322.294739	719.722378
3323.370046	718.851748
3324.445204	720.109091
3325.521673	722.112587
3326.595072	721.680420
3327.668322	726.789510
3328.742882	726.691608
3329.815834	728.188112
3330.887177	726.253147
3331.959831	722.332867
3333.029419	722.111888
3334.100317	715.637063
3335.169608	710.124476
3336.240210	707.358042
3337.309205	702.195804
3338.376594	699.810490
3339.442378	699.758741
3340.512388	703.264336
3341.579335	700.497203
3342.643220	703.789510
3343.709873	702.669231
3344.774921	703.411189
3345.838366	704.349650
3346.901665	699.912587
3347.964817	698.734965
3349.027823	694.257343
3350.090683	684.532168
3351.151941	681.688811
3352.210142	677.868531
3353.272563	673.330070
3354.331929	671.183916
3355.391149	669.355944
3356.451679	671.500000
3357.507699	671.741958
3358.566483	674.060140
3359.620760	675.132867
3360.677801	680.687413
3361.733243	680.908392
3362.789995	680.782517
3363.845148	681.384615
3364.898704	681.344056
3365.950664	682.234965
3367.005385	682.816084
3368.057057	681.809091
3369.108586	688.989510
3370.161423	686.497902
3371.211213	686.918182
3372.262312	685.731469
3373.310365	691.420979
3374.361177	692.413986
3375.408945	687.758042
3376.456570	683.512587
3377.504052	679.616783
3378.549942	673.603497
3379.597140	668.460839
3380.641296	668.135664
3381.688210	667.488811
3382.733532	666.698601
3383.775813	667.586014
3384.817954	672.141958
3385.861402	681.632867
3386.904709	687.572727
3387.946427	689.188112
3388.988003	689.997902
3390.029438	691.311189
3391.069285	685.038462
3392.107543	685.540559
3393.147109	682.778322
3394.186535	681.436364
3395.224373	682.355944
3396.260624	685.823776
3397.296736	685.814685
3398.334155	688.623776
3399.368541	687.497203
3400.404234	687.990210
3401.439788	685.561538
3402.472311	686.941259
3403.507587	687.390210
3404.539832	689.847552
3405.571939	688.820979
3406.602462	688.282517
3407.634292	683.209790
3408.665984	684.195804
3409.694648	677.439860
3410.723175	672.753846
3411.753008	665.264336
3412.782704	665.544056
3413.809374	661.618182
3414.837351	665.205594
3415.862303	670.815385
3416.890005	674.169930
3417.914684	673.202797
3418.940669	672.337762
3419.965074	670.595105
3420.989343	670.705594
3422.012033	668.581119
3423.034587	659.779720
3424.058447	653.732168
3425.079287	649.828671
3426.099991	645.192907
3427.122002	642.253097
3428.140994	641.746653
3429.159850	644.410989
3430.180013	650.983516
3431.197159	662.201648
