-118.059454	31.214286
-115.389854	33.076923
-112.723189	34.354346
-110.057276	35.167532
-107.394295	35.637463
-104.729885	35.885115
-102.068405	36.031469
-99.405496	33.865734
-96.747693	38.368531
-94.088461	41.535664
-91.429977	41.893007
-88.774417	41.685315
-86.117429	41.591608
-83.465539	41.219580
-80.812218	40.565734
-78.161818	42.651748
-75.509988	42.589510
-72.863249	43.674126
-70.215081	44.074825
-67.567655	44.331469
-64.923143	49.071329
-62.277203	51.557343
-59.636344	52.174825
-56.994056	50.030769
-54.354677	48.411189
-51.713868	44.820280
-49.073800	42.715385
-46.438804	41.869231
-43.802380	43.216783
-41.168858	48.309091
-38.533908	50.752448
-35.904023	52.427273
-33.270546	53.230769
-30.642131	55.217483
-28.014450	54.286014
-25.385340	49.122378
-22.761287	7.728671
-20.133645	-137.179021
-17.511056	-414.283916
-14.889199	-303.606294
-12.268072	684.404196
-9.647675	2135.100000
-7.030167	3302.044056
-4.411230	4092.513287
-1.795178	4503.476224
0.820145	4536.686713
3.434741	4195.265734
6.046454	3485.813287
8.659596	2424.116084
11.267704	1120.431469
13.879394	-104.039161
16.486053	-605.539161
19.094140	-330.198601
21.701503	21.144755
24.303841	62.077622
26.909757	61.592308
29.510651	61.000699
32.112973	60.488811
34.710278	58.516084
37.311158	58.225874
39.907023	56.117483
42.504317	56.550350
45.100891	53.421678
47.692456	54.052448
50.285449	52.753147
52.875581	57.763636
55.467141	60.537762
58.055841	64.066434
60.645968	66.260839
63.231096	68.181818
65.817652	67.449650
68.403494	68.553147
70.986482	71.443357
73.570896	74.887413
76.148182	74.395804
78.729034	78.567133
81.307037	79.452448
83.884330	83.953147
86.463049	87.182517
89.036786	88.818182
91.611951	89.307692
94.184272	92.012587
96.755885	96.100699
99.324658	100.463636
101.894858	108.136364
104.462220	116.372727
107.031007	126.284615
109.596958	140.344755
112.160074	156.739161
114.726746	182.093706
117.284197	223.103497
119.847333	289.941958
122.405509	410.884615
124.967240	629.962238
127.524014	1010.132168
130.082215	1622.186014
132.635462	2493.001399
135.188012	3628.451049
137.744112	4940.101399
140.295264	6333.631469
142.845719	7715.171329
145.395476	8970.460839
147.942414	10008.584615
150.488657	10781.343357
153.036325	11261.734965
155.583297	11511.220280
158.125334	11589.658741
160.666677	11571.403497
163.207327	11523.955944
165.749403	11483.104895
168.288667	11438.435664
170.825123	11404.583916
173.360887	11388.304895
175.898077	11355.791608
178.434576	11344.234965
180.968269	11331.086713
183.499158	11318.708392
186.029360	11315.311189
188.560986	11313.968531
191.089811	11308.451748
193.615837	11313.482517
196.141177	11319.200699
198.667942	11330.409091
201.191911	11329.116084
203.715195	11317.630769
206.237794	11301.588811
208.757600	11299.718182
211.276723	11294.872028
213.795163	11271.924476
216.315027	11262.949650
218.827890	11271.986713
221.344284	11283.860140
223.859996	11314.974126
226.370818	11351.488112
228.883065	11397.693007
231.392530	11421.160140
233.901316	11455.393007
236.409423	11498.227972
238.918955	11539.302098
241.423606	11584.172727
243.927581	11596.429371
246.432980	11628.964336
248.933504	11648.138462
251.437552	11661.195804
253.934628	11678.302098
256.435228	11691.303497
258.933056	11697.453147
261.430211	11690.639860
263.926693	11696.464336
266.418312	11701.230070
268.913451	11699.976923
271.405823	11696.698601
273.897525	11688.060839
276.386464	11687.000000
278.876827	11666.577622
281.364427	11656.374126
283.849268	11640.576224
286.337624	11641.623776
288.819040	11645.968531
291.303970	11670.925175
293.784055	11683.351049
296.267652	11706.119580
298.746406	11718.841259
301.226584	11735.425874
303.704009	11751.384615
306.180771	11741.984615
308.656870	11738.977622
311.130220	11758.044755
313.602908	11762.632867
316.074935	11787.266434
318.546301	11795.734965
321.014922	11824.347552
323.482885	11849.295804
325.952269	11853.449650
328.416831	11847.077622
330.884897	11845.838462
333.348143	11839.650350
335.810731	11814.730070
338.272663	11815.444056
340.733938	11825.848951
343.192479	11818.705594
345.652442	11805.459441
348.109672	11775.481818
350.566248	11760.006993
353.022170	11730.600699
355.475362	11659.263636
357.929977	11610.608392
360.379790	11567.939161
362.833099	11526.033566
365.281610	11458.637762
367.729469	11400.285315
370.178751	11352.732168
372.623239	11287.833566
375.069149	11240.419580
377.514409	11186.028671
379.956951	11145.613986
382.398845	11089.337762
384.840092	11038.516084
387.278623	11015.518881
389.718576	10984.256643
392.155815	10958.030070
394.590342	10913.299301
397.028357	10893.521678
399.461595	10864.306294
401.896254	10819.264336
404.326141	10805.126573
406.759513	10787.793706
409.188115	10778.128671
411.616075	10752.688811
414.045457	10738.958042
416.470073	10744.675524
418.896111	10746.930070
421.321508	10750.198601
423.746265	10767.578322
426.166264	10791.059441
428.587684	10805.784615
431.006407	10807.918182
433.426551	10838.632168
435.844000	10854.702098
438.262869	10860.320979
440.679045	10864.693007
443.090473	10869.885315
445.505379	10870.534266
447.917594	10875.923077
450.329175	10866.977622
452.740122	10869.224476
455.148383	10860.755944
457.556011	10873.557343
459.963007	10867.869930
462.369372	10861.683916
464.773054	10852.320979
467.176106	10855.908392
469.578528	10847.432867
471.980320	10856.722378
474.379435	10852.411888
476.779969	10853.318182
479.179874	10844.475524
481.575056	10846.121678
483.973705	10837.101399
486.367634	10826.497203
488.760937	10800.851049
491.153614	10769.846154
493.545666	10755.321678
495.939136	10740.569231
498.327894	10718.587413
500.713986	10722.849650
503.101498	10704.446853
505.488387	10698.832867
507.872612	10707.679720
510.258255	10723.858042
512.641237	10717.344056
515.021558	10723.379720
517.403298	10714.614685
519.782379	10710.193706
522.162879	10705.846154
524.540721	10697.777622
526.915908	10686.913986
529.290477	10680.234965
531.666464	10663.752448
534.039799	10653.744755
536.414551	10652.778322
538.784618	10631.010490
541.154069	10599.278322
543.524938	10562.441259
545.891127	10509.811189
548.258734	10473.769930
550.623695	10436.320979
552.988043	10391.074825
555.351778	10350.804196
557.716931	10320.779720
560.077412	10280.904895
562.439311	10251.053147
564.798569	10232.806993
567.155190	10185.495804
569.515255	10141.912587
571.868629	10083.088811
574.225448	10041.461538
576.579632	10002.733566
578.933208	9963.698601
581.286175	9912.600000
583.636510	9877.498601
585.988263	9841.169231
588.333339	9804.251748
590.683879	9774.515385
593.027745	9742.086713
595.377073	9697.148252
597.721752	9667.686713
600.063807	9628.411888
602.407279	9610.228671
604.748128	9587.965734
607.088375	9566.330070
609.426001	9557.886713
611.767062	9558.997203
614.103485	9565.904895
616.441325	9588.774825
618.776548	9584.562937
621.109155	9588.474126
623.443178	9603.529371
625.774587	9621.043357
628.105398	9629.051748
630.435612	9647.561538
632.765227	9648.579021
635.090220	9655.179720
637.420653	9659.088811
639.746466	9654.590909
642.069671	9656.489510
644.394293	9666.105594
646.716309	9658.190210
649.037731	9669.857343
651.356551	9695.674825
653.676786	9709.302098
655.996428	9738.456643
658.313469	9765.860140
660.629918	9800.915385
662.943769	9851.720280
665.259036	9891.980420
667.571706	9934.030070
669.885791	9977.037063
672.195276	10036.589510
674.506177	10081.886014
676.814485	10130.356643
679.122205	10187.290909
681.431339	10218.104196
683.735881	10262.106294
686.039837	10287.913287
688.343207	10330.243357
690.647991	10377.057343
692.948189	10414.604895
695.249801	10455.830070
697.550829	10483.593706
699.847274	10506.295804
702.145135	10532.220979
704.442412	10562.367133
706.739106	10598.823077
709.031224	10609.973427
711.326753	10635.509790
713.617708	10655.420979
715.910078	10690.886713
718.199873	10717.382517
720.489087	10764.923776
722.777722	10806.823776
725.063784	10840.099301
727.351261	10860.296503
729.636166	10899.967133
731.920494	10921.638462
734.202253	10947.006993
736.485426	10970.844056
738.768022	11004.674825
741.046062	11043.369930
743.325517	11086.578322
745.604395	11127.184615
747.882699	11197.325175
750.156453	11257.537762
752.431620	11315.908392
754.706214	11364.813287
756.978249	11419.023776
759.251697	11458.014685
761.522587	11512.699301
763.790921	11570.064336
766.060668	11620.160839
768.327861	11659.705594
770.594483	11698.037063
772.860535	11728.220280
775.124036	11767.361538
777.388950	11804.401399
779.653294	11829.375524
781.913109	11867.653147
784.174336	11910.809790
786.434996	11948.343357
788.693110	11995.981818
790.948679	12039.875524
793.207639	12057.811189
795.460100	12067.012587
797.717927	12086.296503
799.971236	12093.265035
802.222005	12089.967133
804.474186	12102.065035
806.723828	12110.778322
808.974883	12135.453846
811.221426	12159.748951
813.469381	12183.048252
815.714802	12207.571329
817.961634	12234.153846
820.207905	12249.957343
822.449671	12280.351049
824.694821	12320.170629
826.933498	12358.869930
829.175557	12367.485315
831.413118	12404.648951
833.652091	12440.285315
835.888537	12481.729371
838.126394	12526.197203
840.361726	12559.611888
842.594535	12594.688811
844.828755	12640.637063
847.060452	12709.897902
849.291595	12779.166434
851.522183	12850.754545
853.752217	12927.490909
855.981697	12993.446154
858.206695	13089.469231
860.435068	13187.800000
862.658961	13286.544755
864.884266	13388.183217
867.105095	13475.548252
869.329296	13590.306294
871.549024	13703.689510
873.770162	13818.553846
875.990750	13938.307692
878.208829	14056.664336
880.428317	14149.374126
882.643339	14241.524476
884.857814	14328.622378
887.071740	14382.041958
889.285120	14431.769231
891.497952	14487.695105
893.710238	14533.723077
895.920021	14556.862238
898.129259	14559.600000
900.337952	14555.857343
902.544146	14561.778322
904.751749	14531.714685
906.956854	14465.065035
909.161416	14390.265734
911.363483	14307.320280
913.566959	14187.993706
915.767941	14088.207692
917.968381	13979.409091
920.170230	13846.809091
922.365688	13702.353846
924.564505	13564.007692
926.758883	13433.602797
928.956619	13304.111888
931.149919	13167.839161
933.344628	13046.009091
935.536851	12934.574126
937.728535	12837.031469
939.919682	12758.832168
942.108346	12705.709790
944.296474	12639.683217
946.482121	12596.722378
948.671120	12578.514685
950.855696	12559.502797
953.039737	12563.738462
955.227128	12579.369231
957.406215	12600.708392
959.588653	12644.933566
961.770557	12690.752448
963.949986	12732.661538
966.126943	12783.590909
968.305308	12805.305594
970.485080	12815.673427
972.658503	12820.611888
974.835272	12824.859441
977.007634	12803.276224
979.181404	12772.279021
981.350770	12727.212587
983.523480	12673.976923
985.693725	12630.458741
987.863441	12559.399301
990.032628	12485.431469
992.197418	12413.636364
994.365549	12346.244755
996.529286	12276.376923
998.694429	12209.698601
1000.857113	12161.262238
1003.019272	12096.348951
1005.178974	12013.745455
1007.338151	11939.006993
1009.498735	11873.976224
1011.656865	11818.377622
1013.814470	11747.483916
1015.971552	11684.458741
1018.128110	11622.238462
1020.280289	11576.866434
1022.433875	11539.690909
1024.586939	11496.667832
1026.737554	11454.759441
1028.889576	11431.288112
1031.037224	11393.465734
1033.188204	11370.783217
1035.334813	11339.779720
1037.480903	11319.371329
1039.626475	11294.475524
1041.773452	11248.928671
1043.914140	11205.131469
1046.058158	11184.311888
1048.199735	11155.953147
1050.340796	11111.632867
1052.483261	11081.575524
1054.619447	11071.913287
1056.758958	11036.834266
1058.894115	11002.802098
1061.032596	10983.727273
1063.166723	10969.276224
1065.300337	10956.712587
1067.435356	10928.786014
1069.566025	10912.734266
1071.698099	10887.311189
1073.827744	10852.421678
1075.956877	10835.802098
1078.085498	10799.446853
1080.213608	10769.183916
1082.339292	10730.169930
1084.464466	10706.580420
1086.591044	10688.180420
1088.713284	10654.931469
1090.836929	10642.355944
1092.956239	10614.287413
1095.080779	10592.277622
1097.199073	10557.226573
1099.318772	10534.534965
1101.436052	10522.489510
1103.552826	10477.672727
1105.669093	10454.698601
1107.782944	10428.787413
1109.898200	10393.623077
1112.009132	10359.728671
1114.123377	10312.701399
1116.233301	10284.427273
1118.344629	10246.960140
1120.455452	10215.234266
1122.561959	10176.057343
1124.671776	10146.002797
1126.777278	10126.070629
1128.884183	10095.517483
1130.984873	10070.675524
1133.090775	10035.030070
1135.192368	10006.180420
1137.295364	9983.389510
1139.397859	9950.057343
1141.494147	9931.395105
1143.595643	9921.082517
1145.692835	9894.910490
1147.789530	9875.806993
1149.885726	9866.240559
1151.981425	9870.105594
1154.076625	9864.725874
1156.169429	9845.745455
1158.263636	9842.009091
1160.351651	9840.058741
1162.444864	9821.141259
1164.531889	9816.725874
1166.622213	9816.386014
1168.708250	9812.346853
1170.797584	9798.824476
1172.880737	9782.562937
1174.965292	9770.106294
1177.051249	9762.845455
1179.132924	9735.282517
1181.216001	9716.727972
1183.296692	9708.732168
1185.376891	9687.455944
1187.456599	9650.748951
1189.535816	9632.468531
1191.612651	9623.679720
1193.687105	9593.253147
1195.764850	9582.177622
1197.838326	9565.197203
1199.913202	9571.039161
1201.983811	9573.502797
1204.055821	9582.299301
1206.125456	9595.574126
1208.196491	9619.570629
1210.267038	9646.917483
1212.333324	9648.563636
1214.401011	9660.855245
1216.466326	9681.505594
1218.533041	9677.067133
1220.595500	9678.197203
1222.661244	9672.684615
1224.722734	9686.954545
1226.785625	9686.648951
1228.846148	9701.334266
1230.906187	9704.895804
1232.965744	9723.612587
1235.022935	9741.020979
1237.079645	9752.784615
1239.133991	9764.076923
1241.191619	9794.114685
1243.246884	9812.853846
1245.297908	9832.581818
1247.350332	9859.702098
1249.402276	9889.872727
1251.451862	9916.671329
1253.500969	9941.968531
1255.549598	9956.990909
1257.597748	9960.627273
1259.645419	9974.072727
1261.688860	9983.965734
1263.735577	9972.480420
1265.779940	9992.116783
1267.823827	10010.965734
1269.865362	10026.002098
1271.904548	10048.066434
1273.947007	10065.214685
1275.985243	10096.855245
1278.024878	10119.146853
1280.064038	10144.272028
1282.098979	10153.518182
1284.135319	10171.445455
1286.169315	10189.616783
1288.204708	10192.044755
1290.235889	10217.151049
1292.268467	10237.676224
1294.300574	10244.308392
1296.330340	10263.726573
1298.361504	10274.266434
1300.388460	10289.177622
1302.416814	10310.981119
1304.440963	10328.990210
1306.468378	10331.422378
1308.491590	10345.456643
1310.516200	10354.313986
1312.538476	10363.527972
1314.562149	10367.560839
1316.583489	10367.424476
1318.604361	10349.306294
1320.624766	10340.228671
1322.640978	10326.813287
1324.658587	10332.448252
1326.673868	10346.781818
1328.692408	10347.020979
1330.706759	10353.628671
1332.718784	10355.149650
1334.734066	10359.693007
1336.745163	10365.788811
1338.757657	10348.421678
1340.765968	10332.662937
1342.777534	10311.794406
1344.783062	10297.152448
1346.791845	10287.822378
1348.796450	10298.227972
1350.804309	10308.288112
1352.811706	10304.765734
1354.813072	10313.411888
1356.815834	10303.566434
1358.818137	10310.969930
1360.819980	10298.235664
1362.821363	10291.944755
1364.820433	10279.413986
1366.819044	10273.553846
1368.817197	10265.618182
1370.814891	10272.188112
1372.808423	10273.293706
1374.803351	10271.283916
1376.797821	10258.406294
1378.791835	10241.101399
1380.783542	10229.786014
1382.774794	10212.396503
1384.763740	10185.591608
1386.754081	10170.279720
1388.743967	10130.885315
1390.731549	10107.871329
1392.718678	10093.300000
1394.703505	10100.254545
1396.689727	10092.576224
1398.673649	10097.631469
1400.657118	10094.990909
1402.640134	10091.811189
1404.620853	10110.318182
1406.602966	10109.291608
1408.582783	10108.346853
1410.562148	10121.037063
1412.537375	10103.198601
1414.515840	10114.597902
1416.492012	10127.729371
1418.467735	10152.220979
1420.443008	10157.108392
1422.415990	10164.011888
1424.388524	10165.599301
1426.360610	10173.532867
1428.332249	10176.054545
1430.299759	10192.075524
1432.272343	10192.219580
1434.237122	10198.062937
1436.206972	10189.155245
1438.172699	10198.060140
1440.139818	10191.543357
1442.104654	10187.695105
1444.065370	10176.718881
1446.031154	10173.334266
1447.990983	10179.979720
1449.952206	10172.144056
1451.914821	10173.525175
1453.873321	10204.537063
1455.831378	10200.934266
1457.788994	10195.472028
1459.746167	10198.153147
1461.701065	10201.500699
1463.657356	10198.023077
1465.611372	10190.197203
1467.564947	10184.644755
1469.516250	10178.870629
1471.468946	10172.759441
1473.419369	10163.853846
1475.369354	10161.989510
1477.318900	10177.156643
1479.266177	10170.355944
1481.211186	10169.637762
1483.157588	10173.885315
1485.103552	10178.850350
1487.049079	10182.369930
1488.992340	10183.858042
1490.935166	10197.935664
1492.875728	10205.103497
1494.817681	10206.502098
1496.757372	10216.821678
1498.696629	10234.072028
1500.635450	10247.002797
1502.572012	10250.876923
1504.509965	10260.261538
1506.445659	10247.867832
1508.380920	10245.483217
1510.313925	10241.481818
1512.246497	10240.774825
1514.178637	10240.164336
1516.110345	10244.660839
1518.039799	10248.337762
1519.970644	10259.060140
1521.901057	10283.224476
1523.827398	10295.361538
1525.755130	10316.851049
1527.680611	10323.125175
1529.605663	10321.481119
1531.530286	10337.246853
1533.454480	10362.698601
1535.376426	10390.638462
1537.299763	10404.713287
1539.220853	10434.562937
1541.139700	10447.779021
1543.059935	10454.394406
1544.977928	10468.218182
1546.895494	10472.455245
1548.810818	10479.420979
1550.727532	10476.789510
1552.640191	10468.318881
1554.556054	10485.470629
1556.469677	10498.309790
1558.381062	10507.580420
1560.293837	10510.102098
1562.202562	10522.237063
1564.112676	10526.879021
1566.022367	10538.069930
1567.931635	10541.991608
1569.838669	10529.111888
1571.743470	10536.152448
1573.649660	10521.874126
1575.553618	10502.540559
1577.457155	10488.800699
1579.360272	10463.026573
1581.261159	10431.854545
1583.163435	10394.699301
1585.063483	10363.160839
1586.964918	10331.267133
1588.862320	10312.690210
1590.759303	10282.684615
1592.655868	10251.312587
1594.553821	10234.225175
1596.445939	10210.795105
1598.341250	10191.267832
1600.236144	10171.351049
1602.128816	10154.359441
1604.021071	10128.165035
1605.911107	10093.958042
1607.800727	10065.359441
1609.689932	10050.113287
1611.578722	10052.883217
1613.465294	10054.143357
1615.353254	10055.660140
1617.237197	10053.026573
1619.122527	10066.265035
1621.007444	10060.263636
1622.890147	10070.027273
1624.774237	10074.783217
1626.654315	10058.600000
1628.535781	10026.592308
1630.415036	10000.097203
1632.295677	9988.398601
1634.170514	9974.347552
1636.050332	9954.864336
1637.926146	9938.264336
1639.801549	9927.967133
1641.678338	9925.644755
1643.549331	9903.188811
1645.423505	9911.101399
1647.293680	9912.434266
1649.167037	9891.604196
1651.038190	9879.435664
1652.907141	9859.909790
1654.777477	9840.613986
1656.643821	9816.485315
1658.511550	9807.167832
1660.377080	9789.054545
1662.243996	9763.388811
1664.106923	9737.946154
1665.971235	9708.292308
1667.833351	9690.526573
1669.695062	9665.624476
1671.558159	9629.351748
1673.419060	9609.396503
1675.277769	9589.716084
1677.136074	9573.118881
1678.995764	9557.620979
1680.849686	9584.239860
1682.706782	9586.265734
1684.563475	9590.613287
1686.416191	9591.048951
1688.272079	9590.629371
1690.123993	9588.293706
1691.975506	9586.498601
1693.826618	9570.928671
1695.677330	9561.002098
1697.527641	9545.856643
1699.375767	9528.504895
1701.225278	9508.030769
1703.069040	9507.537762
1704.917751	9488.540559
1706.760716	9461.838462
1708.606848	9431.153147
1710.449017	9424.866434
1712.294352	9424.628671
1714.133946	9416.241259
1715.974924	9406.813287
1717.817285	9405.195804
1719.655690	9401.679021
1721.495478	9390.952448
1723.333091	9370.572028
1725.170308	9350.030769
1727.005352	9317.199301
1728.841779	9268.982517
1730.676034	9227.712587
1732.509894	9190.092308
1734.343360	9166.064336
1736.172881	9145.117483
1738.005560	9123.815385
1739.834295	9120.581119
1741.666187	9114.367133
1743.494137	9111.434266
1745.321696	9105.824476
1747.148862	9106.867133
1748.975637	9106.853147
1750.802020	9100.599301
1752.624467	9092.952448
1754.450069	9087.388112
1756.271736	9103.923077
1758.094785	9103.783217
1759.915672	9089.317483
1761.736171	9085.317483
1763.558051	9077.937063
1765.374231	9086.668531
1767.193563	9077.006294
1769.008968	9089.523077
1770.827523	9090.093007
1772.642153	9079.370629
1774.456396	9078.126573
1776.270253	9079.507692
1778.083723	9084.563636
1779.895040	9069.139860
1781.707737	9060.908392
1783.520049	9062.962238
1785.328443	9068.762238
1787.138217	9083.451748
1788.944077	9082.379720
1790.753082	9090.090210
1792.558174	9081.427972
1794.364647	9083.325874
1796.170736	9092.455245
1797.972914	9096.677622
1799.778237	9094.932168
1801.579651	9087.986713
1803.382445	9106.688112
1805.181333	9108.810490
1806.981602	9109.385315
1808.781489	9106.642657
1810.579234	9103.495804
1812.376599	9087.128671
1814.173584	9091.828671
1815.970188	9101.384615
1817.764653	9095.981818
1819.560497	9099.780420
1821.350686	9085.893007
1823.145772	9088.060839
1824.935206	9089.422378
1826.727776	9089.702098
1828.518211	9094.334965
1830.306512	9093.460140
1832.097948	9096.483916
1833.883738	9100.423776
1835.670908	9123.820979
1837.455946	9120.973427
1839.244118	9107.046853
1841.028404	9114.941958
1842.810560	9107.183916
1844.594096	9107.293007
1846.375503	9094.237762
1848.158289	9097.837762
1849.937194	9076.844755
1851.717479	9065.552448
1853.495637	9064.664336
1855.275174	9061.429371
1857.052586	9059.138462
1858.827874	9038.223776
1860.604540	9032.294406
1862.379084	9035.626573
1864.155006	9031.033566
1865.925307	9029.246154
1867.698736	9019.555245
1869.470045	9019.337762
1871.240983	9009.012587
1873.013299	9018.949650
1874.780001	9022.737063
1876.549829	9012.976923
1878.315793	9012.432867
1880.084880	9011.723077
1881.850106	9011.141958
1883.614964	8990.690210
1885.381199	8980.748951
1887.143575	8961.370629
1888.905584	8953.293007
1890.667225	8945.151748
1892.428500	8925.317483
1894.189407	8922.491608
1895.949948	8906.679720
1897.708379	8900.603497
1899.466444	8895.290210
1901.222402	8912.281818
1902.979736	8917.490909
1904.736705	8915.776224
1906.491567	8927.485315
1908.244325	8906.699301
1909.996718	8916.281119
1911.750488	8902.732168
1913.502154	8881.653846
1915.251718	8875.567832
1917.002657	8867.276224
1918.753234	8853.113986
1920.499971	8837.924476
1922.248085	8849.706993
1923.994099	8840.046853
1925.741488	8832.462937
1927.486780	8826.801399
1929.229974	8807.630070
1930.974543	8810.363636
1932.717017	8799.346154
1934.459130	8805.186713
1936.200883	8818.529021
1937.942276	8829.055944
1939.681576	8833.779371
1941.420517	8849.339161
1943.159099	8862.004545
1944.895590	8868.309790
1946.631723	8885.924126
1948.369230	8888.295105
1950.102915	8902.105245
1951.837975	8919.813287
1953.570946	8931.571678
1955.303561	8959.869930
1957.035820	8962.349301
1958.767722	8967.432168
1960.497538	8958.758741
1962.225269	8949.762238
1963.954375	8941.147552
1965.683126	8935.946154
1967.409793	8909.656643
1969.136106	8887.984615
1970.863792	8882.483916
1972.585942	8877.787413
1974.311193	8875.771329
1976.032637	8877.635664
1977.757182	8870.790210
1979.479646	8878.174126
1981.198308	8864.372727
1982.920068	8871.955944
1984.638026	8880.155944
1986.357357	8893.902098
1988.072889	8884.208392
1989.793241	8892.181818
1991.509795	8887.411189
1993.222552	8903.848951
1994.938405	8913.771329
1996.652186	8923.465035
1998.365617	8938.608392
2000.076977	8958.325175
2001.789709	8960.969231
2003.498651	8988.991608
2005.210685	9013.001399
2006.917211	9040.231469
2008.626828	9043.208392
2010.334379	9051.355944
2012.041581	9069.524476
2013.746718	9088.561538
2015.451509	9087.544755
2017.157671	9089.324476
2018.860051	9089.476224
2020.563802	9088.273427
2022.265491	9078.989510
2023.966835	9094.445455
2025.667833	9096.117483
2027.366770	9105.123776
2029.067079	9109.304196
2030.763613	9123.833566
2032.461518	9135.676923
2034.157364	9129.298601
2035.856296	9118.558741
2037.549742	9115.353846
2039.244559	9109.597203
2040.939034	9112.083916
2042.629740	9113.198601
2044.323530	9114.532168
2046.013553	9099.209091
2047.704947	9081.195105
2049.394288	9051.404196
2051.084999	9021.346154
2052.771947	8981.729371
2054.458556	8947.125874
2056.146534	8904.073427
2057.830753	8866.000000
2059.516343	8836.916084
2061.201593	8800.162238
2062.884794	8771.710490
2064.569366	8747.261538
2066.248475	8725.630070
2067.932369	8711.537063
2069.610802	8711.090909
2071.292313	8717.412587
2072.970072	8741.359441
2074.647495	8756.544056
2076.326287	8764.255944
2078.003037	8768.465035
2079.677745	8760.186713
2081.353822	8748.256643
2083.027859	8750.109091
2084.701560	8743.445455
2086.374926	8748.625175
2088.046253	8750.106294
2089.717246	8754.936364
2091.387905	8753.837762
2093.058230	8768.305594
2094.728221	8768.458042
2096.396176	8783.539161
2098.063798	8798.610490
2099.729385	8824.049650
2101.396341	8860.234965
2103.061264	8892.913287
2104.725855	8922.636364
2106.388414	8955.501399
2108.052341	8966.950350
2109.714237	8971.051049
2111.375803	8977.369231
2113.037037	8975.981119
2114.696243	8967.265035
2116.355118	8973.327273
2118.013664	8973.625874
2119.671880	8985.825175
2121.326372	8994.220979
2122.983929	9016.879720
2124.641157	9013.381818
2126.294663	9012.065035
2127.949537	9000.672727
2129.600692	8979.826573
2131.254910	8978.813986
2132.905411	8979.594406
2134.557278	8984.047552
2136.203737	8994.417483
2137.854951	9008.909790
2139.502451	9023.200000
2141.151318	9042.501399
2142.798166	9049.225175
2144.444689	9032.084615
2146.090886	9018.012587
2147.733375	8982.968531
2149.378922	8961.225874
2151.020762	8949.735664
2152.665659	8947.251049
2154.306850	8925.478322
2155.947719	8902.556643
2157.588263	8892.476923
2159.226795	8865.503497
2160.866693	8849.800000
2162.502891	8822.767832
2164.140455	8797.211189
2165.777697	8784.038462
2167.412929	8768.232867
2169.047840	8775.056643
2170.682428	8773.411189
2172.316696	8779.341259
2173.947270	8771.592308
2175.580896	8764.120979
2177.210830	8768.290909
2178.842129	8744.741259
2180.471423	8737.388112
2182.100398	8726.818182
2183.729053	8725.880420
2185.357389	8728.063636
2186.983723	8717.177622
2188.609738	8716.319580
2190.233751	8719.301399
2191.859130	8717.602098
2193.482508	8719.316783
2195.107251	8717.467832
2196.728313	8713.153846
2198.349058	8698.599301
2199.971168	8714.788811
2201.591280	8719.272727
2203.209395	8724.298601
2204.827195	8728.829371
2206.444680	8736.137762
2208.061849	8747.409790
2209.678703	8761.630769
2211.295241	8757.434965
2212.909787	8751.727273
2214.522340	8745.418182
2216.136257	8724.464336
2217.748183	8702.473427
2219.361472	8695.295804
2220.972771	8673.625874
2222.582080	8654.225175
2224.192753	8638.354545
2225.801437	8634.071329
2227.409808	8627.562238
2229.016193	8625.100699
2230.623941	8609.178322
2232.229702	8607.676224
2233.835152	8605.383916
2235.438617	8591.112587
2237.043445	8585.790909
2238.646289	8597.365035
2240.247150	8608.083217
2241.849374	8621.695804
2243.449616	8635.188811
2245.051220	8659.246154
2246.649171	8677.250350
2248.248485	8697.433566
2249.845819	8707.251049
2251.442845	8725.658741
2253.041233	8723.310490
2254.635972	8728.452448
2256.228734	8730.303497
2257.822859	8733.463636
2259.418345	8736.178322
2261.010186	8739.602098
2262.601721	8734.969930
2264.194618	8742.655245
2265.782205	8758.050350
2267.374488	8763.700000
2268.961465	8754.276923
2270.551469	8752.665734
2272.136169	8737.274825
2273.725563	8730.955944
2275.309655	8709.279021
2276.895107	8679.269930
2278.478591	8650.736364
2280.065100	8619.797902
2281.647976	8596.416783
2283.230549	8582.126573
2284.812818	8563.113287
2286.391457	8524.392308
2287.973121	8479.676224
2289.551156	8457.739161
2291.132214	8421.592308
2292.709645	8395.731469
2294.285113	8366.788112
2295.863603	8343.457343
2297.438469	8327.606294
2299.013034	8307.639860
2300.587299	8295.662937
2302.161263	8276.390909
2303.734926	8251.310490
2305.308290	8216.000000
2306.878035	8186.442657
2308.447481	8178.656643
2310.019945	8165.172028
2311.587135	8160.498601
2313.157343	8168.100000
2314.723936	8174.883916
2316.291889	8187.472028
2317.857886	8206.795105
2319.423586	8232.770629
2320.988988	8247.483916
2322.552437	8264.092308
2324.117245	8285.605594
2325.678445	8296.973427
2327.242659	8318.089510
2328.801611	8331.623776
2330.363578	8335.102098
2331.923593	8335.490210
2333.483314	8341.322378
2335.041085	8344.302098
2336.598561	8353.795105
2338.155743	8358.267832
2339.710977	8357.548252
2341.265918	8363.671329
2342.820564	8360.358741
2344.374917	8364.771329
2345.928977	8378.034965
2347.482742	8384.755944
2349.034564	8382.349650
2350.584442	8378.074825
2352.137328	8382.089510
2353.684972	8361.418881
2355.235623	8351.190909
2356.782683	8339.413986
2358.331101	8323.946853
2359.879228	8301.049650
2361.423766	8291.732867
2362.969662	8289.204895
2364.513620	8289.872727
2366.058935	8287.867133
2367.600665	8279.424476
2369.143752	8271.762937
2370.684903	8260.779021
2372.225765	8235.197902
2373.766338	8223.846154
2375.306622	8209.338462
2376.846617	8192.763636
2378.383034	8177.779021
2379.922452	8173.376224
2381.458293	8160.376923
2382.995490	8173.428671
2384.529112	8178.735664
2386.065734	8174.579720
2387.600426	8185.559441
2389.133188	8190.401399
2390.665663	8199.744755
2392.196210	8197.070629
2393.729755	8204.753147
2395.258089	8203.321678
2396.787780	8206.151049
2398.317184	8213.360140
2399.846304	8222.094406
2401.375139	8239.717483
2402.898768	8244.455944
2404.427033	8244.516084
2405.950096	8246.951748
2407.477792	8241.306993
2408.998649	8239.754545
2410.524139	8221.835664
2412.046068	8224.571329
2413.569353	8222.290909
2415.090716	8235.752448
2416.610160	8242.241259
2418.130959	8240.839860
2419.649840	8242.215385
2421.168438	8246.998601
2422.685119	8259.840559
2424.203154	8252.702797
2425.720908	8253.814685
2427.235111	8258.006993
2428.749033	8268.046853
2430.262675	8278.636364
2431.777672	8277.479720
2433.289120	8281.258741
2434.801923	8264.704895
2436.312812	8244.893706
2437.823423	8216.101399
2439.332122	8215.604196
2440.843807	8197.969930
2442.351949	8181.777622
2443.859813	8174.286713
2445.367399	8168.069231
2446.871444	8173.722378
2448.378474	8168.076923
2449.883597	8145.658741
2451.388441	8132.839161
2452.891379	8109.420979
2454.394041	8082.783217
2455.896426	8044.111189
2457.396906	8029.749650
2458.898739	8010.375524
2460.398667	8000.837063
2461.898320	7987.194406
2463.397698	7973.184615
2464.895173	7972.239161
2466.390746	7968.381818
2467.889299	7963.994406
2469.384324	7947.831469
2470.880701	7949.402098
2472.373552	7951.130769
2473.867756	7960.455245
2475.361686	7977.102098
2476.852092	8000.909091
2478.345476	8005.856643
2479.836962	8013.988112
2481.326551	8008.939161
2482.815868	8005.967133
2484.303289	7993.676923
2485.793686	7973.254545
2487.280565	7955.133566
2488.768795	7955.134965
2490.253508	7951.825874
2491.737952	7959.148951
2493.223746	7953.101399
2494.707649	7960.938462
2496.192902	7954.048951
2497.673022	7953.597902
2499.156115	7945.178322
2500.637317	7943.654545
2502.118250	7944.843357
2503.597294	7948.859441
2505.076069	7952.707692
2506.554576	7933.934266
2508.032815	7929.012587
2509.510785	7915.175524
2510.985250	7894.469231
2512.462685	7890.613287
2513.936616	7877.313287
2515.411897	7871.921678
2516.886911	7882.089510
2518.358425	7892.334965
2519.831288	7906.796503
2521.302269	7904.809091
2522.774600	7898.013986
2524.241817	7881.234965
2525.712001	7871.740559
2527.180304	7853.148951
2528.648342	7840.906294
2530.116115	7842.773427
2531.583623	7831.790210
2533.050866	7825.903497
2534.514617	7842.012587
2535.979718	7849.176224
2537.442942	7844.669231
2538.907516	7846.945455
2540.368600	7857.511888
2541.831034	7875.024476
2543.293205	7882.111888
2544.751890	7905.663636
2546.215147	7919.300699
2547.673307	7940.143357
2549.132816	7947.734266
2550.587231	7948.214685
2552.046217	7952.502098
2553.503331	7938.997902
2554.958574	7918.650350
2556.413555	7908.291608
2557.866668	7903.437063
2559.321129	7903.981119
2560.773720	7883.946154
2562.226052	7886.830070
2563.676517	7879.869930
2565.129937	7887.279720
2566.578275	7896.686014
2568.029569	7903.688112
2569.478996	7904.510490
2570.924951	7899.046154
2572.373861	7894.967133
2573.819301	7886.864336
2575.266088	7888.211888
2576.711013	7877.104196
2578.155679	7855.686713
2579.601693	7845.456643
2581.044241	7822.166434
2582.488136	7816.309790
2583.928566	7819.653147
2585.370343	7810.862238
2586.810261	7803.138462
2588.251526	7802.746154
2589.689329	7812.527972
2591.130082	7807.339161
2592.565773	7818.390909
2594.004413	7813.727273
2595.441195	7809.223776
2596.876122	7812.649650
2598.313996	7796.286014
2599.746813	7791.555245
2601.180977	7762.674825
2602.613287	7737.520979
2604.046943	7717.279720
2605.478746	7702.332867
2606.910295	7693.106294
2608.341592	7671.332867
2609.771036	7666.376923
2611.200228	7658.738462
2612.627570	7666.962238
2614.056257	7676.838462
2615.484693	7683.078322
2616.909681	7682.894406
2618.336016	7657.942657
2619.760502	7660.079021
2621.186334	7635.381119
2622.608722	7625.263636
2624.032456	7614.720979
2625.454343	7598.309790
2626.875981	7595.057343
2628.295773	7582.002797
2629.716911	7586.711888
2631.137799	7587.850350
2632.555249	7602.171329
2633.975638	7595.412587
2635.392590	7574.339161
2636.809293	7575.825874
2638.225748	7563.071329
2639.641955	7549.791608
2641.057914	7534.734266
2642.472032	7508.240559
2643.885902	7489.750350
2645.297934	7458.548252
2646.711309	7442.740559
2648.121255	7433.845455
2649.534137	7433.213986
2650.943590	7427.315385
2652.352797	7421.895804
2653.760168	7439.734965
2655.170473	7458.590909
2656.578943	7454.169231
2657.985577	7469.801399
2659.391966	7465.544755
2660.796521	7468.506294
2662.202420	7463.090909
2663.606486	7468.118881
2665.010307	7476.212587
2666.413884	7477.952448
2667.815630	7483.753846
2669.218719	7498.167133
2670.618390	7502.276224
2672.019405	7516.369231
2673.417004	7503.184615
2674.817533	7498.546853
2676.214646	7477.200000
2677.613103	7459.787413
2679.009733	7440.434965
2680.406120	7422.491608
2681.802265	7402.755245
2683.196585	7397.512587
2684.592246	7395.182517
2685.984499	7416.621678
2687.378094	7418.926573
2688.769865	7427.334266
2690.162979	7418.507692
2691.554269	7414.302797
2692.943736	7400.840559
2694.332963	7388.876923
2695.721951	7379.478322
2697.112280	7360.785315
2698.497626	7361.313287
2699.885895	7367.988811
2701.272344	7362.023077
2702.658554	7374.493007
2704.044525	7351.909790
2705.427098	7337.187413
2706.811013	7331.686713
2708.194690	7325.385315
2709.578128	7317.102098
2710.958172	7317.215385
2712.339556	7320.286713
2713.719126	7319.309091
2715.100036	7331.398601
2716.479132	7341.524476
2717.856414	7343.938462
2719.235037	7353.043357
2720.611847	7346.234266
2721.988420	7341.237063
2723.364758	7338.759441
2724.739285	7325.116783
2726.115152	7312.575524
2727.487632	7292.524476
2728.863028	7275.983217
2730.233464	7260.350350
2731.605241	7257.474126
2732.976783	7250.552448
2734.346517	7262.252448
2735.717592	7270.436364
2737.086858	7269.360140
2738.455891	7263.596503
2739.823118	7271.461538
2741.190112	7258.470629
2742.556872	7259.669231
2743.923401	7253.803497
2745.288124	7239.225175
2746.652615	7235.095804
2748.016875	7239.751049
2749.380902	7223.410490
2750.744698	7220.176923
2752.105120	7199.117483
2753.468452	7173.735664
2754.826842	7159.809091
2756.188142	7139.612587
2757.546072	7112.653846
2758.906910	7106.863636
2760.265949	7081.276224
2761.621619	7053.320280
2762.980197	7046.263636
2764.335408	7046.374825
2765.690390	7030.659441
2767.043576	7020.832867
2768.399668	7009.094406
2769.752395	7006.916084
2771.104895	6997.982517
2772.457166	6984.097902
2773.810776	6988.163636
2775.161024	6985.830070
2776.509478	6977.253846
2777.860838	6966.365734
2779.208838	6964.597203
2780.558176	6956.366434
2781.905722	6939.300000
2783.253042	6920.548951
2784.600135	6897.540559
2785.945437	6879.672727
2787.290512	6851.135664
2788.635362	6843.349650
2789.979986	6852.188811
2791.321258	6847.002098
2792.663868	6847.095804
2794.006252	6858.765734
2795.348411	6875.404196
2796.687221	6888.587413
2798.028931	6907.124476
2799.367293	6924.616084
2800.706991	6928.739161
2802.044905	6943.249650
2803.381034	6950.567133
2804.716939	6958.577622
2806.054182	6962.432168
2807.389641	6962.164336
2808.724877	6946.353846
2810.058330	6958.062238
2811.393120	6960.971329
2812.724570	6958.898601
2814.058915	6966.903497
2815.388362	6961.888811
2816.719146	6960.991608
2818.049708	6961.576923
2819.378491	6955.456643
2820.708610	6945.852448
2822.036951	6944.650350
2823.365071	6945.996503
2824.691413	6934.580420
2826.019092	6948.407692
2827.343437	6942.834965
2828.669119	6932.118182
2829.993025	6931.760839
2831.316712	6921.083217
2832.641734	6913.807692
2833.963426	6904.399301
2835.284900	6891.436364
2836.606155	6888.683916
2837.927191	6874.838462
2839.246454	6870.174126
2840.567053	6856.672028
2841.885881	6843.673427
2843.204490	6809.317483
2844.521328	6782.737063
2845.837949	6761.475524
2847.154353	6765.084615
2848.468987	6763.990909
2849.784957	6763.581119
2851.097606	6763.030769
2852.411590	6781.430769
2853.725358	6774.537063
2855.038909	6775.602098
2856.350694	6765.360839
2857.660712	6752.137762
2858.972065	6729.902098
2860.280103	6710.493007
2861.589475	6694.820280
2862.898633	6704.479021
2864.207575	6694.465734
2865.514753	6694.293007
2866.820169	6690.823077
2868.126919	6695.879021
2869.431906	6679.422378
2870.736680	6675.872727
2872.039692	6676.693706
2873.345585	6666.712587
2874.646624	6668.387413
2875.948997	6656.609091
2877.249610	6656.041958
2878.551557	6653.063636
2879.853290	6641.163636
2881.151720	6639.062238
2882.451483	6611.763636
2883.749489	6588.873427
2885.047283	6563.842657
2886.343321	6556.748951
2887.640692	6545.177622
2888.936307	6522.793706
2890.231711	6515.979720
2891.526904	6500.698601
2892.818800	6491.346853
2894.113572	6468.458741
2895.405047	6455.544755
2896.697855	6455.221678
2897.990453	6436.675524
2899.279757	6431.305594
2900.570393	6432.932867
2901.859278	6445.434266
2903.149495	6452.388112
2904.436421	6444.238462
2905.724679	6450.593007
2907.011188	6455.862238
2908.297489	6450.669930
2909.583581	6435.841259
2910.867925	6435.969231
2912.155140	6433.467832
2913.437529	6424.488811
2914.721250	6416.042657
2916.003225	6420.693706
2917.284992	6419.558042
2918.565015	6415.175524
2919.847907	6416.944755
2921.129054	6423.633566
2922.406919	6431.319580
2923.687653	6417.893007
2924.965106	6410.990909
2926.242353	6403.617483
2927.517858	6393.142657
2928.796231	6384.685315
2930.069790	6369.235664
2931.346216	6361.708392
2932.620901	6343.982517
2933.893845	6335.163636
2935.168121	6335.023776
2936.440657	6326.697902
2937.712988	6322.279021
2938.982047	6308.093706
2940.253971	6302.876224
2941.524157	6285.965734
2942.794139	6270.981119
2944.063918	6256.040559
2945.331961	6250.927972
2946.598267	6244.270629
2947.864372	6242.090210
2949.131806	6239.390909
2950.397506	6234.819580
2951.663003	6242.018881
2952.928298	6224.025874
2954.190328	6210.751748
2955.453688	6196.204895
2956.716847	6183.720280
2957.978274	6176.927273
2959.241030	6182.041958
2960.502054	6180.358741
2961.761348	6169.690909
2963.020442	6168.302797
2964.279335	6159.483916
2965.538028	6156.572727
2966.796521	6165.695804
2968.053285	6127.044056
2969.309849	6122.818881
2970.564686	6118.028671
2971.820851	6110.963636
2973.073762	6109.658741
2974.328002	6103.635664
2975.582043	6074.206294
2976.834358	6055.127972
2978.086474	6057.362937
2979.336866	6056.418881
2980.590113	6057.079720
2981.838583	6057.569231
2983.089908	6039.619580
2984.337983	6044.460140
2985.585862	6035.900000
2986.833543	6021.454545
2988.081027	6021.406294
2989.326790	6010.347552
2990.572357	5998.530769
2991.819251	5989.629371
2993.062901	5985.672028
2994.307879	5990.646853
2995.549613	5991.993706
2996.794199	5990.807692
2998.037066	5999.162238
2999.276692	6001.865734
3000.519168	6007.277622
3001.758404	6003.520979
3002.998968	6021.122378
3004.237816	6022.914685
3005.476468	6025.921678
3006.713406	6027.902797
3007.951670	6026.834266
3009.188219	6038.620979
3010.424575	6049.476224
3011.660737	6045.631469
3012.895185	6051.711189
3014.129441	6044.849650
3015.363503	6030.723776
3016.595853	6022.823077
3017.826491	6020.624476
3019.059975	6014.404196
3020.291747	6012.573427
3021.521809	6024.888811
3022.751679	6032.607692
3023.979839	6046.368531
3025.209325	6055.802098
3026.437102	6058.893706
3027.664688	6057.872727
3028.893601	6054.538462
3030.117771	6042.624476
3031.344784	6047.688112
3032.568573	6041.449650
3033.793689	6042.951748
3035.017098	6042.565734
3036.240317	6044.656643
3037.461831	6045.328671
3038.686186	6046.606294
3039.905806	6041.702797
3041.126752	6033.253846
3042.347509	6017.871329
3043.566562	6021.347552
3044.786940	6010.362238
3046.004102	6010.114685
3047.222590	6002.189510
3048.439375	5995.327972
3049.655973	5996.058042
3050.872382	5988.980420
3052.085579	5976.853147
3053.301613	5961.485315
3054.514435	5945.456643
3055.730094	5916.176224
3056.941030	5902.562937
3058.153291	5890.143357
3059.365366	5873.693007
3060.577253	5859.648252
3061.787444	5844.146154
3062.997448	5835.296853
3064.207266	5834.216084
3065.415388	5819.846503
3066.623325	5802.716084
3067.829566	5788.416434
3069.037132	5767.458042
3070.243003	5755.619930
3071.448690	5759.652448
3072.654191	5755.763986
3073.857999	5755.862937
3075.063131	5743.652797
3076.266570	5733.990909
3077.468318	5733.361888
3078.669881	5719.456643
3079.871261	5700.251748
3081.072457	5685.730769
3082.271963	5667.693007
3083.471286	5646.355944
3084.671932	5644.501399
3085.870888	5636.129371
3087.066650	5622.900000
3088.265241	5609.625175
3089.460638	5595.293007
3090.657358	5595.601399
3091.850886	5593.498601
3093.047242	5593.346154
3094.241912	5594.924476
3095.433391	5602.113287
3096.629201	5596.857343
3097.820318	5591.476224
3099.012757	5588.600699
3100.202009	5590.739161
3101.394086	5589.853147
3102.584480	5585.118881
3103.771688	5577.739161
3104.960219	5572.920979
3106.150071	5565.748252
3107.336740	5556.841259
3108.523228	5555.140559
3109.709538	5546.674825
3110.897169	5523.199301
3112.081618	5508.426573
3113.264388	5500.225874
3114.449980	5495.691608
3115.633893	5483.182517
3116.816127	5463.967133
3117.998182	5456.469930
3119.180059	5446.881119
3120.361758	5432.848252
3121.541780	5420.500000
3122.720125	5430.193007
3123.901290	5414.498601
3125.079280	5402.676923
3126.257094	5405.206294
3127.434730	5400.083916
3128.610691	5388.834266
3129.786475	5380.094406
3130.963581	5372.762937
3132.139012	5367.168531
3133.312770	5365.935664
3134.484855	5362.199301
3135.658262	5365.032867
3136.831492	5375.873427
3138.003051	5374.686014
3139.175930	5374.937762
3140.345642	5381.654545
3141.516675	5373.118881
3142.686038	5363.654545
3143.853730	5354.598601
3145.024238	5344.175524
3146.190088	5327.017483
3147.360246	5322.266434
3148.525748	5318.151748
3149.691075	5309.829371
3150.856229	5313.299301
3152.021210	5314.845455
3153.187510	5304.710490
3154.349158	5300.165734
3155.512125	5286.887413
3156.674920	5262.193706
3157.837542	5230.782517
3158.998499	5216.697203
3160.159283	5193.679021
3161.319895	5176.204196
3162.478843	5158.359441
3163.637620	5147.367832
3164.796225	5140.474825
3165.954657	5135.509790
3167.112919	5132.173427
3168.269518	5132.476224
3169.424456	5117.332168
3170.580713	5109.320979
3171.735309	5099.208392
3172.889735	5105.046853
3174.042501	5092.065035
3175.195096	5094.024476
3176.347522	5085.640559
3177.499778	5087.620979
3178.651863	5082.702797
3179.800803	5073.800699
3180.952549	5084.792308
3182.102637	5082.842657
3183.251069	5085.027273
3184.399331	5101.020979
3185.547425	5110.042657
3186.695350	5136.344755
3187.841619	5146.401399
3188.987720	5156.188112
3190.132167	5160.724476
3191.276446	5171.228671
3192.420557	5168.905594
3193.565985	5165.218182
3194.708275	5160.051049
3195.850398	5141.469231
3196.992353	5133.653147
3198.134141	5122.318881
3199.275762	5123.877622
3200.414248	5124.336364
3201.554051	5116.406993
3202.695172	5100.143357
3203.833158	5093.872028
3204.969495	5082.722378
3206.105666	5072.776224
3207.243154	5059.991608
3208.378994	5048.251049
3209.516151	5026.500000
3210.648695	5021.185315
3211.785521	5015.169231
3212.917735	5002.561538
3214.051266	4999.377622
3215.184633	4990.328671
3216.314872	4971.185315
3217.447909	4952.948951
3218.577820	4935.159441
3219.709047	4913.908392
3220.837150	4893.004196
3221.968049	4888.274825
3223.097304	4874.897203
3224.224916	4883.866434
3225.349405	4884.200699
3226.478170	4880.694406
3227.603813	4892.174825
3228.729294	4899.369930
3229.853133	4910.397902
3230.979766	4917.001399
3232.101802	4920.529371
3233.225154	4909.325175
3234.348344	4906.639860
3235.471372	4914.251748
3236.592760	4911.306993
3237.713986	4917.311189
3238.833575	4916.389510
3239.953002	4912.378322
3241.070791	4921.998601
3242.191372	4936.176224
3243.308840	4947.229371
3244.426147	4960.960140
3245.543294	4978.548951
3246.658805	4980.946853
3247.775630	4992.706294
3248.889346	5006.913287
3250.005851	5000.474126
3251.120722	5000.407692
3252.232484	4999.757343
3253.344086	4984.825874
3254.457004	4975.374825
3255.569762	4959.883217
3256.679414	4942.724476
3257.790381	4928.547552
3258.901189	4916.392308
3260.010365	4897.114685
3261.117911	4894.425175
3262.226770	4890.252448
3263.335472	4883.476224
3264.441071	4889.922378
3265.547984	4900.390909
3266.653268	4894.907692
3267.759866	4893.118182
3268.863364	4892.713287
3269.968177	4888.178322
3271.072832	4870.750350
3272.174388	4857.018881
3273.275788	4847.054545
3274.378502	4826.232168
3275.481060	4808.423776
3276.580521	4800.590909
3277.682766	4788.647552
3278.781915	4784.298601
3279.879440	4770.423077
3280.976809	4768.732168
3282.076960	4755.818182
3283.174019	4739.495105
3284.270922	4725.946154
3285.367670	4714.235664
3286.459860	4696.246853
3287.556298	4679.067832
3288.651114	4666.816783
3289.745776	4668.560839
3290.838816	4658.131469
3291.931701	4652.544056
3293.022967	4637.257343
3294.115544	4631.851049
3295.206502	4615.376923
3296.295840	4606.694406
3297.385025	4604.355245
3298.475523	4591.519580
3299.562936	4586.544056
3300.650196	4591.960140
3301.738769	4581.158741
3302.827190	4586.975524
3303.911063	4581.389510
3304.999178	4577.862238
3306.084211	4570.406993
3307.167629	4572.273427
3308.252359	4561.161538
3309.335473	4563.346154
3310.419900	4557.274126
3311.501248	4559.704895
3312.583908	4563.759441
3313.664954	4568.532168
3314.745849	4559.654545
3315.825130	4563.177622
3316.904261	4565.568531
3317.984704	4554.637063
3319.062072	4548.114685
3320.140752	4549.413287
3321.217820	4535.127273
3322.294739	4539.865734
3323.370046	4535.201399
3324.445204	4541.214685
3325.521673	4545.083217
3326.595072	4553.286014
3327.668322	4547.962937
3328.742882	4555.374825
3329.815834	4553.606993
3330.887177	4540.941259
3331.959831	4540.435664
3333.029419	4534.876224
3334.100317	4527.213986
3335.169608	4521.604895
3336.240210	4507.492308
3337.309205	4488.554545
3338.376594	4474.740559
3339.442378	4462.784615
3340.512388	4440.672028
3341.579335	4426.020280
3342.643220	4407.087413
3343.709873	4402.149650
3344.774921	4396.023776
3345.838366	4393.581818
3346.901665	4397.402797
3347.964817	4398.764336
3349.027823	4387.627972
3350.090683	4382.332168
3351.151941	4373.102797
3352.210142	4353.150350
3353.272563	4337.833566
3354.331929	4325.469231
3355.391149	4315.760839
3356.451679	4309.658042
3357.507699	4298.323776
3358.566483	4300.116084
3359.620760	4303.601399
3360.677801	4307.659441
3361.733243	4304.700000
3362.789995	4316.165035
3363.845148	4319.456643
3364.898704	4324.278322
3365.950664	4340.472727
3367.005385	4350.330769
3368.057057	4357.303497
3369.108586	4357.723776
3370.161423	4347.838462
3371.211213	4347.062238
3372.262312	4339.214685
3373.310365	4338.803497
3374.361177	4326.158741
3375.408945	4327.508392
3376.456570	4325.646154
3377.504052	4324.444755
3378.549942	4321.436364
3379.597140	4318.974126
3380.641296	4321.530769
3381.688210	4316.854545
3382.733532	4304.386014
3383.775813	4307.212587
3384.817954	4308.062937
3385.861402	4312.099301
3386.904709	4304.772727
3387.946427	4306.621678
3388.988003	4307.018881
3390.029438	4315.413986
3391.069285	4317.263636
3392.107543	4321.996503
3393.147109	4335.723776
3394.186535	4342.839860
3395.224373	4347.136364
3396.260624	4359.309091
3397.296736	4359.926573
3398.334155	4348.546853
3399.368541	4333.620979
3400.404234	4324.202098
3401.439788	4316.748252
3402.472311	4315.004895
3403.507587	4303.054545
3404.539832	4295.809790
3405.571939	4293.738462
3406.602462	4292.228671
3407.634292	4291.462238
3408.665984	4292.759441
3409.694648	4293.949650
3410.723175	4286.155944
3411.753008	4278.723077
3412.782704	4280.537762
3413.809374	4280.418881
3414.837351	4277.851748
3415.862303	4265.415385
3416.890005	4263.874126
3417.914684	4252.993706
3418.940669	4239.855245
3419.965074	4224.386713
3420.989343	4204.941958
3422.012033	4193.920979
3423.034587	4180.790210
3424.058447	4171.263636
3425.079287	4161.196503
3426.099991	4153.859640
3427.122002	4147.241209
3428.140994	4141.018482
3429.159850	4134.868731
3430.180013	4128.469231
3431.197159	4121.497253
