-118.059454	21.907143
-115.389854	14.836264
-112.723189	10.931069
-110.057276	9.592607
-107.394295	10.221928
-104.729885	12.220080
-102.068405	14.988112
-99.405496	18.171329
-96.747693	17.429371
-94.088461	18.865734
-91.429977	20.210490
-88.774417	20.347552
-86.117429	18.779720
-83.465539	17.450350
-80.812218	18.481119
-78.161818	18.318881
-75.509988	18.372028
-72.863249	20.200699
-70.215081	19.849650
-67.567655	20.396503
-64.923143	21.370629
-62.277203	22.316084
-59.636344	24.366434
-56.994056	21.858741
-54.354677	23.181119
-51.713868	24.074825
-49.073800	25.309091
-46.438804	24.204895
-43.802380	23.704196
-41.168858	25.493007
-38.533908	25.533566
-35.904023	28.730070
-33.270546	29.556643
-30.642131	28.973427
-28.014450	28.870629
-25.385340	23.875524
-22.761287	-9.477622
-20.133645	-121.518881
-17.511056	-343.958042
-14.889199	-238.730070
-12.268072	549.533566
-9.647675	1702.597203
-7.030167	2632.386713
-4.411230	3264.766434
-1.795178	3591.358741
0.820145	3614.304196
3.434741	3338.013287
6.046454	2766.036364
8.659596	1915.688112
11.267704	878.102797
13.879394	-100.226573
16.486053	-487.292308
19.094140	-276.057343
21.701503	1.766434
24.303841	34.523776
26.909757	33.429371
29.510651	34.192308
32.112973	32.516783
34.710278	33.670629
37.311158	35.380420
39.907023	36.892308
42.504317	37.346853
45.100891	32.090210
47.692456	32.406294
50.285449	31.913986
52.875581	31.292308
55.467141	29.469231
58.055841	28.346154
60.645968	30.611888
63.231096	30.932867
65.817652	35.028671
68.403494	39.218881
70.986482	40.267133
73.570896	40.105594
76.148182	37.540559
78.729034	36.508392
81.307037	35.350350
83.884330	32.676224
86.463049	32.969930
89.036786	33.961538
91.611951	34.169930
94.184272	37.622378
96.755885	43.639860
99.324658	46.451748
101.894858	50.571329
104.462220	56.212587
107.031007	58.915385
109.596958	66.227972
112.160074	75.186014
114.726746	87.014685
117.284197	107.673427
119.847333	141.067133
122.405509	199.784615
124.967240	306.950350
127.524014	489.836364
130.082215	782.150350
132.635462	1183.682517
135.188012	1694.916084
137.744112	2288.339860
140.295264	2920.937762
142.845719	3543.299301
145.395476	4103.346154
147.942414	4562.618182
150.488657	4899.462937
153.036325	5112.636364
155.583297	5214.437762
158.125334	5240.997902
160.666677	5229.832168
163.207327	5196.606294
165.749403	5162.872727
168.288667	5144.236364
170.825123	5133.158741
173.360887	5121.846853
175.898077	5107.845455
178.434576	5093.241259
180.968269	5077.988112
183.499158	5071.461538
186.029360	5060.748252
188.560986	5052.909790
191.089811	5049.700000
193.615837	5050.916783
196.141177	5050.128671
198.667942	5056.248951
201.191911	5057.509091
203.715195	5054.374126
206.237794	5044.227273
208.757600	5034.039860
211.276723	5024.038462
213.795163	5013.578322
216.315027	5016.515385
218.827890	5022.943357
221.344284	5026.383217
223.859996	5040.088112
226.370818	5052.304196
228.883065	5060.220280
231.392530	5068.047552
233.901316	5077.002797
236.409423	5085.755944
238.918955	5094.502797
241.423606	5105.128671
243.927581	5111.776224
246.432980	5136.993007
248.933504	5146.658042
251.437552	5156.173427
253.934628	5167.719580
256.435228	5177.630769
258.933056	5175.684615
261.430211	5171.209790
263.926693	5173.943357
266.418312	5179.488811
268.913451	5180.461538
271.405823	5186.786713
273.897525	5190.874126
276.386464	5195.634965
278.876827	5193.013287
281.364427	5187.451049
283.849268	5177.466434
286.337624	5169.613287
288.819040	5158.231469
291.303970	5156.069231
293.784055	5161.083217
296.267652	5164.030070
298.746406	5170.641259
301.226584	5177.528671
303.704009	5185.502797
306.180771	5190.830070
308.656870	5192.080420
311.130220	5201.279720
313.602908	5212.000699
316.074935	5220.088112
318.546301	5230.818881
321.014922	5236.434266
323.482885	5249.924476
325.952269	5254.824476
328.416831	5247.234266
330.884897	5240.407692
333.348143	5235.797203
335.810731	5228.744056
338.272663	5223.704196
340.733938	5227.399301
343.192479	5218.577622
345.652442	5200.744755
348.109672	5180.591608
350.566248	5165.792308
353.022170	5148.426573
355.475362	5113.539860
357.929977	5073.805594
360.379790	5040.155944
362.833099	5004.648252
365.281610	4962.156643
367.729469	4925.037762
370.178751	4886.234965
372.623239	4849.393706
375.069149	4820.031469
377.514409	4790.786014
379.956951	4770.776923
382.398845	4740.995804
384.840092	4716.384615
387.278623	4693.720979
389.718576	4665.766434
392.155815	4635.790210
394.590342	4603.518881
397.028357	4583.001399
399.461595	4564.104196
401.896254	4554.834266
404.326141	4548.772028
406.759513	4535.860839
409.188115	4521.502797
411.616075	4508.290210
414.045457	4497.815385
416.470073	4482.723776
418.896111	4467.441259
421.321508	4448.469231
423.746265	4439.061538
426.166264	4436.900000
428.587684	4433.909091
431.006407	4438.958042
433.426551	4443.431469
435.844000	4446.231469
438.262869	4435.719580
440.679045	4440.475524
443.090473	4445.544755
445.505379	4442.888112
447.917594	4444.653147
450.329175	4439.200000
452.740122	4443.925874
455.148383	4446.934965
457.556011	4443.659441
459.963007	4445.162238
462.369372	4437.803497
464.773054	4436.293007
467.176106	4428.865734
469.578528	4429.717483
471.980320	4428.216084
474.379435	4415.726573
476.779969	4411.641958
479.179874	4402.741259
481.575056	4396.829371
483.973705	4386.237762
486.367634	4370.095804
488.760937	4362.389510
491.153614	4350.679720
493.545666	4343.733566
495.939136	4329.660839
498.327894	4318.686014
500.713986	4312.730769
503.101498	4302.003497
505.488387	4301.305594
507.872612	4287.618881
510.258255	4284.665734
512.641237	4279.013986
515.021558	4278.437063
517.403298	4281.783217
519.782379	4283.548951
522.162879	4281.340559
524.540721	4275.462238
526.915908	4267.968531
529.290477	4258.651049
531.666464	4254.158741
534.039799	4243.328671
536.414551	4219.721678
538.784618	4205.611189
541.154069	4181.355944
543.524938	4158.617483
545.891127	4133.145455
548.258734	4111.548951
550.623695	4084.511189
552.988043	4056.760140
555.351778	4022.317483
557.716931	4001.127972
560.077412	3979.981818
562.439311	3958.523077
564.798569	3928.616084
567.155190	3902.125175
569.515255	3878.448951
571.868629	3847.441958
574.225448	3814.521678
576.579632	3780.725874
578.933208	3744.000000
581.286175	3710.111189
583.636510	3679.759441
585.988263	3653.004196
588.333339	3624.776923
590.683879	3607.822378
593.027745	3582.809091
595.377073	3569.461538
597.721752	3564.271329
600.063807	3545.253846
602.407279	3529.953846
604.748128	3511.791608
607.088375	3499.480420
609.426001	3490.621678
611.767062	3481.369930
614.103485	3471.273427
616.441325	3471.268531
618.776548	3468.016783
621.109155	3462.798601
623.443178	3462.874126
625.774587	3468.690210
628.105398	3465.982517
630.435612	3465.166434
632.765227	3464.269930
635.090220	3474.602797
637.420653	3472.235664
639.746466	3479.152448
642.069671	3483.239860
644.394293	3488.132168
646.716309	3487.746853
649.037731	3493.433566
651.356551	3501.723776
653.676786	3516.002797
655.996428	3531.705594
658.313469	3538.254545
660.629918	3552.521678
662.943769	3576.969930
665.259036	3586.867832
667.571706	3608.295804
669.885791	3622.352448
672.195276	3637.346154
674.506177	3654.227273
676.814485	3677.472028
679.122205	3703.479720
681.431339	3726.486713
683.735881	3749.419580
686.039837	3766.125175
688.343207	3788.769231
690.647991	3809.051748
692.948189	3822.974825
695.249801	3841.267133
697.550829	3853.901399
699.847274	3863.874825
702.145135	3883.730769
704.442412	3903.608392
706.739106	3929.634965
709.031224	3947.571329
711.326753	3974.239860
713.617708	3996.507692
715.910078	4023.633566
718.199873	4042.680420
720.489087	4063.697902
722.777722	4081.391608
725.063784	4093.832867
727.351261	4113.582517
729.636166	4136.546853
731.920494	4155.844056
734.202253	4181.166434
736.485426	4202.108392
738.768022	4227.599301
741.046062	4254.615385
743.325517	4287.044755
745.604395	4301.868531
747.882699	4325.411189
750.156453	4346.392308
752.431620	4370.474126
754.706214	4405.948951
756.978249	4431.825175
759.251697	4454.723077
761.522587	4488.627972
763.790921	4508.429371
766.060668	4524.949650
768.327861	4553.225175
770.594483	4573.737762
772.860535	4577.648951
775.124036	4592.911189
777.388950	4607.369930
779.653294	4627.351748
781.913109	4651.787413
784.174336	4670.013986
786.434996	4690.641259
788.693110	4713.150350
790.948679	4719.285315
793.207639	4729.513287
795.460100	4748.884615
797.717927	4761.375524
799.971236	4764.171329
802.222005	4772.025874
804.474186	4775.267832
806.723828	4784.626573
808.974883	4794.558042
811.221426	4807.486713
813.469381	4817.718881
815.714802	4831.951748
817.961634	4843.468531
820.207905	4855.904895
822.449671	4872.829371
824.694821	4890.900699
826.933498	4903.711888
829.175557	4913.598601
831.413118	4928.340559
833.652091	4957.731469
835.888537	4974.212587
838.126394	5001.008392
840.361726	5021.082517
842.594535	5055.765035
844.828755	5083.962238
847.060452	5119.587413
849.291595	5158.160140
851.522183	5200.053846
853.752217	5239.714685
855.981697	5293.605594
858.206695	5346.112587
860.435068	5407.454545
862.658961	5459.344056
864.884266	5528.436364
867.105095	5593.346853
869.329296	5669.252448
871.549024	5738.774126
873.770162	5809.529371
875.990750	5881.786014
878.208829	5942.719580
880.428317	6010.583916
882.643339	6067.346154
884.857814	6107.135664
887.071740	6153.244755
889.285120	6193.162238
891.497952	6234.025874
893.710238	6266.997203
895.920021	6289.940559
898.129259	6294.929371
900.337952	6294.292308
902.544146	6283.689510
904.751749	6258.422378
906.956854	6228.190210
909.161416	6166.920979
911.363483	6104.437762
913.566959	6030.577622
915.767941	5957.404196
917.968381	5879.688112
920.170230	5793.439860
922.365688	5712.671329
924.564505	5612.371329
926.758883	5523.845455
928.956619	5440.827972
931.149919	5362.530070
933.344628	5286.639860
935.536851	5213.730070
937.728535	5161.203497
939.919682	5113.151049
942.108346	5081.015385
944.296474	5050.758042
946.482121	5023.935664
948.671120	5009.948951
950.855696	4987.291608
953.039737	4978.096503
955.227128	4975.332867
957.406215	4986.391608
959.588653	4990.626573
961.770557	4995.151748
963.949986	5007.813287
966.126943	5011.372727
968.305308	5008.838462
970.485080	5000.508392
972.658503	4989.230070
974.835272	4975.772727
977.007634	4946.365035
979.181404	4918.349650
981.350770	4891.605594
983.523480	4876.760140
985.693725	4838.176923
987.863441	4802.254545
990.032628	4770.116084
992.197418	4723.176224
994.365549	4682.805594
996.529286	4652.013986
998.694429	4624.379720
1000.857113	4584.809091
1003.019272	4542.141958
1005.178974	4508.966434
1007.338151	4462.276923
1009.498735	4421.620979
1011.656865	4377.217483
1013.814470	4329.365035
1015.971552	4283.655944
1018.128110	4239.350350
1020.280289	4208.454545
1022.433875	4183.537762
1024.586939	4161.030070
1026.737554	4132.085315
1028.889576	4114.983916
1031.037224	4095.151049
1033.188204	4071.066434
1035.334813	4052.572727
1037.480903	4035.716783
1039.626475	4011.576224
1041.773452	4001.409790
1043.914140	3989.565734
1046.058158	3965.469231
1048.199735	3940.331469
1050.340796	3928.515385
1052.483261	3905.485315
1054.619447	3890.421678
1056.758958	3878.423776
1058.894115	3861.887413
1061.032596	3851.322378
1063.166723	3835.600000
1065.300337	3820.684615
1067.435356	3802.236364
1069.566025	3781.229371
1071.698099	3758.153846
1073.827744	3736.383916
1075.956877	3728.401399
1078.085498	3714.237762
1080.213608	3708.866434
1082.339292	3700.727972
1084.464466	3683.281818
1086.591044	3677.600000
1088.713284	3647.989510
1090.836929	3627.533566
1092.956239	3590.929371
1095.080779	3573.516783
1097.199073	3543.165035
1099.318772	3517.960839
1101.436052	3496.740559
1103.552826	3474.858741
1105.669093	3460.451049
1107.782944	3431.536364
1109.898200	3409.579021
1112.009132	3383.390909
1114.123377	3355.962937
1116.233301	3340.193706
1118.344629	3312.362937
1120.455452	3293.349650
1122.561959	3270.932867
1124.671776	3250.866434
1126.777278	3236.054545
1128.884183	3224.921678
1130.984873	3209.470629
1133.090775	3173.806993
1135.192368	3153.405594
1137.295364	3120.375524
1139.397859	3109.111189
1141.494147	3091.565734
1143.595643	3075.607692
1145.692835	3059.973427
1147.789530	3047.233566
1149.885726	3029.940559
1151.981425	3022.151748
1154.076625	3006.502797
1156.169429	2985.889510
1158.263636	2960.841259
1160.351651	2948.495105
1162.444864	2933.001399
1164.531889	2937.534266
1166.622213	2928.619580
1168.708250	2929.193706
1170.797584	2925.346154
1172.880737	2915.587413
1174.965292	2911.368531
1177.051249	2897.605594
1179.132924	2887.382517
1181.216001	2874.791608
1183.296692	2861.491608
1185.376891	2853.493007
1187.456599	2838.337063
1189.535816	2837.423776
1191.612651	2824.627972
1193.687105	2820.772727
1195.764850	2821.480420
1197.838326	2824.599301
1199.913202	2833.075524
1201.983811	2833.558741
1204.055821	2837.330769
1206.125456	2841.403497
1208.196491	2843.688811
1210.267038	2845.330769
1212.333324	2842.442657
1214.401011	2842.953147
1216.466326	2840.497902
1218.533041	2844.806993
1220.595500	2846.550350
1222.661244	2845.687413
1224.722734	2840.443357
1226.785625	2839.411888
1228.846148	2837.079720
1230.906187	2844.215385
1232.965744	2844.758741
1235.022935	2852.290210
1237.079645	2853.518881
1239.133991	2851.406294
1241.191619	2855.773427
1243.246884	2858.983916
1245.297908	2859.504895
1247.350332	2859.793007
1249.402276	2863.134965
1251.451862	2871.930769
1253.500969	2880.624476
1255.549598	2885.553846
1257.597748	2889.849650
1259.645419	2892.864336
1261.688860	2891.215385
1263.735577	2893.044056
1265.779940	2892.249650
1267.823827	2895.893007
1269.865362	2900.757343
1271.904548	2907.398601
1273.947007	2917.518881
1275.985243	2927.611189
1278.024878	2933.293007
1280.064038	2936.571329
1282.098979	2941.171329
1284.135319	2943.206993
1286.169315	2947.806993
1288.204708	2953.979720
1290.235889	2945.345455
1292.268467	2947.267133
1294.300574	2950.098601
1296.330340	2955.904196
1298.361504	2962.057343
1300.388460	2965.720979
1302.416814	2969.839860
1304.440963	2978.378322
1306.468378	2984.081818
1308.491590	2990.227972
1310.516200	2996.934266
1312.538476	3007.576923
1314.562149	3009.300000
1316.583489	3017.000699
1318.604361	3025.871329
1320.624766	3032.298601
1322.640978	3037.388811
1324.658587	3043.480420
1326.673868	3055.826573
1328.692408	3055.957343
1330.706759	3051.848951
1332.718784	3043.650350
1334.734066	3036.841259
1336.745163	3033.636364
1338.757657	3026.845455
1340.765968	3012.355944
1342.777534	3006.651049
1344.783062	3000.320280
1346.791845	3002.452448
1348.796450	3012.779720
1350.804309	3018.452448
1352.811706	3010.848252
1354.813072	3012.381818
1356.815834	3006.469930
1358.818137	3000.586014
1360.819980	2998.383916
1362.821363	2995.734266
1364.820433	2985.597203
1366.819044	2983.398601
1368.817197	2975.578322
1370.814891	2977.272727
1372.808423	2976.270629
1374.803351	2974.693706
1376.797821	2973.998601
1378.791835	2976.751748
1380.783542	2975.735664
1382.774794	2970.461538
1384.763740	2971.142657
1386.754081	2971.002797
1388.743967	2968.530769
1390.731549	2958.326573
1392.718678	2951.983217
1394.703505	2943.769231
1396.689727	2932.034965
1398.673649	2934.963636
1400.657118	2928.695804
1402.640134	2923.900699
1404.620853	2924.045455
1406.602966	2919.137762
1408.582783	2931.517483
1410.562148	2943.432168
1412.537375	2952.913986
1414.515840	2951.934965
1416.492012	2959.150350
1418.467735	2958.662937
1420.443008	2956.197203
1422.415990	2964.733566
1424.388524	2961.230769
1426.360610	2957.679021
1428.332249	2954.094406
1430.299759	2954.902797
1432.272343	2962.953147
1434.237122	2965.348252
1436.206972	2960.969231
1438.172699	2956.742657
1440.139818	2956.548951
1442.104654	2955.884615
1444.065370	2950.983916
1446.031154	2954.955944
1447.990983	2957.820280
1449.952206	2946.645455
1451.914821	2940.391608
1453.873321	2945.391608
1455.831378	2945.193007
1457.788994	2943.478322
1459.746167	2941.255245
1461.701065	2943.871329
1463.657356	2940.042657
1465.611372	2935.581119
1467.564947	2935.753846
1469.516250	2940.279720
1471.468946	2934.896503
1473.419369	2922.972028
1475.369354	2917.356643
1477.318900	2920.833566
1479.266177	2918.838462
1481.211186	2923.384615
1483.157588	2922.660839
1485.103552	2921.871329
1487.049079	2922.003497
1488.992340	2923.807692
1490.935166	2925.441958
1492.875728	2921.739161
1494.817681	2911.820280
1496.757372	2907.400000
1498.696629	2910.733566
1500.635450	2913.340559
1502.572012	2914.562937
1504.509965	2922.141958
1506.445659	2918.403497
1508.380920	2920.080420
1510.313925	2927.741259
1512.246497	2935.500699
1514.178637	2936.684615
1516.110345	2934.652448
1518.039799	2939.191608
1519.970644	2935.930769
1521.901057	2945.258042
1523.827398	2948.618881
1525.755130	2945.372727
1527.680611	2946.025175
1529.605663	2940.541958
1531.530286	2934.413287
1533.454480	2938.365035
1535.376426	2947.035664
1537.299763	2951.702098
1539.220853	2957.754545
1541.139700	2970.907692
1543.059935	2979.781119
1544.977928	2993.634266
1546.895494	3002.357343
1548.810818	3008.334266
1550.727532	3017.572727
1552.640191	3014.358741
1554.556054	3011.279720
1556.469677	3009.391608
1558.381062	3009.446154
1560.293837	3013.593007
1562.202562	3013.437063
1564.112676	3016.174825
1566.022367	3016.888112
1567.931635	3007.001399
1569.838669	3000.555245
1571.743470	2997.837762
1573.649660	2993.893007
1575.553618	2986.110490
1577.457155	2982.055245
1579.360272	2977.400699
1581.261159	2979.795804
1583.163435	2983.211888
1585.063483	2982.650350
1586.964918	2980.121678
1588.862320	2976.019580
1590.759303	2966.301399
1592.655868	2960.820280
1594.553821	2945.184615
1596.445939	2944.508392
1598.341250	2952.267832
1600.236144	2944.009790
1602.128816	2940.897902
1604.021071	2936.057343
1605.911107	2926.944056
1607.800727	2918.115385
1609.689932	2904.397902
1611.578722	2893.879021
1613.465294	2891.032168
1615.353254	2885.699301
1617.237197	2877.534266
1619.122527	2885.834965
1621.007444	2895.107692
1622.890147	2894.953147
1624.774237	2892.823776
1626.654315	2887.165035
1628.535781	2878.850350
1630.415036	2865.760839
1632.295677	2849.104196
1634.170514	2846.986014
1636.050332	2846.972028
1637.926146	2843.088811
1639.801549	2843.772028
1641.678338	2845.962937
1643.549331	2845.435664
1645.423505	2853.823776
1647.293680	2842.083916
1649.167037	2841.376224
1651.038190	2836.238462
1652.907141	2831.201399
1654.777477	2822.339161
1656.643821	2813.118881
1658.511550	2797.939161
1660.377080	2790.027273
1662.243996	2770.128671
1664.106923	2764.861538
1665.971235	2748.587413
1667.833351	2743.006294
1669.695062	2740.548951
1671.558159	2745.108392
1673.419060	2751.000699
1675.277769	2758.386713
1677.136074	2755.446154
1678.995764	2739.336364
1680.849686	2731.188811
1682.706782	2724.675524
1684.563475	2715.225175
1686.416191	2712.469231
1688.272079	2701.895804
1690.123993	2702.909091
1691.975506	2712.704196
1693.826618	2714.453846
1695.677330	2718.985315
1697.527641	2714.009790
1699.375767	2704.818881
1701.225278	2693.242657
1703.069040	2690.837762
1704.917751	2694.110490
1706.760716	2690.132168
1708.606848	2690.243357
1710.449017	2697.529371
1712.294352	2704.244755
1714.133946	2704.339860
1715.974924	2702.564336
1717.817285	2703.646853
1719.655690	2696.469231
1721.495478	2684.618881
1723.333091	2677.736364
1725.170308	2672.574126
1727.005352	2671.496503
1728.841779	2658.962937
1730.676034	2651.676224
1732.509894	2640.871329
1734.343360	2630.986713
1736.172881	2611.228671
1738.005560	2599.644755
1739.834295	2591.913287
1741.666187	2579.060839
1743.494137	2571.780420
1745.321696	2575.700699
1747.148862	2583.236364
1748.975637	2594.686014
1750.802020	2589.635664
1752.624467	2589.497902
1754.450069	2601.486713
1756.271736	2610.204895
1758.094785	2605.245455
1759.915672	2605.146853
1761.736171	2601.000000
1763.558051	2592.399301
1765.374231	2594.265734
1767.193563	2593.710490
1769.008968	2598.840559
1770.827523	2593.256643
1772.642153	2580.067133
1774.456396	2581.553147
1776.270253	2580.146853
1778.083723	2576.823077
1779.895040	2567.600699
1781.707737	2567.936364
1783.520049	2573.018182
1785.328443	2570.995105
1787.138217	2577.788112
1788.944077	2583.777622
1790.753082	2592.255245
1792.558174	2586.611888
1794.364647	2586.123776
1796.170736	2582.244056
1797.972914	2579.855245
1799.778237	2577.465035
1801.579651	2579.112587
1803.382445	2584.555944
1805.181333	2585.869930
1806.981602	2584.288811
1808.781489	2587.855245
1810.579234	2588.116084
1812.376599	2586.783217
1814.173584	2581.581818
1815.970188	2586.217483
1817.764653	2584.202797
1819.560497	2597.967832
1821.350686	2607.388811
1823.145772	2613.369930
1824.935206	2627.452448
1826.727776	2631.265734
1828.518211	2633.985315
1830.306512	2635.032168
1832.097948	2634.217483
1833.883738	2633.469231
1835.670908	2628.113986
1837.455946	2622.725874
1839.244118	2613.108392
1841.028404	2607.060140
1842.810560	2598.669231
1844.594096	2591.744755
1846.375503	2593.190909
1848.158289	2584.404196
1849.937194	2573.488811
1851.717479	2567.873427
1853.495637	2569.566434
1855.275174	2569.073427
1857.052586	2570.789510
1858.827874	2571.562238
1860.604540	2573.588811
1862.379084	2573.372727
1864.155006	2572.430769
1865.925307	2571.339860
1867.698736	2565.916783
1869.470045	2569.513986
1871.240983	2564.559441
1873.013299	2560.988811
1874.780001	2560.053147
1876.549829	2557.086014
1878.315793	2559.344755
1880.084880	2554.288811
1881.850106	2552.948252
1883.614964	2554.791608
1885.381199	2554.426573
1887.143575	2555.228671
1888.905584	2562.965734
1890.667225	2564.289510
1892.428500	2558.624476
1894.189407	2548.085315
1895.949948	2543.621678
1897.708379	2537.660140
1899.466444	2524.625175
1901.222402	2521.545455
1902.979736	2519.553147
1904.736705	2520.762238
1906.491567	2528.404895
1908.244325	2532.491608
1909.996718	2532.761538
1911.750488	2526.895804
1913.502154	2530.124476
1915.251718	2532.936364
1917.002657	2540.669930
1918.753234	2538.946154
1920.499971	2532.309091
1922.248085	2537.498601
1923.994099	2533.255944
1925.741488	2524.102797
1927.486780	2526.616783
1929.229974	2520.837762
1930.974543	2516.758741
1932.717017	2518.306993
1934.459130	2522.556643
1936.200883	2524.130070
1937.942276	2522.204895
1939.681576	2518.634965
1941.420517	2515.788811
1943.159099	2515.202098
1944.895590	2515.204196
1946.631723	2507.446853
1948.369230	2515.019580
1950.102915	2513.698601
1951.837975	2515.945455
1953.570946	2512.967133
1955.303561	2517.195804
1957.035820	2516.461538
1958.767722	2516.634965
1960.497538	2515.037063
1962.225269	2524.742657
1963.954375	2522.444056
1965.683126	2523.495105
1967.409793	2524.304895
1969.136106	2526.297203
1970.863792	2521.953147
1972.585942	2523.020280
1974.311193	2522.579021
1976.032637	2527.800699
1977.757182	2525.611888
1979.479646	2525.563636
1981.198308	2530.891608
1982.920068	2537.997203
1984.638026	2539.457343
1986.357357	2542.979720
1988.072889	2547.630769
1989.793241	2553.129371
1991.509795	2555.998601
1993.222552	2562.351748
1994.938405	2559.996503
1996.652186	2564.955944
1998.365617	2568.592308
2000.076977	2564.611189
2001.789709	2564.053846
2003.498651	2566.083916
2005.210685	2574.889510
2006.917211	2577.551748
2008.626828	2586.002098
2010.334379	2588.253147
2012.041581	2590.837063
2013.746718	2587.701399
2015.451509	2590.457343
2017.157671	2589.441259
2018.860051	2585.095105
2020.563802	2576.384615
2022.265491	2572.767832
2023.966835	2577.042657
2025.667833	2581.790210
2027.366770	2586.813986
2029.067079	2593.080420
2030.763613	2589.955245
2032.461518	2591.886713
2034.157364	2585.288112
2035.856296	2588.048951
2037.549742	2578.793007
2039.244559	2577.481119
2040.939034	2572.062937
2042.629740	2567.913287
2044.323530	2565.127972
2046.013553	2564.867832
2047.704947	2561.079021
2049.394288	2554.409790
2051.084999	2541.414685
2052.771947	2536.427972
2054.458556	2530.168531
2056.146534	2529.294406
2057.830753	2525.390909
2059.516343	2526.302797
2061.201593	2521.110490
2062.884794	2518.972028
2064.569366	2520.174126
2066.248475	2514.054545
2067.932369	2509.090210
2069.610802	2502.660140
2071.292313	2501.862937
2072.970072	2506.297902
2074.647495	2508.760140
2076.326287	2510.427972
2078.003037	2512.231469
2079.677745	2520.353846
2081.353822	2523.681119
2083.027859	2524.045455
2084.701560	2528.935664
2086.374926	2524.600699
2088.046253	2525.504196
2089.717246	2524.116783
2091.387905	2520.525874
2093.058230	2514.395804
2094.728221	2505.303497
2096.396176	2500.420979
2098.063798	2500.762238
2099.729385	2511.737762
2101.396341	2518.287413
2103.061264	2526.988811
2104.725855	2542.595804
2106.388414	2546.628671
2108.052341	2556.550350
2109.714237	2567.265035
2111.375803	2570.413986
2113.037037	2576.135664
2114.696243	2572.356643
2116.355118	2578.309790
2118.013664	2578.416084
2119.671880	2578.497902
2121.326372	2575.162937
2122.983929	2577.918182
2124.641157	2579.252448
2126.294663	2570.410490
2127.949537	2574.261538
2129.600692	2576.533566
2131.254910	2576.641958
2132.905411	2581.262937
2134.557278	2580.337762
2136.203737	2580.851049
2137.854951	2568.125874
2139.502451	2559.012587
2141.151318	2562.008392
2142.798166	2561.767832
2144.444689	2556.739860
2146.090886	2545.451049
2147.733375	2539.313287
2149.378922	2538.393706
2151.020762	2538.153846
2152.665659	2539.590909
2154.306850	2537.920280
2155.947719	2534.791608
2157.588263	2534.722378
2159.226795	2545.398601
2160.866693	2547.000000
2162.502891	2543.735664
2164.140455	2535.100699
2165.777697	2528.482517
2167.412929	2519.820979
2169.047840	2520.923077
2170.682428	2516.083217
2172.316696	2511.084615
2173.947270	2508.848252
2175.580896	2508.979720
2177.210830	2513.338462
2178.842129	2516.881119
2180.471423	2508.651049
2182.100398	2508.178322
2183.729053	2511.961538
2185.357389	2518.280420
2186.983723	2515.100699
2188.609738	2517.979720
2190.233751	2516.363636
2191.859130	2513.458741
2193.482508	2504.711189
2195.107251	2498.804196
2196.728313	2494.100000
2198.349058	2482.007692
2199.971168	2473.906993
2201.591280	2475.576224
2203.209395	2478.079021
2204.827195	2473.304895
2206.444680	2468.117483
2208.061849	2469.974126
2209.678703	2473.892308
2211.295241	2466.401399
2212.909787	2467.813986
2214.522340	2470.578322
2216.136257	2472.406294
2217.748183	2470.617483
2219.361472	2472.005594
2220.972771	2479.096503
2222.582080	2474.478322
2224.192753	2470.549650
2225.801437	2469.756643
2227.409808	2471.516084
2229.016193	2472.105594
2230.623941	2466.823776
2232.229702	2474.939860
2233.835152	2475.134266
2235.438617	2477.297902
2237.043445	2475.750350
2238.646289	2477.645455
2240.247150	2486.803497
2241.849374	2482.883217
2243.449616	2478.502098
2245.051220	2475.823077
2246.649171	2474.198601
2248.248485	2475.942657
2249.845819	2480.125175
2251.442845	2488.559441
2253.041233	2496.810490
2254.635972	2502.524476
2256.228734	2509.497203
2257.822859	2518.467133
2259.418345	2529.885315
2261.010186	2530.374126
2262.601721	2536.584615
2264.194618	2529.559441
2265.782205	2530.495105
2267.374488	2532.101399
2268.961465	2531.976923
2270.551469	2531.360140
2272.136169	2523.244056
2273.725563	2511.846154
2275.309655	2498.718182
2276.895107	2475.874825
2278.478591	2470.498601
2280.065100	2456.637063
2281.647976	2450.493007
2283.230549	2444.210839
2284.812818	2457.254545
2286.391457	2457.760490
2287.973121	2459.474825
2289.551156	2460.663287
2291.132214	2454.883217
2292.709645	2450.130420
2294.285113	2435.413986
2295.863603	2425.352098
2297.438469	2416.703497
2299.013034	2406.270979
2300.587299	2399.953147
2302.161263	2397.217133
2303.734926	2391.795105
2305.308290	2381.581818
2306.878035	2373.804196
2308.447481	2366.197203
2310.019945	2361.451748
2311.587135	2357.175524
2313.157343	2362.312587
2314.723936	2372.544755
2316.291889	2375.875524
2317.857886	2379.210490
2319.423586	2372.565734
2320.988988	2374.354545
2322.552437	2375.636364
2324.117245	2383.527972
2325.678445	2388.702098
2327.242659	2392.339860
2328.801611	2393.853147
2330.363578	2398.186713
2331.923593	2409.668531
2333.483314	2418.460140
2335.041085	2417.426573
2336.598561	2405.592308
2338.155743	2398.681119
2339.710977	2400.682517
2341.265918	2402.570629
2342.820564	2406.123077
2344.374917	2410.360839
2345.928977	2417.194406
2347.482742	2420.383916
2349.034564	2426.841958
2350.584442	2431.093007
2352.137328	2435.477622
2353.684972	2434.772028
2355.235623	2431.563636
2356.782683	2430.512587
2358.331101	2427.578322
2359.879228	2418.098601
2361.423766	2407.009091
2362.969662	2400.381119
2364.513620	2398.405594
2366.058935	2389.760839
2367.600665	2379.572727
2369.143752	2379.890210
2370.684903	2380.352448
2372.225765	2385.086713
2373.766338	2382.585315
2375.306622	2383.334965
2376.846617	2385.551748
2378.383034	2383.745455
2379.922452	2382.474825
2381.458293	2384.294406
2382.995490	2387.048252
2384.529112	2391.376923
2386.065734	2396.172727
2387.600426	2401.320280
2389.133188	2401.746853
2390.665663	2398.832168
2392.196210	2393.695105
2393.729755	2386.483217
2395.258089	2387.427273
2396.787780	2386.177622
2398.317184	2382.332867
2399.846304	2384.767133
2401.375139	2381.634266
2402.898768	2389.656643
2404.427033	2401.206294
2405.950096	2404.334965
2407.477792	2410.063636
2408.998649	2403.632867
2410.524139	2404.910490
2412.046068	2406.459441
2413.569353	2416.087413
2415.090716	2412.148252
2416.610160	2404.541259
2418.130959	2405.593007
2419.649840	2406.470629
2421.168438	2414.249650
2422.685119	2420.232168
2424.203154	2425.515385
2425.720908	2429.262238
2427.235111	2421.635664
2428.749033	2426.241958
2430.262675	2431.255944
2431.777672	2428.293706
2433.289120	2418.959441
2434.801923	2413.109091
2436.312812	2418.127972
2437.823423	2415.776923
2439.332122	2408.034965
2440.843807	2396.467832
2442.351949	2392.630769
2443.859813	2386.483916
2445.367399	2373.265734
2446.871444	2365.732168
2448.378474	2366.155245
2449.883597	2364.773427
2451.388441	2362.526573
2452.891379	2359.278322
2454.394041	2360.695804
2455.896426	2349.667832
2457.396906	2335.074126
2458.898739	2323.748951
2460.398667	2325.311189
2461.898320	2326.658741
2463.397698	2327.220280
2464.895173	2328.380420
2466.390746	2339.572028
2467.889299	2346.786713
2469.384324	2349.831469
2470.880701	2352.436364
2472.373552	2349.760839
2473.867756	2347.046853
2475.361686	2344.501399
2476.852092	2337.302797
2478.345476	2343.635664
2479.836962	2333.862937
2481.326551	2328.219580
2482.815868	2320.934965
2484.303289	2316.493706
2485.793686	2314.354545
2487.280565	2307.953147
2488.768795	2305.948951
2490.253508	2306.374825
2491.737952	2307.786713
2493.223746	2301.924476
2494.707649	2291.976923
2496.192902	2293.429371
2497.673022	2288.198601
2499.156115	2293.193007
2500.637317	2295.104196
2502.118250	2303.451049
2503.597294	2315.346154
2505.076069	2315.168531
2506.554576	2323.000699
2508.032815	2325.558741
2509.510785	2330.398601
2510.985250	2333.618182
2512.462685	2334.732867
2513.936616	2324.095804
2515.411897	2321.087413
2516.886911	2318.970629
2518.358425	2314.367832
2519.831288	2318.153846
2521.302269	2318.369231
2522.774600	2312.306993
2524.241817	2313.353147
2525.712001	2310.879021
2527.180304	2319.946853
2528.648342	2317.913986
2530.116115	2308.648252
2531.583623	2297.918182
2533.050866	2296.448951
2534.514617	2295.476224
2535.979718	2301.331469
2537.442942	2308.065734
2538.907516	2312.270629
2540.368600	2321.162238
2541.831034	2331.455944
2543.293205	2332.042657
2544.751890	2334.741259
2546.215147	2333.130769
2547.673307	2332.541259
2549.132816	2328.225175
2550.587231	2327.398601
2552.046217	2321.244056
2553.503331	2325.581119
2554.958574	2323.319580
2556.413555	2323.320280
2557.866668	2330.606294
2559.321129	2337.123077
2560.773720	2337.288112
2562.226052	2332.431469
2563.676517	2334.537762
2565.129937	2330.716084
2566.578275	2322.247552
2568.029569	2320.418182
2569.478996	2313.532867
2570.924951	2318.508392
2572.373861	2316.085315
2573.819301	2313.011888
2575.266088	2309.124476
2576.711013	2305.073427
2578.155679	2302.134965
2579.601693	2294.917483
2581.044241	2293.906294
2582.488136	2291.725874
2583.928566	2291.375524
2585.370343	2295.889510
2586.810261	2299.171329
2588.251526	2303.959441
2589.689329	2301.383217
2591.130082	2295.572028
2592.565773	2292.702098
2594.004413	2290.790909
2595.441195	2302.003497
2596.876122	2312.347552
2598.313996	2313.017483
2599.746813	2313.198601
2601.180977	2316.678322
2602.613287	2318.149650
2604.046943	2310.776224
2605.478746	2308.271329
2606.910295	2300.810490
2608.341592	2293.372028
2609.771036	2280.551049
2611.200228	2277.244056
2612.627570	2278.130769
2614.056257	2279.227972
2615.484693	2267.039860
2616.909681	2259.397902
2618.336016	2255.835664
2619.760502	2255.244755
2621.186334	2256.602797
2622.608722	2265.191608
2624.032456	2264.952448
2625.454343	2262.225175
2626.875981	2259.863636
2628.295773	2259.072727
2629.716911	2253.393007
2631.137799	2250.660140
2632.555249	2247.588112
2633.975638	2240.360839
2635.392590	2233.013986
2636.809293	2236.540559
2638.225748	2240.858042
2639.641955	2240.627273
2641.057914	2231.116084
2642.472032	2227.393706
2643.885902	2227.672028
2645.297934	2215.255245
2646.711309	2216.723077
2648.121255	2218.010490
2649.534137	2225.106993
2650.943590	2222.323077
2652.352797	2220.586713
2653.760168	2223.885315
2655.170473	2232.636364
2656.578943	2224.248252
2657.985577	2215.428671
2659.391966	2208.200699
2660.796521	2202.593007
2662.202420	2197.302098
2663.606486	2201.558741
2665.010307	2207.873427
2666.413884	2214.047552
2667.815630	2210.348951
2669.218719	2210.614685
2670.618390	2211.483916
2672.019405	2215.267832
2673.417004	2208.455245
2674.817533	2209.415385
2676.214646	2202.104895
2677.613103	2198.837063
2679.009733	2203.079021
2680.406120	2203.928671
2681.802265	2216.561538
2683.196585	2222.560839
2684.592246	2220.732867
2685.984499	2224.243357
2687.378094	2216.459441
2688.769865	2216.948951
2690.162979	2210.401399
2691.554269	2207.480420
2692.943736	2201.795804
2694.332963	2198.770629
2695.721951	2200.591608
2697.112280	2200.595804
2698.497626	2209.449650
2699.885895	2215.805594
2701.272344	2207.383916
2702.658554	2209.303497
2704.044525	2202.430070
2705.427098	2196.671329
2706.811013	2188.425175
2708.194690	2180.186014
2709.578128	2179.703497
2710.958172	2180.240559
2712.339556	2183.576923
2713.719126	2180.894406
2715.100036	2184.083217
2716.479132	2186.234266
2717.856414	2180.669930
2719.235037	2191.568531
2720.611847	2191.508392
2721.988420	2186.597203
2723.364758	2184.374825
2724.739285	2180.067133
2726.115152	2182.676923
2727.487632	2190.012587
2728.863028	2190.584615
2730.233464	2177.651748
2731.605241	2178.472727
2732.976783	2176.157343
2734.346517	2179.806993
2735.717592	2182.258042
2737.086858	2180.490210
2738.455891	2179.132168
2739.823118	2173.958741
2741.190112	2172.106294
2742.556872	2173.752448
2743.923401	2180.053846
2745.288124	2180.366434
2746.652615	2171.380420
2748.016875	2173.984615
2749.380902	2167.648951
2750.744698	2161.797902
2752.105120	2156.117483
2753.468452	2144.542657
2754.826842	2134.133566
2756.188142	2125.908392
2757.546072	2114.988811
2758.906910	2112.171329
2760.265949	2115.998601
2761.621619	2112.837063
2762.980197	2112.706993
2764.335408	2116.751748
2765.690390	2116.971329
2767.043576	2123.841259
2768.399668	2124.406294
2769.752395	2118.148951
2771.104895	2118.551748
2772.457166	2116.963636
2773.810776	2109.092308
2775.161024	2104.218881
2776.509478	2103.200000
2777.860838	2094.830769
2779.208838	2100.297902
2780.558176	2104.646154
2781.905722	2102.934266
2783.253042	2105.715385
2784.600135	2100.334266
2785.945437	2097.285315
2787.290512	2093.493706
2788.635362	2086.635664
2789.979986	2087.940559
2791.321258	2079.000000
2792.663868	2078.573427
2794.006252	2080.669930
2795.348411	2090.323077
2796.687221	2093.004895
2798.028931	2097.439161
2799.367293	2102.783916
2800.706991	2108.127273
2802.044905	2103.586014
2803.381034	2096.062238
2804.716939	2093.172727
2806.054182	2091.383217
2807.389641	2085.046853
2808.724877	2088.585315
2810.058330	2095.108392
2811.393120	2100.801399
2812.724570	2107.749650
2814.058915	2119.172028
2815.388362	2119.407692
2816.719146	2123.171329
2818.049708	2118.767832
2819.378491	2118.428671
2820.708610	2120.358741
2822.036951	2121.132168
2823.365071	2120.093706
2824.691413	2120.444755
2826.019092	2119.976224
2827.343437	2115.048951
2828.669119	2110.465734
2829.993025	2106.904196
2831.316712	2100.396503
2832.641734	2098.151049
2833.963426	2091.965035
2835.284900	2087.116084
2836.606155	2082.242657
2837.927191	2080.675524
2839.246454	2071.700699
2840.567053	2063.797902
2841.885881	2054.664336
2843.204490	2043.697203
2844.521328	2034.546853
2845.837949	2029.873427
2847.154353	2032.265035
2848.468987	2034.282517
2849.784957	2022.863636
2851.097606	2020.838462
2852.411590	2024.374825
2853.725358	2023.315385
2855.038909	2019.797203
2856.350694	2012.300699
2857.660712	2009.481818
2858.972065	2007.340559
2860.280103	2006.657343
2861.589475	2006.969231
2862.898633	2017.151049
2864.207575	2024.407692
2865.514753	2030.113287
2866.820169	2037.499301
2868.126919	2043.395105
2869.431906	2036.923077
2870.736680	2040.016084
2872.039692	2040.158741
2873.345585	2037.408392
2874.646624	2038.396503
2875.948997	2037.755944
2877.249610	2031.678322
2878.551557	2030.900000
2879.853290	2031.667133
2881.151720	2022.672028
2882.451483	2010.920280
2883.749489	2001.360839
2885.047283	1985.841958
2886.343321	1986.688811
2887.640692	1984.923776
2888.936307	1979.698601
2890.231711	1978.813287
2891.526904	1975.448951
2892.818800	1978.680420
2894.113572	1981.413287
2895.405047	1979.461538
2896.697855	1969.190909
2897.990453	1966.928671
2899.279757	1960.773427
2900.570393	1961.653147
2901.859278	1964.183916
2903.149495	1962.395804
2904.436421	1960.120979
2905.724679	1954.401399
2907.011188	1952.315385
2908.297489	1959.961538
2909.583581	1953.769231
2910.867925	1947.105594
2912.155140	1942.423077
2913.437529	1944.393706
2914.721250	1945.741259
2916.003225	1950.098601
2917.284992	1952.188811
2918.565015	1954.393007
2919.847907	1956.781818
2921.129054	1950.342657
2922.406919	1946.792308
2923.687653	1942.008392
2924.965106	1927.800699
2926.242353	1919.088811
2927.517858	1920.680420
2928.796231	1921.041259
2930.069790	1920.016783
2931.346216	1921.693706
2932.620901	1926.752448
2933.893845	1932.599301
2935.168121	1934.162238
2936.440657	1927.398601
2937.712988	1926.276224
2938.982047	1917.330070
2940.253971	1909.375524
2941.524157	1902.543357
2942.794139	1899.201399
2944.063918	1889.420979
2945.331961	1883.218182
2946.598267	1881.110490
2947.864372	1882.608392
2949.131806	1884.717483
2950.397506	1881.739860
2951.663003	1875.432168
2952.928298	1875.233566
2954.190328	1870.190210
2955.453688	1878.069930
2956.716847	1874.890909
2957.978274	1876.980420
2959.241030	1875.337762
2960.502054	1879.448951
2961.761348	1878.372727
2963.020442	1877.024476
2964.279335	1871.934266
2965.538028	1863.277622
2966.796521	1856.265734
2968.053285	1853.088112
2969.309849	1852.131469
2970.564686	1860.913986
2971.820851	1856.958741
2973.073762	1862.395804
2974.328002	1866.566434
2975.582043	1866.146154
2976.834358	1860.030769
2978.086474	1857.095804
2979.336866	1846.269930
2980.590113	1842.158741
2981.838583	1837.791608
2983.089908	1834.505594
2984.337983	1832.781818
2985.585862	1831.144755
2986.833543	1824.106993
2988.081027	1825.395105
2989.326790	1830.616084
2990.572357	1828.438462
2991.819251	1824.310490
2993.062901	1828.730769
2994.307879	1831.144755
2995.549613	1840.358741
2996.794199	1835.813287
2998.037066	1841.760839
2999.276692	1840.543357
3000.519168	1841.513986
3001.758404	1839.927972
3002.998968	1844.065035
3004.237816	1853.941259
3005.476468	1852.987413
3006.713406	1852.327972
3007.951670	1857.106294
3009.188219	1858.823077
3010.424575	1856.960839
3011.660737	1851.122378
3012.895185	1859.009790
3014.129441	1850.225175
3015.363503	1853.483916
3016.595853	1854.158042
3017.826491	1858.827273
3019.059975	1870.656643
3020.291747	1869.037063
3021.521809	1868.682517
3022.751679	1869.176224
3023.979839	1868.356643
3025.209325	1867.141259
3026.437102	1863.079720
3027.664688	1860.975524
3028.893601	1853.392308
3030.117771	1852.641259
3031.344784	1848.571329
3032.568573	1848.620979
3033.793689	1854.482517
3035.017098	1852.658042
3036.240317	1854.581119
3037.461831	1852.625175
3038.686186	1850.767133
3039.905806	1846.854545
3041.126752	1839.032168
3042.347509	1828.874126
3043.566562	1825.525874
3044.786940	1818.365035
3046.004102	1811.754545
3047.222590	1808.641958
3048.439375	1807.084615
3049.655973	1811.516084
3050.872382	1814.593706
3052.085579	1810.246853
3053.301613	1816.819580
3054.514435	1810.653147
3055.730094	1806.287413
3056.941030	1805.050350
3058.153291	1802.760839
3059.365366	1802.362238
3060.577253	1796.175524
3061.787444	1793.651049
3062.997448	1788.694406
3064.207266	1787.224476
3065.415388	1782.865734
3066.623325	1773.935664
3067.829566	1764.345455
3069.037132	1750.019580
3070.243003	1750.211189
3071.448690	1752.132168
3072.654191	1748.109790
3073.857999	1760.010490
3075.063131	1757.804895
3076.266570	1764.460140
3077.468318	1763.120979
3078.669881	1759.606294
3079.871261	1756.523077
3081.072457	1753.854545
3082.271963	1747.471329
3083.471286	1747.112587
3084.671932	1750.882517
3085.870888	1748.180420
3087.066650	1744.481818
3088.265241	1741.616783
3089.460638	1731.232867
3090.657358	1732.585315
3091.850886	1732.281818
3093.047242	1736.079720
3094.241912	1738.196503
3095.433391	1748.044056
3096.629201	1746.313287
3097.820318	1750.162238
3099.012757	1749.783916
3100.202009	1747.457343
3101.394086	1743.627972
3102.584480	1729.721678
3103.771688	1733.662937
3104.960219	1734.879021
3106.150071	1734.527273
3107.336740	1726.036364
3108.523228	1717.137762
3109.709538	1708.320280
3110.897169	1698.820979
3112.081618	1698.091608
3113.264388	1695.707692
3114.449980	1694.281818
3115.633893	1690.610490
3116.816127	1681.851049
3117.998182	1688.660839
3119.180059	1687.352448
3120.361758	1684.295105
3121.541780	1677.188112
3122.720125	1670.474126
3123.901290	1663.944056
3125.079280	1665.801399
3126.257094	1669.115385
3127.434730	1670.394406
3128.610691	1670.048951
3129.786475	1663.167832
3130.963581	1656.332867
3132.139012	1659.535664
3133.312770	1661.360140
3134.484855	1662.335664
3135.658262	1659.757343
3136.831492	1659.584615
3138.003051	1662.701399
3139.175930	1668.662937
3140.345642	1678.606993
3141.516675	1681.834965
3142.686038	1679.516084
3143.853730	1678.219580
3145.024238	1675.615385
3146.190088	1670.420280
3147.360246	1664.397902
3148.525748	1656.033566
3149.691075	1650.873427
3150.856229	1651.354545
3152.021210	1647.247552
3153.187510	1643.805594
3154.349158	1640.670629
3155.512125	1633.189510
3156.674920	1629.832867
3157.837542	1628.816783
3158.998499	1624.008392
3160.159283	1614.436364
3161.319895	1616.282517
3162.478843	1611.379720
3163.637620	1614.566434
3164.796225	1611.823077
3165.954657	1614.494406
3167.112919	1613.930769
3168.269518	1616.649650
3169.424456	1618.471329
3170.580713	1630.059441
3171.735309	1636.353147
3172.889735	1634.584615
3174.042501	1628.605594
3175.195096	1628.786713
3176.347522	1620.502098
3177.499778	1614.329371
3178.651863	1603.410490
3179.800803	1604.713986
3180.952549	1596.665035
3182.102637	1594.721678
3183.251069	1597.410490
3184.399331	1604.756643
3185.547425	1606.913986
3186.695350	1605.023077
3187.841619	1612.497203
3188.987720	1618.199301
3190.132167	1618.382517
3191.276446	1620.631469
3192.420557	1617.827273
3193.565985	1614.341958
3194.708275	1609.491608
3195.850398	1605.108392
3196.992353	1604.542657
3198.134141	1597.835664
3199.275762	1593.476224
3200.414248	1596.003497
3201.554051	1601.633566
3202.695172	1604.467133
3203.833158	1604.055944
3204.969495	1603.981818
3206.105666	1599.400000
3207.243154	1594.697902
3208.378994	1596.100699
3209.516151	1590.745455
3210.648695	1594.576923
3211.785521	1589.919580
3212.917735	1587.344755
3214.051266	1585.101399
3215.184633	1579.423776
3216.314872	1572.575524
3217.447909	1564.373427
3218.577820	1552.074825
3219.709047	1548.809790
3220.837150	1537.651049
3221.968049	1533.581119
3223.097304	1527.481818
3224.224916	1533.365035
3225.349405	1531.895105
3226.478170	1536.719580
3227.603813	1539.262937
3228.729294	1545.192308
3229.853133	1543.526573
3230.979766	1546.344056
3232.101802	1542.111189
3233.225154	1544.134266
3234.348344	1541.873427
3235.471372	1539.974126
3236.592760	1539.363636
3237.713986	1540.010490
3238.833575	1533.326573
3239.953002	1537.532168
3241.070791	1542.748951
3242.191372	1544.627273
3243.308840	1543.198601
3244.426147	1549.697203
3245.543294	1549.011189
3246.658805	1552.876923
3247.775630	1560.172028
3248.889346	1557.737762
3250.005851	1561.693706
3251.120722	1556.883916
3252.232484	1553.048252
3253.344086	1550.722378
3254.457004	1547.701399
3255.569762	1543.226573
3256.679414	1539.909790
3257.790381	1534.164336
3258.901189	1529.062937
3260.010365	1521.960839
3261.117911	1517.571329
3262.226770	1515.394406
3263.335472	1514.797902
3264.441071	1513.718182
3265.547984	1518.327972
3266.653268	1513.755245
3267.759866	1514.742657
3268.863364	1518.114685
3269.968177	1516.440559
3271.072832	1518.427972
3272.174388	1517.941259
3273.275788	1512.400699
3274.378502	1512.416084
3275.481060	1508.834965
3276.580521	1509.470629
3277.682766	1509.656643
3278.781915	1516.113287
3279.879440	1511.575524
3280.976809	1510.248252
3282.076960	1513.330070
3283.174019	1506.113986
3284.270922	1500.691608
3285.367670	1488.863636
3286.459860	1480.260140
3287.556298	1476.050350
3288.651114	1468.358042
3289.745776	1470.281119
3290.838816	1465.729371
3291.931701	1470.458741
3293.022967	1471.944755
3294.115544	1473.690210
3295.206502	1469.960839
3296.295840	1458.136364
3297.385025	1455.624476
3298.475523	1449.079720
3299.562936	1446.303497
3300.650196	1447.567133
3301.738769	1445.844755
3302.827190	1449.458042
3303.911063	1449.453147
3304.999178	1449.929371
3306.084211	1453.580420
3307.167629	1448.649650
3308.252359	1440.556643
3309.335473	1437.991608
3310.419900	1439.922378
3311.501248	1443.696503
3312.583908	1445.431469
3313.664954	1449.148951
3314.745849	1456.339161
3315.825130	1460.750350
3316.904261	1464.375524
3317.984704	1463.081818
3319.062072	1467.448951
3320.140752	1459.046853
3321.217820	1455.551049
3322.294739	1457.083217
3323.370046	1461.642657
3324.445204	1462.936364
3325.521673	1455.871329
3326.595072	1454.790210
3327.668322	1459.125175
3328.742882	1453.953846
3329.815834	1452.435664
3330.887177	1448.833566
3331.959831	1445.242657
3333.029419	1438.154545
3334.100317	1434.988811
3335.169608	1435.950350
3336.240210	1433.395105
3337.309205	1422.369930
3338.376594	1416.913986
3339.442378	1411.534965
3340.512388	1408.751049
3341.579335	1398.004895
3342.643220	1391.834266
3343.709873	1389.430070
3344.774921	1383.266434
3345.838366	1384.397203
3346.901665	1379.146853
3347.964817	1386.741259
3349.027823	1383.618881
3350.090683	1382.513287
3351.151941	1382.479720
3352.210142	1379.618881
3353.272563	1377.767133
3354.331929	1372.503497
3355.391149	1372.034266
3356.451679	1371.976923
3357.507699	1377.468531
3358.566483	1378.923776
3359.620760	1378.995804
3360.677801	1389.025175
3361.733243	1385.786014
3362.789995	1385.470629
3363.845148	1381.473427
3364.898704	1383.876224
3365.950664	1386.644755
3367.005385	1383.786014
3368.057057	1384.220979
3369.108586	1386.664336
3370.161423	1386.983916
3371.211213	1382.531469
3372.262312	1385.533566
3373.310365	1386.891608
3374.361177	1380.184615
3375.408945	1375.669231
3376.456570	1370.879021
3377.504052	1375.557343
3378.549942	1372.514685
3379.597140	1364.319580
3380.641296	1367.141259
3381.688210	1364.641259
3382.733532	1358.067832
3383.775813	1357.358741
3384.817954	1354.851049
3385.861402	1355.029371
3386.904709	1351.407692
3387.946427	1355.363636
3388.988003	1357.425874
3390.029438	1362.110490
3391.069285	1363.546154
3392.107543	1367.849650
3393.147109	1376.351748
3394.186535	1377.606294
3395.224373	1372.783916
3396.260624	1370.087413
3397.296736	1368.306294
3398.334155	1366.287413
3399.368541	1363.074126
3400.404234	1362.611189
3401.439788	1363.799301
3402.472311	1359.386713
3403.507587	1360.466434
3404.539832	1359.746853
3405.571939	1364.827972
3406.602462	1364.400000
3407.634292	1364.071329
3408.665984	1372.205594
3409.694648	1373.986014
3410.723175	1369.089510
3411.753008	1371.002098
3412.782704	1365.036364
3413.809374	1363.939161
3414.837351	1359.077622
3415.862303	1360.295804
3416.890005	1356.894406
3417.914684	1354.682517
3418.940669	1350.165734
3419.965074	1352.207692
3420.989343	1350.520979
3422.012033	1343.832867
3423.034587	1340.526573
3424.058447	1337.662937
3425.079287	1328.657343
3426.099991	1327.369830
3427.122002	1327.326299
3428.140994	1328.304196
3429.159850	1330.080969
3430.180013	1332.434066
3431.197159	1335.140934
