-118.059454	61.214560
-115.389854	64.279121
-112.723189	66.770080
-110.057276	68.747053
-107.394295	70.269655
-104.729885	71.397502
-102.068405	72.190210
-99.405496	71.632168
-96.747693	72.776224
-94.088461	74.440559
-91.429977	75.754545
-88.774417	72.663636
-86.117429	76.211888
-83.465539	81.604895
-80.812218	83.066434
-78.161818	85.601399
-75.509988	85.247552
-72.863249	84.710490
-70.215081	83.146853
-67.567655	80.412587
-64.923143	77.843357
-62.277203	79.893706
-59.636344	78.976224
-56.994056	77.300000
-54.354677	81.668531
-51.713868	84.802098
-49.073800	88.051748
-46.438804	90.528671
-43.802380	92.720979
-41.168858	97.630070
-38.533908	101.243357
-35.904023	103.281818
-33.270546	104.249650
-30.642131	107.366434
-28.014450	104.722378
-25.385340	85.518182
-22.761287	-3.832168
-20.133645	-315.191608
-17.511056	-949.413287
-14.889199	-728.942657
-12.268072	1534.675524
-9.647675	4697.687413
-7.030167	7251.096503
-4.411230	8987.188112
-1.795178	9888.738462
0.820145	9959.517483
3.434741	9199.917483
6.046454	7627.092308
8.659596	5295.453846
11.267704	2419.960140
13.879394	-294.304895
16.486053	-1377.142657
19.094140	-691.667133
21.701503	21.039860
24.303841	111.832168
26.909757	113.772727
29.510651	112.448951
32.112973	110.969930
34.710278	111.780420
37.311158	114.124476
39.907023	114.752448
42.504317	113.969930
45.100891	116.286713
47.692456	119.262238
50.285449	119.295105
52.875581	120.362238
55.467141	121.965734
58.055841	123.287413
60.645968	126.141958
63.231096	128.204895
65.817652	130.164336
68.403494	133.872727
70.986482	136.580420
73.570896	136.991608
76.148182	142.444056
78.729034	143.695105
81.307037	144.815385
83.884330	148.962238
86.463049	154.635664
89.036786	162.181818
91.611951	168.986713
94.184272	172.472028
96.755885	176.306993
99.324658	182.060140
101.894858	190.920280
104.462220	200.608392
107.031007	213.533566
109.596958	234.175524
112.160074	264.283916
114.726746	312.191608
117.284197	386.623077
119.847333	513.720979
122.405509	729.475524
124.967240	1109.078322
127.524014	1764.634266
130.082215	2834.661538
132.635462	4352.495804
135.188012	6303.070629
137.744112	8575.166434
140.295264	11013.402797
142.845719	13451.390909
145.395476	15684.072028
147.942414	17527.197902
150.488657	18905.753147
153.036325	19790.909790
155.583297	20247.468531
158.125334	20392.418881
160.666677	20386.451748
163.207327	20287.112587
165.749403	20188.723077
168.288667	20120.563636
170.825123	20060.885315
173.360887	20022.735664
175.898077	19974.541259
178.434576	19913.327273
180.968269	19868.544056
183.499158	19830.675524
186.029360	19810.498601
188.560986	19800.666434
191.089811	19794.287413
193.615837	19795.848951
196.141177	19820.826573
198.667942	19852.174825
201.191911	19855.390210
203.715195	19842.266434
206.237794	19826.277622
208.757600	19814.928671
211.276723	19814.846154
213.795163	19800.113287
216.315027	19809.583217
218.827890	19841.592308
221.344284	19844.081119
223.859996	19875.527273
226.370818	19909.524476
228.883065	19948.268531
231.392530	19976.753147
233.901316	20006.648951
236.409423	20052.374126
238.918955	20105.881119
241.423606	20164.318881
243.927581	20211.649650
246.432980	20298.481119
248.933504	20365.932168
251.437552	20411.341259
253.934628	20471.562937
256.435228	20516.207692
258.933056	20534.813287
261.430211	20528.760839
263.926693	20514.046154
266.418312	20503.271329
268.913451	20465.416084
271.405823	20429.206294
273.897525	20405.241259
276.386464	20407.530769
278.876827	20393.300699
281.364427	20407.401399
283.849268	20416.095105
286.337624	20427.190210
288.819040	20446.104895
291.303970	20473.349650
293.784055	20491.069231
296.267652	20517.091608
298.746406	20514.958042
301.226584	20500.837063
303.704009	20470.546154
306.180771	20460.234965
308.656870	20453.206294
311.130220	20479.361538
313.602908	20494.744755
316.074935	20520.629371
318.546301	20560.950350
321.014922	20590.149650
323.482885	20608.367133
325.952269	20628.170629
328.416831	20630.467832
330.884897	20621.162937
333.348143	20603.326573
335.810731	20591.269930
338.272663	20588.165734
340.733938	20586.653846
343.192479	20557.236364
345.652442	20515.741958
348.109672	20461.750350
350.566248	20406.546853
353.022170	20338.067133
355.475362	20247.639860
357.929977	20151.579021
360.379790	20070.778322
362.833099	19976.563636
365.281610	19859.658042
367.729469	19764.715385
370.178751	19664.509091
372.623239	19567.844755
375.069149	19475.419580
377.514409	19381.989510
379.956951	19306.127273
382.398845	19193.588112
384.840092	19082.990909
387.278623	18996.104196
389.718576	18911.159441
392.155815	18819.303497
394.590342	18726.024476
397.028357	18668.383217
399.461595	18607.470629
401.896254	18540.528671
404.326141	18480.272028
406.759513	18447.944755
409.188115	18410.906993
411.616075	18365.127273
414.045457	18336.180420
416.470073	18329.568531
418.896111	18302.016783
421.321508	18299.507692
423.746265	18300.225874
426.166264	18314.607692
428.587684	18332.107692
431.006407	18337.239860
433.426551	18363.919580
435.844000	18394.670629
438.262869	18403.879021
440.679045	18404.452448
443.090473	18417.051748
445.505379	18424.318182
447.917594	18439.168531
450.329175	18454.562238
452.740122	18465.679720
455.148383	18477.139161
457.556011	18493.696503
459.963007	18510.032168
462.369372	18525.654545
464.773054	18533.062238
467.176106	18541.446154
469.578528	18536.078322
471.980320	18555.964336
474.379435	18553.005594
476.779969	18562.241259
479.179874	18531.203497
481.575056	18504.280420
483.973705	18452.797203
486.367634	18398.753147
488.760937	18356.188112
491.153614	18295.189510
493.545666	18251.464336
495.939136	18201.760839
498.327894	18182.618182
500.713986	18166.037063
503.101498	18149.240559
505.488387	18145.079720
507.872612	18146.654545
510.258255	18152.058042
512.641237	18138.537063
515.021558	18145.953846
517.403298	18134.832867
519.782379	18117.140559
522.162879	18115.830769
524.540721	18102.999301
526.915908	18105.177622
529.290477	18073.346853
531.666464	18054.388811
534.039799	18026.444755
536.414551	17987.579720
538.784618	17930.967133
541.154069	17855.993007
543.524938	17791.160839
545.891127	17702.989510
548.258734	17633.295105
550.623695	17592.010490
552.988043	17525.219580
555.351778	17456.453147
557.716931	17410.080420
560.077412	17355.432867
562.439311	17289.404196
564.798569	17215.697902
567.155190	17144.217483
569.515255	17059.934266
571.868629	16968.241958
574.225448	16877.746853
576.579632	16799.789510
578.933208	16710.771329
581.286175	16595.860839
583.636510	16497.719580
585.988263	16419.431469
588.333339	16341.051049
590.683879	16261.078322
593.027745	16199.233566
595.377073	16147.637762
597.721752	16111.036364
600.063807	16064.595105
602.407279	16044.406294
604.748128	16020.598601
607.088375	15988.991608
609.426001	15956.062238
611.767062	15941.851049
614.103485	15930.764336
616.441325	15928.635664
618.776548	15910.688811
621.109155	15913.844755
623.443178	15912.508392
625.774587	15917.162937
628.105398	15916.429371
630.435612	15929.414685
632.765227	15938.278322
635.090220	15936.860140
637.420653	15922.732168
639.746466	15939.145455
642.069671	15948.517483
644.394293	15963.483217
646.716309	15988.118881
649.037731	16027.174825
651.356551	16068.927273
653.676786	16114.251049
655.996428	16186.031469
658.313469	16244.698601
660.629918	16329.214685
662.943769	16409.804895
665.259036	16484.388811
667.571706	16571.896503
669.885791	16663.371329
672.195276	16774.950350
674.506177	16865.009091
676.814485	16942.688112
679.122205	17018.134965
681.431339	17062.051748
683.735881	17120.774825
686.039837	17164.690909
688.343207	17213.027273
690.647991	17276.798601
692.948189	17324.411888
695.249801	17386.759441
697.550829	17472.470629
699.847274	17545.939860
702.145135	17609.048951
704.442412	17684.084615
706.739106	17768.194406
709.031224	17811.393706
711.326753	17876.084615
713.617708	17918.946853
715.910078	17976.970629
718.199873	18044.769930
720.489087	18084.332168
722.777722	18162.218881
725.063784	18223.151049
727.351261	18262.590909
729.636166	18316.578322
731.920494	18374.158741
734.202253	18432.326573
736.485426	18500.783916
738.768022	18565.156643
741.046062	18639.380420
743.325517	18739.317483
745.604395	18820.765734
747.882699	18909.991608
750.156453	19030.509790
752.431620	19114.052448
754.706214	19191.629371
756.978249	19263.817483
759.251697	19317.060839
761.522587	19404.585315
763.790921	19493.918881
766.060668	19553.320280
768.327861	19622.058741
770.594483	19694.485315
772.860535	19747.880420
775.124036	19802.651748
777.388950	19865.076923
779.653294	19918.073427
781.913109	19990.368531
784.174336	20059.421678
786.434996	20115.008392
788.693110	20200.276923
790.948679	20270.272028
793.207639	20310.001399
795.460100	20360.869231
797.717927	20412.016084
799.971236	20425.007692
802.222005	20432.886014
804.474186	20448.967832
806.723828	20463.902797
808.974883	20502.118881
811.221426	20527.532867
813.469381	20561.210490
815.714802	20612.222378
817.961634	20656.140559
820.207905	20669.048252
822.449671	20715.753147
824.694821	20770.546154
826.933498	20818.686713
829.175557	20850.830070
831.413118	20923.007692
833.652091	20999.314685
835.888537	21073.957343
838.126394	21176.088112
840.361726	21304.353846
842.594535	21458.900000
844.828755	21606.990909
847.060452	21765.578322
849.291595	21942.479021
851.522183	22118.017483
853.752217	22274.003497
855.981697	22428.782517
858.206695	22605.062238
860.435068	22756.975524
862.658961	22905.142657
864.884266	23080.115385
867.105095	23268.487413
869.329296	23467.572727
871.549024	23679.104196
873.770162	23865.884615
875.990750	24073.604895
878.208829	24277.789510
880.428317	24454.446154
882.643339	24625.508392
884.857814	24779.713287
887.071740	24921.942657
889.285120	25037.429371
891.497952	25143.460839
893.710238	25232.409091
895.920021	25286.420979
898.129259	25314.931469
900.337952	25308.372727
902.544146	25315.809790
904.751749	25262.690210
906.956854	25146.818182
909.161416	24987.052448
911.363483	24799.957343
913.566959	24585.020280
915.767941	24348.030769
917.968381	24101.783217
920.170230	23836.202797
922.365688	23572.051049
924.564505	23296.963636
926.758883	23050.992308
928.956619	22790.362937
931.149919	22527.644056
933.344628	22314.139161
935.536851	22107.653846
937.728535	21930.897203
939.919682	21782.282517
942.108346	21679.946154
944.296474	21596.590909
946.482121	21550.782517
948.671120	21537.705594
950.855696	21517.439161
953.039737	21533.767832
955.227128	21564.964336
957.406215	21612.797203
959.588653	21707.910490
961.770557	21779.812587
963.949986	21848.865035
966.126943	21902.453147
968.305308	21944.858042
970.485080	21954.141259
972.658503	21938.317483
974.835272	21921.651748
977.007634	21880.342657
979.181404	21842.409790
981.350770	21748.723077
983.523480	21662.241259
985.693725	21591.730070
987.863441	21492.440559
990.032628	21406.527273
992.197418	21296.048252
994.365549	21199.755944
996.529286	21102.176923
998.694429	20974.779720
1000.857113	20872.127273
1003.019272	20751.987413
1005.178974	20614.572727
1007.338151	20434.749650
1009.498735	20300.685315
1011.656865	20141.541958
1013.814470	19991.375524
1015.971552	19870.526573
1018.128110	19751.216783
1020.280289	19680.932867
1022.433875	19613.243357
1024.586939	19539.953846
1026.737554	19488.458042
1028.889576	19453.211189
1031.037224	19404.593007
1033.188204	19350.388811
1035.334813	19270.237063
1037.480903	19173.922378
1039.626475	19082.033566
1041.773452	18967.220280
1043.914140	18883.029371
1046.058158	18813.931469
1048.199735	18727.738462
1050.340796	18665.680420
1052.483261	18586.693007
1054.619447	18537.665734
1056.758958	18475.946154
1058.894115	18430.769231
1061.032596	18370.752448
1063.166723	18329.658042
1065.300337	18290.909091
1067.435356	18256.940559
1069.566025	18253.317483
1071.698099	18231.276923
1073.827744	18180.773427
1075.956877	18124.949650
1078.085498	18050.217483
1080.213608	17970.351748
1082.339292	17895.293706
1084.464466	17810.053846
1086.591044	17718.726573
1088.713284	17629.383217
1090.836929	17562.797203
1092.956239	17484.686713
1095.080779	17422.502098
1097.199073	17378.388112
1099.318772	17320.639161
1101.436052	17255.620979
1103.552826	17187.849650
1105.669093	17144.242657
1107.782944	17123.562937
1109.898200	17068.307692
1112.009132	17006.358741
1114.123377	16944.232867
1116.233301	16897.413986
1118.344629	16838.503497
1120.455452	16784.521678
1122.561959	16750.190210
1124.671776	16693.467133
1126.777278	16656.680420
1128.884183	16614.800699
1130.984873	16613.844755
1133.090775	16601.003497
1135.192368	16581.553846
1137.295364	16539.174825
1139.397859	16497.865035
1141.494147	16468.996503
1143.595643	16447.105594
1145.692835	16394.762937
1147.789530	16361.078322
1149.885726	16316.260839
1151.981425	16302.783916
1154.076625	16293.158042
1156.169429	16273.936364
1158.263636	16239.288811
1160.351651	16209.209790
1162.444864	16161.316783
1164.531889	16126.249650
1166.622213	16100.552448
1168.708250	16071.453147
1170.797584	16005.151748
1172.880737	15943.803497
1174.965292	15904.816783
1177.051249	15889.276923
1179.132924	15845.572727
1181.216001	15788.424476
1183.296692	15734.600699
1185.376891	15722.206993
1187.456599	15696.504895
1189.535816	15687.660839
1191.612651	15673.392308
1193.687105	15650.055245
1195.764850	15639.835664
1197.838326	15619.211189
1199.913202	15624.234266
1201.983811	15630.949650
1204.055821	15621.397902
1206.125456	15630.991608
1208.196491	15645.052448
1210.267038	15686.851748
1212.333324	15702.147552
1214.401011	15746.753147
1216.466326	15787.006294
1218.533041	15831.553147
1220.595500	15870.165734
1222.661244	15876.320979
1224.722734	15881.438462
1226.785625	15909.437063
1228.846148	15917.191608
1230.906187	15900.308392
1232.965744	15883.358042
1235.022935	15875.759441
1237.079645	15867.690909
1239.133991	15883.120979
1241.191619	15912.341958
1243.246884	15941.476224
1245.297908	15963.823077
1247.350332	15993.670629
1249.402276	16024.675524
1251.451862	16089.495804
1253.500969	16111.416783
1255.549598	16125.762937
1257.597748	16140.679720
1259.645419	16155.019580
1261.688860	16170.853147
1263.735577	16176.141259
1265.779940	16179.255245
1267.823827	16191.788811
1269.865362	16195.434266
1271.904548	16219.583217
1273.947007	16245.271329
1275.985243	16288.229371
1278.024878	16310.868531
1280.064038	16361.566434
1282.098979	16406.612587
1284.135319	16464.486014
1286.169315	16504.005594
1288.204708	16535.544755
1290.235889	16564.951748
1292.268467	16592.006993
1294.300574	16608.994406
1296.330340	16636.521678
1298.361504	16645.429371
1300.388460	16678.614685
1302.416814	16717.871329
1304.440963	16763.267133
1306.468378	16796.534266
1308.491590	16826.710490
1310.516200	16825.632168
1312.538476	16854.843357
1314.562149	16863.457343
1316.583489	16849.051049
1318.604361	16843.876224
1320.624766	16835.140559
1322.640978	16812.301399
1324.658587	16818.069930
1326.673868	16829.951748
1328.692408	16812.459441
1330.706759	16792.590909
1332.718784	16765.080420
1334.734066	16746.688811
1336.745163	16725.601399
1338.757657	16687.946853
1340.765968	16642.249650
1342.777534	16635.056643
1344.783062	16614.052448
1346.791845	16591.381119
1348.796450	16603.019580
1350.804309	16607.313287
1352.811706	16615.383217
1354.813072	16648.713986
1356.815834	16671.556643
1358.818137	16721.795105
1360.819980	16742.420280
1362.821363	16767.541259
1364.820433	16766.578322
1366.819044	16788.048252
1368.817197	16766.543357
1370.814891	16758.590909
1372.808423	16727.580420
1374.803351	16686.851748
1376.797821	16652.681119
1378.791835	16616.329371
1380.783542	16578.424476
1382.774794	16554.853147
1384.763740	16522.195804
1386.754081	16498.706294
1388.743967	16465.932168
1390.731549	16462.376923
1392.718678	16459.679021
1394.703505	16475.409790
1396.689727	16466.762937
1398.673649	16477.714685
1400.657118	16455.725874
1402.640134	16439.420979
1404.620853	16422.714685
1406.602966	16412.550350
1408.582783	16419.026573
1410.562148	16423.551748
1412.537375	16425.490210
1414.515840	16439.465035
1416.492012	16459.621678
1418.467735	16472.739860
1420.443008	16489.937762
1422.415990	16496.096503
1424.388524	16479.704196
1426.360610	16495.782517
1428.332249	16504.497203
1430.299759	16532.176224
1432.272343	16539.627273
1434.237122	16540.398601
1436.206972	16552.564336
1438.172699	16546.874126
1440.139818	16556.697902
1442.104654	16555.762238
1444.065370	16547.727273
1446.031154	16532.668531
1447.990983	16541.320280
1449.952206	16551.255944
1451.914821	16555.868531
1453.873321	16592.405594
1455.831378	16598.030769
1457.788994	16618.837762
1459.746167	16649.683916
1461.701065	16672.427972
1463.657356	16680.837762
1465.611372	16664.977622
1467.564947	16634.965734
1469.516250	16607.779720
1471.468946	16589.674825
1473.419369	16549.281119
1475.369354	16507.429371
1477.318900	16496.230769
1479.266177	16465.511189
1481.211186	16455.661538
1483.157588	16454.005594
1485.103552	16448.307692
1487.049079	16429.274126
1488.992340	16410.645455
1490.935166	16404.253147
1492.875728	16364.120979
1494.817681	16347.591608
1496.757372	16329.509790
1498.696629	16298.593007
1500.635450	16286.220280
1502.572012	16263.348252
1504.509965	16263.672028
1506.445659	16261.172028
1508.380920	16278.225874
1510.313925	16288.658042
1512.246497	16295.387413
1514.178637	16305.504196
1516.110345	16292.695105
1518.039799	16324.007692
1519.970644	16329.868531
1521.901057	16352.056643
1523.827398	16353.551748
1525.755130	16367.016783
1527.680611	16388.739860
1529.605663	16401.583217
1531.530286	16426.040559
1533.454480	16460.181818
1535.376426	16497.758042
1537.299763	16531.155944
1539.220853	16573.572028
1541.139700	16615.448252
1543.059935	16653.661538
1544.977928	16705.192308
1546.895494	16717.146853
1548.810818	16743.397902
1550.727532	16759.139860
1552.640191	16751.559441
1554.556054	16776.409091
1556.469677	16801.556643
1558.381062	16822.034965
1560.293837	16850.420280
1562.202562	16876.223776
1564.112676	16908.293007
1566.022367	16945.922378
1567.931635	16963.261538
1569.838669	16951.955245
1571.743470	16961.958741
1573.649660	16959.137762
1575.553618	16938.660140
1577.457155	16943.340559
1579.360272	16916.571329
1581.261159	16912.628671
1583.163435	16877.893007
1585.063483	16847.194406
1586.964918	16837.176923
1588.862320	16819.541259
1590.759303	16808.555944
1592.655868	16784.015385
1594.553821	16782.833566
1596.445939	16768.167133
1598.341250	16747.383217
1600.236144	16717.652448
1602.128816	16672.047552
1604.021071	16635.797902
1605.911107	16579.944755
1607.800727	16553.813287
1609.689932	16529.928671
1611.578722	16523.415385
1613.465294	16518.980420
1615.353254	16497.314685
1617.237197	16483.749650
1619.122527	16480.758741
1621.007444	16467.969231
1622.890147	16441.854545
1624.774237	16415.408392
1626.654315	16391.302098
1628.535781	16348.279720
1630.415036	16300.632168
1632.295677	16252.783916
1634.170514	16232.247552
1636.050332	16202.977622
1637.926146	16165.087413
1639.801549	16138.806993
1641.678338	16121.065734
1643.549331	16101.241259
1645.423505	16084.037762
1647.293680	16061.542657
1649.167037	16022.597203
1651.038190	15971.732168
1652.907141	15904.415385
1654.777477	15851.962937
1656.643821	15808.879021
1658.511550	15788.682517
1660.377080	15745.658741
1662.243996	15713.832168
1664.106923	15697.190909
1665.971235	15699.308392
1667.833351	15703.336364
1669.695062	15718.935664
1671.558159	15724.291608
1673.419060	15755.874825
1675.277769	15779.493007
1677.136074	15824.260140
1678.995764	15845.119580
1680.849686	15888.503497
1682.706782	15905.736364
1684.563475	15918.626573
1686.416191	15918.376923
1688.272079	15916.281119
1690.123993	15912.563636
1691.975506	15913.018881
1693.826618	15899.241259
1695.677330	15895.066434
1697.527641	15866.023077
1699.375767	15831.183217
1701.225278	15764.534266
1703.069040	15733.140559
1704.917751	15687.293706
1706.760716	15613.094406
1708.606848	15556.745455
1710.449017	15503.655245
1712.294352	15470.814685
1714.133946	15434.402797
1715.974924	15387.120280
1717.817285	15323.797902
1719.655690	15263.835664
1721.495478	15212.659441
1723.333091	15148.960839
1725.170308	15114.098601
1727.005352	15050.458741
1728.841779	14979.059441
1730.676034	14946.423077
1732.509894	14878.864336
1734.343360	14850.720280
1736.172881	14796.909790
1738.005560	14742.451049
1739.834295	14694.610490
1741.666187	14666.156643
1743.494137	14641.148252
1745.321696	14610.497203
1747.148862	14587.481818
1748.975637	14563.493706
1750.802020	14561.539161
1752.624467	14572.520979
1754.450069	14571.555245
1756.271736	14591.839161
1758.094785	14595.944056
1759.915672	14615.994406
1761.736171	14634.101399
1763.558051	14672.921678
1765.374231	14710.359441
1767.193563	14717.546853
1769.008968	14744.753147
1770.827523	14767.814685
1772.642153	14789.127273
1774.456396	14816.517483
1776.270253	14825.093706
1778.083723	14824.738462
1779.895040	14817.065035
1781.707737	14802.165035
1783.520049	14772.123776
1785.328443	14766.513986
1787.138217	14747.178322
1788.944077	14705.865035
1790.753082	14708.523077
1792.558174	14684.274825
1794.364647	14705.714685
1796.170736	14714.349650
1797.972914	14730.978322
1799.778237	14761.120979
1801.579651	14782.038462
1803.382445	14803.362937
1805.181333	14824.267133
1806.981602	14855.704895
1808.781489	14870.974126
1810.579234	14880.639161
1812.376599	14886.219580
1814.173584	14890.314685
1815.970188	14910.479021
1817.764653	14897.618881
1819.560497	14906.379720
1821.350686	14920.946154
1823.145772	14939.649650
1824.935206	14936.809091
1826.727776	14955.627273
1828.518211	14953.867832
1830.306512	14961.414685
1832.097948	14941.816084
1833.883738	14918.775524
1835.670908	14902.134965
1837.455946	14872.352448
1839.244118	14859.211189
1841.028404	14843.985315
1842.810560	14850.926573
1844.594096	14856.116783
1846.375503	14816.976224
1848.158289	14800.121678
1849.937194	14759.406294
1851.717479	14729.567832
1853.495637	14674.965035
1855.275174	14642.126573
1857.052586	14599.672727
1858.827874	14587.569930
1860.604540	14600.993706
1862.379084	14602.422378
1864.155006	14613.557343
1865.925307	14625.183217
1867.698736	14601.519580
1869.470045	14599.795804
1871.240983	14584.034266
1873.013299	14603.944056
1874.780001	14595.725175
1876.549829	14592.389510
1878.315793	14578.486713
1880.084880	14571.604196
1881.850106	14549.268531
1883.614964	14498.927972
1885.381199	14461.353846
1887.143575	14401.490210
1888.905584	14351.399301
1890.667225	14327.085315
1892.428500	14312.055245
1894.189407	14331.314685
1895.949948	14346.237063
1897.708379	14363.134965
1899.466444	14386.810490
1901.222402	14410.609790
1902.979736	14426.544755
1904.736705	14425.155944
1906.491567	14438.352448
1908.244325	14404.104196
1909.996718	14398.716084
1911.750488	14378.905594
1913.502154	14353.476923
1915.251718	14337.504895
1917.002657	14328.129371
1918.753234	14308.031469
1920.499971	14288.323077
1922.248085	14281.877622
1923.994099	14273.493007
1925.741488	14256.599301
1927.486780	14246.383916
1929.229974	14218.187413
1930.974543	14217.705594
1932.717017	14200.516783
1934.459130	14204.542657
1936.200883	14207.501748
1937.942276	14205.223776
1939.681576	14210.259091
1941.420517	14207.816084
1943.159099	14215.329720
1944.895590	14215.365734
1946.631723	14202.515734
1948.369230	14174.825175
1950.102915	14172.784965
1951.837975	14189.000000
1953.570946	14189.072378
1955.303561	14212.055245
1957.035820	14225.923427
1958.767722	14243.421678
1960.497538	14254.783217
1962.225269	14273.305594
1963.954375	14285.459441
1965.683126	14304.115385
1967.409793	14298.481818
1969.136106	14287.806294
1970.863792	14295.517483
1972.585942	14306.425874
1974.311193	14325.990909
1976.032637	14350.123077
1977.757182	14377.196503
1979.479646	14397.130070
1981.198308	14408.886713
1982.920068	14438.287413
1984.638026	14454.442657
1986.357357	14488.494406
1988.072889	14487.539860
1989.793241	14483.316783
1991.509795	14468.822378
1993.222552	14467.079021
1994.938405	14469.146154
1996.652186	14469.156643
1998.365617	14474.806294
2000.076977	14474.129371
2001.789709	14496.844755
2003.498651	14532.876923
2005.210685	14569.788811
2006.917211	14622.996503
2008.626828	14641.572727
2010.334379	14663.993706
2012.041581	14692.132867
2013.746718	14702.887413
2015.451509	14715.130070
2017.157671	14722.067133
2018.860051	14719.100699
2020.563802	14709.350350
2022.265491	14703.137762
2023.966835	14685.381818
2025.667833	14651.665035
2027.366770	14627.729371
2029.067079	14573.276224
2030.763613	14519.036364
2032.461518	14493.958042
2034.157364	14474.424476
2035.856296	14474.690909
2037.549742	14486.802098
2039.244559	14489.467133
2040.939034	14509.802797
2042.629740	14528.358741
2044.323530	14539.481119
2046.013553	14535.148951
2047.704947	14532.921678
2049.394288	14474.919580
2051.084999	14423.551748
2052.771947	14407.304196
2054.458556	14352.448252
2056.146534	14306.757343
2057.830753	14235.462937
2059.516343	14168.954545
2061.201593	14123.323776
2062.884794	14079.567832
2064.569366	14030.305594
2066.248475	13997.705594
2067.932369	13978.541259
2069.610802	13942.946154
2071.292313	13955.445455
2072.970072	13971.376224
2074.647495	13958.413986
2076.326287	13986.520979
2078.003037	13991.325175
2079.677745	14012.646154
2081.353822	14016.532168
2083.027859	14030.909790
2084.701560	14031.781818
2086.374926	14062.501399
2088.046253	14077.695804
2089.717246	14093.930769
2091.387905	14102.437063
2093.058230	14125.422378
2094.728221	14135.553846
2096.396176	14165.738462
2098.063798	14197.859441
2099.729385	14242.851748
2101.396341	14283.320979
2103.061264	14338.518881
2104.725855	14380.975524
2106.388414	14443.499301
2108.052341	14492.800699
2109.714237	14523.566434
2111.375803	14539.117483
2113.037037	14566.615385
2114.696243	14550.923077
2116.355118	14544.944056
2118.013664	14544.753147
2119.671880	14536.345455
2121.326372	14523.873427
2122.983929	14531.444755
2124.641157	14514.754545
2126.294663	14523.909790
2127.949537	14523.086014
2129.600692	14490.344755
2131.254910	14486.734266
2132.905411	14476.011888
2134.557278	14473.921678
2136.203737	14465.972028
2137.854951	14481.510490
2139.502451	14469.578322
2141.151318	14483.993007
2142.798166	14497.553147
2144.444689	14501.013986
2146.090886	14525.534965
2147.733375	14512.108392
2149.378922	14500.453846
2151.020762	14510.617483
2152.665659	14529.078322
2154.306850	14545.172028
2155.947719	14548.896503
2157.588263	14569.834965
2159.226795	14559.115385
2160.866693	14540.500699
2162.502891	14515.655944
2164.140455	14498.939860
2165.777697	14475.018182
2167.412929	14437.433566
2169.047840	14421.981818
2170.682428	14397.695105
2172.316696	14375.753846
2173.947270	14364.365035
2175.580896	14361.009091
2177.210830	14358.169930
2178.842129	14372.315385
2180.471423	14357.560839
2182.100398	14356.919580
2183.729053	14357.869231
2185.357389	14352.490210
2186.983723	14361.248252
2188.609738	14365.255245
2190.233751	14354.667133
2191.859130	14343.753147
2193.482508	14345.182517
2195.107251	14348.456643
2196.728313	14348.874825
2198.349058	14334.725874
2199.971168	14311.437762
2201.591280	14288.532867
2203.209395	14264.688811
2204.827195	14244.918881
2206.444680	14231.193706
2208.061849	14215.700699
2209.678703	14209.760140
2211.295241	14189.167133
2212.909787	14184.695105
2214.522340	14182.523776
2216.136257	14185.216783
2217.748183	14170.404196
2219.361472	14190.027273
2220.972771	14192.072028
2222.582080	14195.677622
2224.192753	14197.418182
2225.801437	14196.380420
2227.409808	14188.972028
2229.016193	14184.536364
2230.623941	14150.070629
2232.229702	14152.059441
2233.835152	14140.389510
2235.438617	14136.146853
2237.043445	14149.277622
2238.646289	14168.516084
2240.247150	14178.916084
2241.849374	14201.570629
2243.449616	14211.565734
2245.051220	14222.903497
2246.649171	14227.546853
2248.248485	14253.969930
2249.845819	14268.658741
2251.442845	14306.776224
2253.041233	14317.057343
2254.635972	14344.858042
2256.228734	14376.725175
2257.822859	14393.632168
2259.418345	14413.581119
2261.010186	14438.991608
2262.601721	14447.536364
2264.194618	14469.869930
2265.782205	14504.646853
2267.374488	14525.815385
2268.961465	14522.885315
2270.551469	14526.709091
2272.136169	14508.386014
2273.725563	14483.732867
2275.309655	14414.890909
2276.895107	14334.120280
2278.478591	14261.313986
2280.065100	14199.807692
2281.647976	14140.413986
2283.230549	14111.848951
2284.812818	14101.323077
2286.391457	14076.679720
2287.973121	14058.764336
2289.551156	14067.325175
2291.132214	14064.950350
2292.709645	14036.377622
2294.285113	13996.972028
2295.863603	13963.906993
2297.438469	13922.144755
2299.013034	13869.195105
2300.587299	13807.381119
2302.161263	13755.897203
2303.734926	13699.372028
2305.308290	13628.876923
2306.878035	13571.335664
2308.447481	13538.160140
2310.019945	13516.320280
2311.587135	13493.673427
2313.157343	13510.554545
2314.723936	13541.846154
2316.291889	13554.376224
2317.857886	13589.950350
2319.423586	13626.788112
2320.988988	13654.986014
2322.552437	13662.756643
2324.117245	13681.311189
2325.678445	13701.462937
2327.242659	13710.768531
2328.801611	13707.507692
2330.363578	13676.419580
2331.923593	13653.248951
2333.483314	13627.108392
2335.041085	13586.202098
2336.598561	13556.752448
2338.155743	13545.586014
2339.710977	13544.829371
2341.265918	13551.725874
2342.820564	13578.320280
2344.374917	13600.700699
2345.928977	13609.506294
2347.482742	13612.110490
2349.034564	13587.477622
2350.584442	13589.295804
2352.137328	13555.153147
2353.684972	13526.694406
2355.235623	13513.260839
2356.782683	13530.960140
2358.331101	13538.593706
2359.879228	13543.297902
2361.423766	13536.875524
2362.969662	13544.905594
2364.513620	13518.403497
2366.058935	13494.856643
2367.600665	13459.085315
2369.143752	13433.154545
2370.684903	13383.733566
2372.225765	13372.944755
2373.766338	13365.900699
2375.306622	13364.338462
2376.846617	13363.023077
2378.383034	13369.019580
2379.922452	13383.669231
2381.458293	13415.805594
2382.995490	13441.278322
2384.529112	13456.790909
2386.065734	13467.394406
2387.600426	13486.594406
2389.133188	13505.909790
2390.665663	13525.811189
2392.196210	13511.796503
2393.729755	13505.095804
2395.258089	13491.883916
2396.787780	13491.302098
2398.317184	13495.925874
2399.846304	13511.904196
2401.375139	13521.867133
2402.898768	13494.797203
2404.427033	13498.679021
2405.950096	13524.838462
2407.477792	13540.788811
2408.998649	13586.546154
2410.524139	13593.698601
2412.046068	13637.574825
2413.569353	13661.180420
2415.090716	13684.911189
2416.610160	13697.804895
2418.130959	13713.075524
2419.649840	13709.397902
2421.168438	13690.464336
2422.685119	13679.540559
2424.203154	13682.763636
2425.720908	13677.552448
2427.235111	13705.882517
2428.749033	13726.681818
2430.262675	13742.762937
2431.777672	13735.867133
2433.289120	13712.630070
2434.801923	13690.076224
2436.312812	13663.910490
2437.823423	13623.231469
2439.332122	13574.197902
2440.843807	13504.842657
2442.351949	13466.260140
2443.859813	13434.245455
2445.367399	13403.864336
2446.871444	13394.342657
2448.378474	13350.313287
2449.883597	13318.476923
2451.388441	13283.092308
2452.891379	13247.968531
2454.394041	13211.051049
2455.896426	13173.921678
2457.396906	13152.083217
2458.898739	13116.540559
2460.398667	13105.037063
2461.898320	13097.629371
2463.397698	13071.235664
2464.895173	13073.578322
2466.390746	13065.507692
2467.889299	13067.417483
2469.384324	13067.763636
2470.880701	13069.343357
2472.373552	13072.644755
2473.867756	13086.699301
2475.361686	13103.778322
2476.852092	13121.505594
2478.345476	13137.357343
2479.836962	13164.209091
2481.326551	13196.348951
2482.815868	13229.420280
2484.303289	13247.826573
2485.793686	13277.535664
2487.280565	13290.628671
2488.768795	13296.334965
2490.253508	13288.348252
2491.737952	13263.396503
2493.223746	13226.607692
2494.707649	13211.650350
2496.192902	13184.841958
2497.673022	13167.227273
2499.156115	13152.251748
2500.637317	13135.249650
2502.118250	13136.744755
2503.597294	13158.116084
2505.076069	13162.418881
2506.554576	13154.134965
2508.032815	13148.453147
2509.510785	13130.265734
2510.985250	13117.094406
2512.462685	13111.923776
2513.936616	13098.916084
2515.411897	13071.509790
2516.886911	13068.242657
2518.358425	13050.773427
2519.831288	13045.444755
2521.302269	13023.218182
2522.774600	13008.000000
2524.241817	12972.913986
2525.712001	12947.981818
2527.180304	12927.806294
2528.648342	12910.592308
2530.116115	12898.244056
2531.583623	12884.843357
2533.050866	12866.632168
2534.514617	12857.433566
2535.979718	12839.860839
2537.442942	12840.193007
2538.907516	12838.810490
2540.368600	12851.662937
2541.831034	12851.932867
2543.293205	12854.047552
2544.751890	12874.348252
2546.215147	12899.745455
2547.673307	12926.541958
2549.132816	12930.244755
2550.587231	12926.532168
2552.046217	12905.449650
2553.503331	12881.990210
2554.958574	12860.262937
2556.413555	12829.100699
2557.866668	12801.159441
2559.321129	12735.874126
2560.773720	12687.911888
2562.226052	12661.469930
2563.676517	12641.624476
2565.129937	12635.465734
2566.578275	12629.941958
2568.029569	12642.511888
2569.478996	12645.377622
2570.924951	12665.514685
2572.373861	12688.670629
2573.819301	12708.344755
2575.266088	12724.547552
2576.711013	12710.862238
2578.155679	12722.711888
2579.601693	12705.826573
2581.044241	12670.169231
2582.488136	12643.200000
2583.928566	12614.334266
2585.370343	12597.279021
2586.810261	12573.420280
2588.251526	12568.745455
2589.689329	12566.388811
2591.130082	12564.893007
2592.565773	12580.381818
2594.004413	12591.755944
2595.441195	12627.053846
2596.876122	12654.002098
2598.313996	12660.527972
2599.746813	12665.762238
2601.180977	12664.763636
2602.613287	12679.923077
2604.046943	12667.818881
2605.478746	12652.309091
2606.910295	12625.465035
2608.341592	12577.091608
2609.771036	12535.143357
2611.200228	12488.946853
2612.627570	12466.302797
2614.056257	12417.186713
2615.484693	12364.072727
2616.909681	12330.813986
2618.336016	12288.374126
2619.760502	12272.073427
2621.186334	12232.753147
2622.608722	12204.183916
2624.032456	12157.541259
2625.454343	12113.532867
2626.875981	12092.566434
2628.295773	12069.241958
2629.716911	12059.232168
2631.137799	12036.693706
2632.555249	12047.374126
2633.975638	12072.067133
2635.392590	12077.562937
2636.809293	12101.480420
2638.225748	12104.940559
2639.641955	12106.003497
2641.057914	12065.781119
2642.472032	12040.125874
2643.885902	12039.029371
2645.297934	12030.720979
2646.711309	12041.539860
2648.121255	12050.492308
2649.534137	12062.955245
2650.943590	12075.518881
2652.352797	12077.554545
2653.760168	12055.943357
2655.170473	12045.393706
2656.578943	12029.039161
2657.985577	11996.234266
2659.391966	11972.388112
2660.796521	11972.227972
2662.202420	11980.354545
2663.606486	12022.873427
2665.010307	12074.147552
2666.413884	12126.350350
2667.815630	12161.195105
2669.218719	12192.940559
2670.618390	12199.329371
2672.019405	12232.683916
2673.417004	12239.427972
2674.817533	12247.530769
2676.214646	12235.716783
2677.613103	12238.127273
2679.009733	12232.593706
2680.406120	12243.423077
2681.802265	12254.769930
2683.196585	12268.227273
2684.592246	12250.223776
2685.984499	12245.091608
2687.378094	12235.885315
2688.769865	12219.381818
2690.162979	12214.049650
2691.554269	12227.194406
2692.943736	12226.424476
2694.332963	12213.153846
2695.721951	12214.784615
2697.112280	12203.033566
2698.497626	12217.733566
2699.885895	12230.233566
2701.272344	12217.281818
2702.658554	12227.816084
2704.044525	12232.089510
2705.427098	12221.558042
2706.811013	12241.718881
2708.194690	12240.160839
2709.578128	12235.639860
2710.958172	12228.455944
2712.339556	12237.763636
2713.719126	12213.586014
2715.100036	12215.545455
2716.479132	12211.127273
2717.856414	12204.121678
2719.235037	12226.127273
2720.611847	12224.606294
2721.988420	12220.608392
2723.364758	12220.006993
2724.739285	12197.115385
2726.115152	12182.196503
2727.487632	12145.727972
2728.863028	12121.460140
2730.233464	12083.314685
2731.605241	12059.813986
2732.976783	12053.363636
2734.346517	12058.767133
2735.717592	12082.431469
2737.086858	12092.476923
2738.455891	12098.141259
2739.823118	12109.583217
2741.190112	12095.233566
2742.556872	12095.684615
2743.923401	12091.613287
2745.288124	12115.832867
2746.652615	12116.765035
2748.016875	12133.595105
2749.380902	12142.710490
2750.744698	12159.211189
2752.105120	12157.720280
2753.468452	12143.395105
2754.826842	12118.367832
2756.188142	12068.141259
2757.546072	11999.088811
2758.906910	11945.397203
2760.265949	11883.140559
2761.621619	11843.425175
2762.980197	11795.397203
2764.335408	11782.425175
2765.690390	11746.069231
2767.043576	11725.609091
2768.399668	11679.834266
2769.752395	11664.394406
2771.104895	11644.938462
2772.457166	11605.669930
2773.810776	11585.238462
2775.161024	11573.665734
2776.509478	11580.090210
2777.860838	11614.574126
2779.208838	11633.546154
2780.558176	11661.968531
2781.905722	11668.830070
2783.253042	11678.194406
2784.600135	11656.234965
2785.945437	11659.183916
2787.290512	11648.955245
2788.635362	11635.077622
2789.979986	11614.016084
2791.321258	11610.165035
2792.663868	11617.615385
2794.006252	11636.001399
2795.348411	11638.044056
2796.687221	11642.184615
2798.028931	11658.248252
2799.367293	11653.606993
2800.706991	11613.925175
2802.044905	11599.937063
2803.381034	11588.248252
2804.716939	11571.309790
2806.054182	11559.367133
2807.389641	11563.255245
2808.724877	11564.583916
2810.058330	11584.214685
2811.393120	11594.151049
2812.724570	11586.641958
2814.058915	11581.803497
2815.388362	11557.368531
2816.719146	11531.055944
2818.049708	11518.511888
2819.378491	11511.149650
2820.708610	11498.083217
2822.036951	11485.632867
2823.365071	11471.458741
2824.691413	11459.304196
2826.019092	11455.244056
2827.343437	11447.353147
2828.669119	11420.900699
2829.993025	11405.733566
2831.316712	11382.692308
2832.641734	11366.116783
2833.963426	11343.439860
2835.284900	11325.762937
2836.606155	11317.546154
2837.927191	11288.462937
2839.246454	11283.030070
2840.567053	11271.967133
2841.885881	11246.246154
2843.204490	11221.640559
2844.521328	11196.633566
2845.837949	11153.987413
2847.154353	11119.170629
2848.468987	11086.813287
2849.784957	11056.304895
2851.097606	11043.607692
2852.411590	11049.136364
2853.725358	11043.956643
2855.038909	11065.346154
2856.350694	11088.799301
2857.660712	11085.053147
2858.972065	11089.724476
2860.280103	11105.700699
2861.589475	11105.181119
2862.898633	11126.277622
2864.207575	11114.106993
2865.514753	11114.357343
2866.820169	11111.926573
2868.126919	11113.990909
2869.431906	11116.846154
2870.736680	11126.809091
2872.039692	11137.656643
2873.345585	11116.625175
2874.646624	11126.243357
2875.948997	11119.365734
2877.249610	11104.702797
2878.551557	11093.662238
2879.853290	11055.713986
2881.151720	11043.700000
2882.451483	11001.436364
2883.749489	10963.884615
2885.047283	10949.979021
2886.343321	10941.497203
2887.640692	10936.783916
2888.936307	10921.682517
2890.231711	10929.548951
2891.526904	10908.307692
2892.818800	10911.221678
2894.113572	10903.732168
2895.405047	10862.461538
2896.697855	10835.891608
2897.990453	10787.704196
2899.279757	10765.041259
2900.570393	10753.777622
2901.859278	10751.698601
2903.149495	10757.919580
2904.436421	10748.452448
2905.724679	10752.344755
2907.011188	10763.141259
2908.297489	10788.176224
2909.583581	10788.113986
2910.867925	10768.932168
2912.155140	10769.997902
2913.437529	10773.059441
2914.721250	10774.471329
2916.003225	10771.788811
2917.284992	10778.164336
2918.565015	10785.387413
2919.847907	10786.058741
2921.129054	10780.137762
2922.406919	10777.209091
2923.687653	10761.426573
2924.965106	10748.252448
2926.242353	10728.702098
2927.517858	10709.173427
2928.796231	10698.371329
2930.069790	10676.497203
2931.346216	10665.465734
2932.620901	10665.847552
2933.893845	10667.553846
2935.168121	10680.443357
2936.440657	10672.561538
2937.712988	10670.329371
2938.982047	10654.666434
2940.253971	10657.556643
2941.524157	10624.633566
2942.794139	10595.843357
2944.063918	10580.902797
2945.331961	10577.939161
2946.598267	10576.025175
2947.864372	10572.220280
2949.131806	10570.528671
2950.397506	10564.243357
2951.663003	10572.657343
2952.928298	10574.258042
2954.190328	10584.204895
2955.453688	10591.553147
2956.716847	10589.520280
2957.978274	10603.212587
2959.241030	10629.496503
2960.502054	10651.627972
2961.761348	10656.360140
2963.020442	10652.845455
2964.279335	10641.835664
2965.538028	10615.930070
2966.796521	10617.190909
2968.053285	10599.955245
2969.309849	10597.073427
2970.564686	10595.823776
2971.820851	10601.676224
2973.073762	10591.500699
2974.328002	10579.598601
2975.582043	10534.427273
2976.834358	10512.750350
2978.086474	10487.330769
2979.336866	10464.723776
2980.590113	10427.075524
2981.838583	10395.730769
2983.089908	10375.390210
2984.337983	10344.926573
2985.585862	10329.513287
2986.833543	10293.644056
2988.081027	10272.778322
2989.326790	10243.705594
2990.572357	10222.693706
2991.819251	10229.951748
2993.062901	10234.239161
2994.307879	10240.328671
2995.549613	10240.433566
2996.794199	10242.003497
2998.037066	10270.748252
2999.276692	10269.340559
3000.519168	10289.914685
3001.758404	10284.829371
3002.998968	10305.186713
3004.237816	10299.449650
3005.476468	10313.387413
3006.713406	10309.114685
3007.951670	10310.090909
3009.188219	10308.844755
3010.424575	10314.244755
3011.660737	10307.116783
3012.895185	10316.429371
3014.129441	10302.379720
3015.363503	10293.993706
3016.595853	10284.265035
3017.826491	10270.517483
3019.059975	10247.037762
3020.291747	10240.018182
3021.521809	10226.830769
3022.751679	10221.145455
3023.979839	10218.754545
3025.209325	10225.809091
3026.437102	10221.716783
3027.664688	10228.036364
3028.893601	10227.111888
3030.117771	10228.214685
3031.344784	10233.951748
3032.568573	10210.860839
3033.793689	10200.027273
3035.017098	10197.237762
3036.240317	10175.763636
3037.461831	10159.087413
3038.686186	10164.420280
3039.905806	10158.881818
3041.126752	10140.715385
3042.347509	10125.916783
3043.566562	10116.855245
3044.786940	10108.745455
3046.004102	10104.246853
3047.222590	10113.311888
3048.439375	10114.661538
3049.655973	10113.912587
3050.872382	10106.277622
3052.085579	10092.023776
3053.301613	10091.027273
3054.514435	10048.534266
3055.730094	10013.065035
3056.941030	9970.379720
3058.153291	9927.287413
3059.365366	9895.379021
3060.577253	9871.633566
3061.787444	9847.190210
3062.997448	9819.566783
3064.207266	9809.374126
3065.415388	9798.552797
3066.623325	9770.213986
3067.829566	9769.844406
3069.037132	9737.038462
3070.243003	9746.847203
3071.448690	9747.888112
3072.654191	9724.636014
3073.857999	9712.330070
3075.063131	9695.444406
3076.266570	9674.123776
3077.468318	9659.898252
3078.669881	9641.757343
3079.871261	9613.281119
3081.072457	9574.551049
3082.271963	9550.035664
3083.471286	9510.337762
3084.671932	9515.206294
3085.870888	9499.053147
3087.066650	9491.189510
3088.265241	9499.830769
3089.460638	9500.858042
3090.657358	9509.748252
3091.850886	9514.206294
3093.047242	9514.408392
3094.241912	9512.673427
3095.433391	9509.607692
3096.629201	9492.930070
3097.820318	9475.119580
3099.012757	9476.890210
3100.202009	9481.381119
3101.394086	9500.158042
3102.584480	9500.713287
3103.771688	9502.951748
3104.960219	9513.195804
3106.150071	9536.835664
3107.336740	9520.795804
3108.523228	9511.669930
3109.709538	9490.327273
3110.897169	9458.169930
3112.081618	9427.911888
3113.264388	9413.286713
3114.449980	9393.960839
3115.633893	9377.277622
3116.816127	9349.923077
3117.998182	9346.242657
3119.180059	9333.755245
3120.361758	9338.388112
3121.541780	9295.465035
3122.720125	9272.893706
3123.901290	9250.027273
3125.079280	9240.299301
3126.257094	9233.518881
3127.434730	9233.904196
3128.610691	9231.177622
3129.786475	9230.790210
3130.963581	9230.693007
3132.139012	9226.386713
3133.312770	9212.732867
3134.484855	9201.627972
3135.658262	9178.194406
3136.831492	9181.225874
3138.003051	9171.831469
3139.175930	9161.787413
3140.345642	9159.110490
3141.516675	9149.750350
3142.686038	9124.855245
3143.853730	9105.091608
3145.024238	9076.146853
3146.190088	9060.567133
3147.360246	9050.527972
3148.525748	9038.213986
3149.691075	9035.357343
3150.856229	9034.746154
3152.021210	9020.543357
3153.187510	8992.165035
3154.349158	8957.210490
3155.512125	8919.332867
3156.674920	8855.190909
3157.837542	8811.262238
3158.998499	8771.189510
3160.159283	8743.958741
3161.319895	8711.967832
3162.478843	8695.237063
3163.637620	8699.393007
3164.796225	8696.790210
3165.954657	8704.748252
3167.112919	8692.794406
3168.269518	8689.847552
3169.424456	8684.273427
3170.580713	8669.353846
3171.735309	8678.011189
3172.889735	8679.060839
3174.042501	8658.330070
3175.195096	8652.473427
3176.347522	8659.304895
3177.499778	8671.538462
3178.651863	8674.700000
3179.800803	8678.334965
3180.952549	8682.674825
3182.102637	8704.296503
3183.251069	8724.851748
3184.399331	8740.081119
3185.547425	8760.186014
3186.695350	8793.545455
3187.841619	8809.895105
3188.987720	8823.149650
3190.132167	8828.097902
3191.276446	8836.994406
3192.420557	8831.472727
3193.565985	8804.894406
3194.708275	8778.841259
3195.850398	8752.554545
3196.992353	8740.447552
3198.134141	8713.259441
3199.275762	8701.793007
3200.414248	8712.381818
3201.554051	8701.242657
3202.695172	8698.445455
3203.833158	8697.033566
3204.969495	8685.467133
3206.105666	8682.441259
3207.243154	8659.548252
3208.378994	8659.792308
3209.516151	8638.341259
3210.648695	8647.939860
3211.785521	8622.592308
3212.917735	8614.409790
3214.051266	8587.389510
3215.184633	8562.078322
3216.314872	8526.950350
3217.447909	8500.360839
3218.577820	8462.594406
3219.709047	8435.597902
3220.837150	8422.253147
3221.968049	8419.879021
3223.097304	8408.288811
3224.224916	8417.592308
3225.349405	8418.525175
3226.478170	8435.815385
3227.603813	8436.618182
3228.729294	8440.208392
3229.853133	8450.227972
3230.979766	8455.813986
3232.101802	8441.298601
3233.225154	8432.280420
3234.348344	8430.186014
3235.471372	8407.904895
3236.592760	8393.493007
3237.713986	8380.292308
3238.833575	8377.372028
3239.953002	8380.863636
3241.070791	8382.169231
3242.191372	8385.806294
3243.308840	8412.294406
3244.426147	8421.142657
3245.543294	8436.424476
3246.658805	8457.586713
3247.775630	8465.992308
3248.889346	8464.933566
3250.005851	8469.313986
3251.120722	8469.755944
3252.232484	8465.861538
3253.344086	8447.427273
3254.457004	8417.053846
3255.569762	8403.005594
3256.679414	8395.425175
3257.790381	8380.872028
3258.901189	8368.859441
3260.010365	8351.929371
3261.117911	8354.469231
3262.226770	8356.524476
3263.335472	8364.837063
3264.441071	8364.688112
3265.547984	8358.002098
3266.653268	8326.091608
3267.759866	8305.715385
3268.863364	8300.876923
3269.968177	8284.588112
3271.072832	8258.847552
3272.174388	8236.306294
3273.275788	8217.309091
3274.378502	8214.073427
3275.481060	8209.822378
3276.580521	8189.204196
3277.682766	8174.962238
3278.781915	8168.651049
3279.879440	8150.516084
3280.976809	8133.917483
3282.076960	8124.275524
3283.174019	8087.746853
3284.270922	8073.532168
3285.367670	8054.845455
3286.459860	8037.000699
3287.556298	8044.220280
3288.651114	8026.649650
3289.745776	8010.669930
3290.838816	8019.165035
3291.931701	8024.935664
3293.022967	8006.396503
3294.115544	7970.409091
3295.206502	7944.988112
3296.295840	7908.459441
3297.385025	7899.272028
3298.475523	7852.265734
3299.562936	7829.457343
3300.650196	7843.804895
3301.738769	7838.287413
3302.827190	7847.630769
3303.911063	7870.432168
3304.999178	7879.362937
3306.084211	7875.291608
3307.167629	7888.992308
3308.252359	7898.080420
3309.335473	7905.034965
3310.419900	7892.308392
3311.501248	7867.859441
3312.583908	7848.281119
3313.664954	7826.800000
3314.745849	7800.906993
3315.825130	7776.706294
3316.904261	7772.333566
3317.984704	7763.348252
3319.062072	7763.786713
3320.140752	7788.943357
3321.217820	7797.345455
3322.294739	7813.283916
3323.370046	7819.837063
3324.445204	7820.799301
3325.521673	7822.635664
3326.595072	7825.258042
3327.668322	7828.922378
3328.742882	7827.501399
3329.815834	7814.446853
3330.887177	7803.724476
3331.959831	7793.344056
3333.029419	7785.488112
3334.100317	7760.837762
3335.169608	7734.958741
3336.240210	7714.629371
3337.309205	7691.893706
3338.376594	7704.352448
3339.442378	7695.325175
3340.512388	7684.774126
3341.579335	7676.788811
3342.643220	7666.905594
3343.709873	7678.595105
3344.774921	7679.391608
3345.838366	7676.532867
3346.901665	7662.636364
3347.964817	7647.100699
3349.027823	7617.842657
3350.090683	7594.743357
3351.151941	7568.559441
3352.210142	7535.276224
3353.272563	7506.711888
3354.331929	7490.420979
3355.391149	7478.760140
3356.451679	7484.381818
3357.507699	7482.865734
3358.566483	7488.311888
3359.620760	7492.579021
3360.677801	7491.839860
3361.733243	7471.943357
3362.789995	7478.857343
3363.845148	7479.072028
3364.898704	7483.105594
3365.950664	7491.813986
3367.005385	7498.148951
3368.057057	7502.359441
3369.108586	7515.074126
3370.161423	7510.265035
3371.211213	7516.118182
3372.262312	7517.674825
3373.310365	7518.172028
3374.361177	7498.963636
3375.408945	7493.041259
3376.456570	7483.318182
3377.504052	7472.265035
3378.549942	7484.534266
3379.597140	7465.112587
3380.641296	7470.194406
3381.688210	7467.257343
3382.733532	7453.938462
3383.775813	7463.679720
3384.817954	7463.113986
3385.861402	7450.658042
3386.904709	7416.493706
3387.946427	7388.747552
3388.988003	7370.892308
3390.029438	7363.375524
3391.069285	7363.540559
3392.107543	7358.323776
3393.147109	7368.921678
3394.186535	7372.664336
3395.224373	7375.337762
3396.260624	7379.566434
3397.296736	7362.669231
3398.334155	7346.890210
3399.368541	7317.027273
3400.404234	7296.258741
3401.439788	7283.400699
3402.472311	7278.360140
3403.507587	7284.416084
3404.539832	7285.954545
3405.571939	7286.926573
3406.602462	7298.894406
3407.634292	7298.451049
3408.665984	7306.530070
3409.694648	7313.525874
3410.723175	7310.985315
3411.753008	7293.585315
3412.782704	7271.647552
3413.809374	7273.475524
3414.837351	7264.197203
3415.862303	7253.726573
3416.890005	7235.233566
3417.914684	7219.432168
3418.940669	7200.569930
3419.965074	7181.070629
3420.989343	7166.971329
3422.012033	7146.357343
3423.034587	7113.448951
3424.058447	7092.546853
3425.079287	7068.183916
3426.099991	7062.293506
3427.122002	7060.157817
3428.140994	7060.195205
3429.159850	7060.824026
3430.180013	7060.462637
3431.197159	7057.529396
