-118.059454	12.893681
-115.389854	7.053846
-112.723189	3.945704
-110.057276	3.026074
-107.394295	3.751773
-104.729885	5.579620
-102.068405	7.966434
-99.405496	8.763636
-96.747693	9.995105
-94.088461	10.197902
-91.429977	12.933566
-88.774417	11.825175
-86.117429	11.666434
-83.465539	9.780420
-80.812218	10.378322
-78.161818	11.721678
-75.509988	15.146853
-72.863249	15.067133
-70.215081	15.903497
-67.567655	15.500000
-64.923143	15.230070
-62.277203	15.795804
-59.636344	16.572727
-56.994056	14.538462
-54.354677	15.119580
-51.713868	12.779021
-49.073800	13.433566
-46.438804	14.611189
-43.802380	16.367133
-41.168858	11.044056
-38.533908	10.595804
-35.904023	9.373427
-33.270546	7.700699
-30.642131	10.109091
-28.014450	13.137762
-25.385340	11.724476
-22.761287	-7.532867
-20.133645	-73.082517
-17.511056	-183.410490
-14.889199	-106.247552
-12.268072	310.811888
-9.647675	953.479720
-7.030167	1477.351049
-4.411230	1830.269231
-1.795178	2015.059441
0.820145	2030.464336
3.434741	1875.160839
6.046454	1550.600000
8.659596	1072.432867
11.267704	492.198601
13.879394	-42.062937
16.486053	-259.285315
19.094140	-169.069231
21.701503	-2.239161
24.303841	20.167832
26.909757	20.569930
29.510651	23.587413
32.112973	25.353147
34.710278	24.851049
37.311158	20.879720
39.907023	21.591608
42.504317	20.213287
45.100891	21.418182
47.692456	18.872727
50.285449	16.686014
52.875581	15.553147
55.467141	17.827972
58.055841	19.520979
60.645968	22.313287
63.231096	23.626573
65.817652	24.951049
68.403494	25.620280
70.986482	29.680420
73.570896	28.253147
76.148182	30.236364
78.729034	24.052448
81.307037	21.729371
83.884330	20.898601
86.463049	22.837063
89.036786	21.102098
91.611951	22.737762
94.184272	23.245455
96.755885	26.962238
99.324658	28.603497
101.894858	31.227273
104.462220	30.607692
107.031007	33.469231
109.596958	33.367832
112.160074	39.860839
114.726746	49.037063
117.284197	61.952448
119.847333	79.469231
122.405509	121.450350
124.967240	189.124476
127.524014	302.288112
130.082215	472.470629
132.635462	718.237762
135.188012	1032.431469
137.744112	1398.928671
140.295264	1786.994406
142.845719	2174.539161
145.395476	2515.577622
147.942414	2804.094406
150.488657	3014.031469
153.036325	3147.431469
155.583297	3210.925175
158.125334	3226.953147
160.666677	3212.671329
163.207327	3200.204895
165.749403	3186.503497
168.288667	3178.322378
170.825123	3168.651049
173.360887	3163.133566
175.898077	3150.979720
178.434576	3150.227972
180.968269	3144.185315
183.499158	3137.876923
186.029360	3132.572028
188.560986	3129.660839
191.089811	3126.048951
193.615837	3130.723077
196.141177	3129.726573
198.667942	3127.083217
201.191911	3117.852448
203.715195	3118.243357
206.237794	3112.269231
208.757600	3104.848951
211.276723	3103.625874
213.795163	3104.993706
216.315027	3107.902098
218.827890	3117.079021
221.344284	3124.572028
223.859996	3134.800000
226.370818	3141.768531
228.883065	3149.686713
231.392530	3153.856643
233.901316	3165.427972
236.409423	3169.246853
238.918955	3171.800000
241.423606	3177.143357
243.927581	3183.421678
246.432980	3189.185315
248.933504	3193.932168
251.437552	3200.646853
253.934628	3203.089510
256.435228	3211.774825
258.933056	3215.247552
261.430211	3212.502797
263.926693	3217.689510
266.418312	3216.030769
268.913451	3209.442657
271.405823	3200.379720
273.897525	3199.080420
276.386464	3193.728671
278.876827	3193.607692
281.364427	3201.951748
283.849268	3206.665035
286.337624	3214.057343
288.819040	3217.000000
291.303970	3219.882517
293.784055	3222.570629
296.267652	3215.241958
298.746406	3212.109790
301.226584	3212.465734
303.704009	3206.340559
306.180771	3201.900000
308.656870	3204.612587
311.130220	3218.205594
313.602908	3226.009790
316.074935	3232.374825
318.546301	3242.537762
321.014922	3243.065035
323.482885	3249.167133
325.952269	3243.899301
328.416831	3246.387413
330.884897	3243.576224
333.348143	3235.860839
335.810731	3230.223077
338.272663	3224.029371
340.733938	3229.981818
343.192479	3222.639161
345.652442	3211.780420
348.109672	3204.922378
350.566248	3192.999301
353.022170	3180.969231
355.475362	3158.218881
357.929977	3143.914685
360.379790	3123.129371
362.833099	3105.764336
365.281610	3084.379021
367.729469	3066.260140
370.178751	3054.116783
372.623239	3031.100699
375.069149	3014.530070
377.514409	3004.948252
379.956951	2988.836364
382.398845	2967.404196
384.840092	2950.523077
387.278623	2939.619580
389.718576	2921.762238
392.155815	2910.182517
394.590342	2894.345455
397.028357	2882.128671
399.461595	2868.350350
401.896254	2856.826573
404.326141	2847.282517
406.759513	2837.506993
409.188115	2825.239860
411.616075	2819.223776
414.045457	2815.102098
416.470073	2817.679021
418.896111	2812.023077
421.321508	2809.709091
423.746265	2803.109790
426.166264	2800.887413
428.587684	2796.792308
431.006407	2792.260140
433.426551	2791.323776
435.844000	2789.553147
438.262869	2794.035664
440.679045	2801.014685
443.090473	2801.484615
445.505379	2809.648951
447.917594	2809.291608
450.329175	2812.874825
452.740122	2811.038462
455.148383	2808.781119
457.556011	2802.400699
459.963007	2798.583916
462.369372	2802.806993
464.773054	2801.051049
467.176106	2802.008392
469.578528	2799.293007
471.980320	2799.374825
474.379435	2806.736364
476.779969	2805.234266
479.179874	2807.223077
481.575056	2803.611189
483.973705	2799.517483
486.367634	2791.266434
488.760937	2789.213287
491.153614	2779.981818
493.545666	2770.540559
495.939136	2757.404895
498.327894	2747.384615
500.713986	2737.434266
503.101498	2726.386713
505.488387	2718.955245
507.872612	2717.574126
510.258255	2713.178322
512.641237	2706.873427
515.021558	2708.342657
517.403298	2714.049650
519.782379	2711.565035
522.162879	2716.104895
524.540721	2716.179021
526.915908	2714.713287
529.290477	2707.722378
531.666464	2704.700699
534.039799	2705.352448
536.414551	2695.998601
538.784618	2680.470629
541.154069	2668.012587
543.524938	2654.820280
545.891127	2646.720979
548.258734	2627.609091
550.623695	2613.241259
552.988043	2600.551748
555.351778	2583.231469
557.716931	2567.782517
560.077412	2555.567133
562.439311	2543.954545
564.798569	2529.316084
567.155190	2515.606993
569.515255	2503.895804
571.868629	2486.689510
574.225448	2473.242657
576.579632	2451.604196
578.933208	2431.423077
581.286175	2415.306294
583.636510	2393.463636
585.988263	2378.603497
588.333339	2363.981818
590.683879	2352.812587
593.027745	2347.652448
595.377073	2340.169231
597.721752	2335.281818
600.063807	2320.075524
602.407279	2310.252448
604.748128	2298.337762
607.088375	2285.361538
609.426001	2275.512587
611.767062	2268.318182
614.103485	2266.603497
616.441325	2268.206993
618.776548	2270.476923
621.109155	2280.148951
623.443178	2280.371329
625.774587	2283.027972
628.105398	2280.827972
630.435612	2286.538462
632.765227	2283.009790
635.090220	2280.411189
637.420653	2273.539161
639.746466	2276.783916
642.069671	2282.532867
644.394293	2286.293007
646.716309	2282.642657
649.037731	2285.208392
651.356551	2284.619580
653.676786	2290.566434
655.996428	2302.455245
658.313469	2307.545455
660.629918	2310.697203
662.943769	2321.004895
665.259036	2330.669231
667.571706	2348.836364
669.885791	2371.225175
672.195276	2384.807692
674.506177	2395.377622
676.814485	2407.155944
679.122205	2415.630769
681.431339	2429.783217
683.735881	2441.704196
686.039837	2447.670629
688.343207	2450.843357
690.647991	2462.113287
692.948189	2473.237063
695.249801	2487.437063
697.550829	2505.771329
699.847274	2515.045455
702.145135	2533.082517
704.442412	2542.229371
706.739106	2552.980420
709.031224	2564.509790
711.326753	2571.040559
713.617708	2580.576923
715.910078	2588.546853
718.199873	2605.688112
720.489087	2614.748252
722.777722	2631.403497
725.063784	2650.421678
727.351261	2662.606993
729.636166	2681.916084
731.920494	2691.445455
734.202253	2698.797902
736.485426	2707.351049
738.768022	2714.277622
741.046062	2723.806993
743.325517	2737.434266
745.604395	2756.020979
747.882699	2768.079720
750.156453	2791.881818
752.431620	2813.513287
754.706214	2826.516084
756.978249	2844.205594
759.251697	2863.509091
761.522587	2874.537762
763.790921	2882.889510
766.060668	2887.240559
768.327861	2901.441259
770.594483	2915.267133
772.860535	2927.991608
775.124036	2931.760839
777.388950	2943.231469
779.653294	2949.717483
781.913109	2957.982517
784.174336	2967.994406
786.434996	2981.873427
788.693110	2985.469231
790.948679	2987.292308
793.207639	2992.745455
795.460100	3010.572028
797.717927	3018.946154
799.971236	3025.951748
802.222005	3027.374126
804.474186	3038.045455
806.723828	3045.741259
808.974883	3054.164336
811.221426	3063.032168
813.469381	3071.505594
815.714802	3080.915385
817.961634	3087.548951
820.207905	3091.313986
822.449671	3107.148951
824.694821	3116.310490
826.933498	3125.366434
829.175557	3126.981119
831.413118	3138.118881
833.652091	3149.183217
835.888537	3157.556643
838.126394	3163.360140
840.361726	3173.537762
842.594535	3194.065734
844.828755	3208.869930
847.060452	3226.116084
849.291595	3253.952448
851.522183	3276.801399
853.752217	3307.027273
855.981697	3336.096503
858.206695	3367.939161
860.435068	3413.465734
862.658961	3451.034965
864.884266	3489.817483
867.105095	3530.142657
869.329296	3574.143357
871.549024	3613.947552
873.770162	3650.041958
875.990750	3686.153846
878.208829	3718.816084
880.428317	3747.851049
882.643339	3775.486014
884.857814	3799.369231
887.071740	3831.423776
889.285120	3848.379021
891.497952	3871.460839
893.710238	3888.938462
895.920021	3902.809790
898.129259	3910.838462
900.337952	3910.070629
902.544146	3901.197203
904.751749	3885.676224
906.956854	3861.400000
909.161416	3834.455944
911.363483	3800.618881
913.566959	3757.700000
915.767941	3712.074825
917.968381	3669.995804
920.170230	3628.732168
922.365688	3575.305594
924.564505	3528.286713
926.758883	3477.867832
928.956619	3434.490909
931.149919	3387.205594
933.344628	3346.324476
935.536851	3301.099301
937.728535	3263.409790
939.919682	3226.400000
942.108346	3201.139161
944.296474	3182.897203
946.482121	3171.441259
948.671120	3164.437762
950.855696	3164.576923
953.039737	3166.852448
955.227128	3178.253147
957.406215	3182.957343
959.588653	3192.041259
961.770557	3188.710490
963.949986	3195.812587
966.126943	3195.205594
968.305308	3193.030070
970.485080	3190.602098
972.658503	3183.395105
974.835272	3180.747552
977.007634	3174.335664
979.181404	3156.582517
981.350770	3143.524476
983.523480	3123.269231
985.693725	3098.435664
987.863441	3062.958741
990.032628	3042.772028
992.197418	3017.092308
994.365549	2996.626573
996.529286	2971.110490
998.694429	2953.003497
1000.857113	2948.790909
1003.019272	2933.448252
1005.178974	2914.027273
1007.338151	2899.790909
1009.498735	2874.769930
1011.656865	2844.300699
1013.814470	2814.251748
1015.971552	2790.921678
1018.128110	2764.393007
1020.280289	2742.233566
1022.433875	2725.125175
1024.586939	2712.934266
1026.737554	2702.470629
1028.889576	2688.843357
1031.037224	2685.437762
1033.188204	2673.681818
1035.334813	2662.041958
1037.480903	2650.130070
1039.626475	2636.779021
1041.773452	2621.650350
1043.914140	2615.473427
1046.058158	2606.355245
1048.199735	2597.728671
1050.340796	2584.773427
1052.483261	2570.844056
1054.619447	2565.000699
1056.758958	2557.548951
1058.894115	2548.321678
1061.032596	2537.767832
1063.166723	2529.714685
1065.300337	2521.119580
1067.435356	2518.762937
1069.566025	2513.064336
1071.698099	2496.302797
1073.827744	2485.809790
1075.956877	2480.344056
1078.085498	2468.781119
1080.213608	2459.091608
1082.339292	2445.823077
1084.464466	2435.157343
1086.591044	2422.819580
1088.713284	2416.951748
1090.836929	2411.921678
1092.956239	2401.235664
1095.080779	2380.944755
1097.199073	2366.699301
1099.318772	2354.878322
1101.436052	2337.836364
1103.552826	2324.457343
1105.669093	2310.706294
1107.782944	2297.826573
1109.898200	2294.331469
1112.009132	2283.426573
1114.123377	2273.212587
1116.233301	2260.522378
1118.344629	2250.666434
1120.455452	2237.959441
1122.561959	2228.548951
1124.671776	2208.653846
1126.777278	2194.660140
1128.884183	2180.356643
1130.984873	2173.782517
1133.090775	2167.983217
1135.192368	2158.893007
1137.295364	2143.899301
1139.397859	2133.714685
1141.494147	2122.133566
1143.595643	2117.368531
1145.692835	2104.261538
1147.789530	2095.125874
1149.885726	2081.291608
1151.981425	2077.002098
1154.076625	2063.974126
1156.169429	2064.988112
1158.263636	2059.306993
1160.351651	2055.920979
1162.444864	2048.748252
1164.531889	2042.783217
1166.622213	2035.807692
1168.708250	2027.951748
1170.797584	2018.709790
1172.880737	2016.568531
1174.965292	2009.570629
1177.051249	2010.683217
1179.132924	2003.578322
1181.216001	1998.979021
1183.296692	1994.281119
1185.376891	1994.837063
1187.456599	1985.188112
1189.535816	1979.400000
1191.612651	1978.049650
1193.687105	1978.464336
1195.764850	1977.911189
1197.838326	1982.594406
1199.913202	1987.188811
1201.983811	1998.397902
1204.055821	1996.600699
1206.125456	1997.442657
1208.196491	2004.051748
1210.267038	2009.783217
1212.333324	2011.304196
1214.401011	2009.362238
1216.466326	2011.342657
1218.533041	2013.042657
1220.595500	2008.131469
1222.661244	2004.362937
1224.722734	2001.534965
1226.785625	2000.010490
1228.846148	1994.819580
1230.906187	1994.883217
1232.965744	1998.380420
1235.022935	2005.348951
1237.079645	2009.581119
1239.133991	2012.804196
1241.191619	2014.651748
1243.246884	2016.641958
1245.297908	2015.155944
1247.350332	2014.466434
1249.402276	2018.888112
1251.451862	2019.744056
1253.500969	2021.227972
1255.549598	2027.594406
1257.597748	2033.621678
1259.645419	2045.923776
1261.688860	2044.316783
1263.735577	2052.014685
1265.779940	2051.902797
1267.823827	2054.338462
1269.865362	2056.269231
1271.904548	2059.352448
1273.947007	2065.425175
1275.985243	2067.990909
1278.024878	2072.387413
1280.064038	2082.215385
1282.098979	2080.732168
1284.135319	2083.872028
1286.169315	2078.503497
1288.204708	2082.770629
1290.235889	2077.439161
1292.268467	2082.006993
1294.300574	2083.267832
1296.330340	2089.471329
1298.361504	2097.422378
1300.388460	2103.491608
1302.416814	2109.672727
1304.440963	2114.669930
1306.468378	2115.765035
1308.491590	2125.474825
1310.516200	2126.776923
1312.538476	2129.236364
1314.562149	2133.350350
1316.583489	2138.626573
1318.604361	2139.848252
1320.624766	2141.981119
1322.640978	2143.076224
1324.658587	2146.430070
1326.673868	2146.480420
1328.692408	2148.976224
1330.706759	2153.088811
1332.718784	2153.770629
1334.734066	2150.829371
1336.745163	2150.221678
1338.757657	2143.709091
1340.765968	2133.169930
1342.777534	2129.891608
1344.783062	2120.811888
1346.791845	2119.369930
1348.796450	2122.660839
1350.804309	2124.597203
1352.811706	2131.946853
1354.813072	2133.879720
1356.815834	2135.508392
1358.818137	2130.927972
1360.819980	2128.879720
1362.821363	2120.048951
1364.820433	2119.751748
1366.819044	2118.351049
1368.817197	2111.134965
1370.814891	2113.432867
1372.808423	2116.588811
1374.803351	2117.093007
1376.797821	2119.036364
1378.791835	2118.168531
1380.783542	2115.946154
1382.774794	2105.522378
1384.763740	2105.281119
1386.754081	2098.915385
1388.743967	2094.471329
1390.731549	2089.792308
1392.718678	2087.407692
1394.703505	2085.127273
1396.689727	2087.060140
1398.673649	2084.110490
1400.657118	2085.135664
1402.640134	2085.629371
1404.620853	2085.395105
1406.602966	2080.906294
1408.582783	2082.776923
1410.562148	2079.316783
1412.537375	2078.787413
1414.515840	2084.824476
1416.492012	2090.593706
1418.467735	2095.772727
1420.443008	2101.390210
1422.415990	2105.416783
1424.388524	2107.525175
1426.360610	2111.755245
1428.332249	2116.591608
1430.299759	2109.718182
1432.272343	2107.727273
1434.237122	2104.944056
1436.206972	2103.768531
1438.172699	2100.876224
1440.139818	2100.472727
1442.104654	2096.497902
1444.065370	2088.080420
1446.031154	2086.132168
1447.990983	2087.436364
1449.952206	2091.192308
1451.914821	2092.594406
1453.873321	2089.024476
1455.831378	2086.895804
1457.788994	2090.588112
1459.746167	2094.880420
1461.701065	2094.644755
1463.657356	2096.630769
1465.611372	2091.633566
1467.564947	2087.389510
1469.516250	2082.614685
1471.468946	2084.627273
1473.419369	2082.058042
1475.369354	2079.610490
1477.318900	2077.120979
1479.266177	2073.462238
1481.211186	2081.058741
1483.157588	2089.723776
1485.103552	2093.262937
1487.049079	2098.660839
1488.992340	2095.339860
1490.935166	2096.733566
1492.875728	2092.046853
1494.817681	2092.770629
1496.757372	2086.412587
1498.696629	2082.695804
1500.635450	2081.076923
1502.572012	2083.286014
1504.509965	2092.840559
1506.445659	2093.286713
1508.380920	2100.841958
1510.313925	2108.123077
1512.246497	2106.724476
1514.178637	2110.153846
1516.110345	2107.241259
1518.039799	2106.421678
1519.970644	2100.786713
1521.901057	2097.546154
1523.827398	2094.276923
1525.755130	2095.272028
1527.680611	2092.297902
1529.605663	2089.359441
1531.530286	2093.857343
1533.454480	2097.137063
1535.376426	2101.414685
1537.299763	2107.125175
1539.220853	2113.212587
1541.139700	2122.755944
1543.059935	2129.081818
1544.977928	2136.064336
1546.895494	2137.923077
1548.810818	2143.865035
1550.727532	2145.372028
1552.640191	2149.624476
1554.556054	2148.290210
1556.469677	2150.248252
1558.381062	2148.349650
1560.293837	2146.483916
1562.202562	2143.551049
1564.112676	2142.392308
1566.022367	2141.643357
1567.931635	2140.785315
1569.838669	2131.325874
1571.743470	2135.900000
1573.649660	2134.248951
1575.553618	2132.323776
1577.457155	2128.412587
1579.360272	2124.109091
1581.261159	2117.782517
1583.163435	2112.597902
1585.063483	2109.851049
1586.964918	2111.755944
1588.862320	2108.464336
1590.759303	2106.119580
1592.655868	2099.704196
1594.553821	2095.324476
1596.445939	2086.318182
1598.341250	2079.328671
1600.236144	2073.057343
1602.128816	2070.616783
1604.021071	2064.415385
1605.911107	2063.323077
1607.800727	2067.354545
1609.689932	2065.300699
1611.578722	2056.823776
1613.465294	2062.683916
1615.353254	2058.966434
1617.237197	2052.731469
1619.122527	2055.862937
1621.007444	2053.081818
1622.890147	2053.340559
1624.774237	2046.251748
1626.654315	2038.193007
1628.535781	2036.919580
1630.415036	2022.907692
1632.295677	2012.981119
1634.170514	2005.906993
1636.050332	2009.179720
1637.926146	2006.746154
1639.801549	2006.534266
1641.678338	2007.859441
1643.549331	2002.776224
1645.423505	2003.192308
1647.293680	2002.739161
1649.167037	1999.244755
1651.038190	1997.150350
1652.907141	1986.802098
1654.777477	1988.804196
1656.643821	1982.960140
1658.511550	1981.425874
1660.377080	1972.231469
1662.243996	1961.759441
1664.106923	1950.177622
1665.971235	1941.583916
1667.833351	1939.808392
1669.695062	1936.073427
1671.558159	1921.339161
1673.419060	1915.815385
1675.277769	1916.718182
1677.136074	1920.565035
1678.995764	1919.715385
1680.849686	1922.826573
1682.706782	1923.912587
1684.563475	1923.398601
1686.416191	1925.857343
1688.272079	1926.411888
1690.123993	1919.985315
1691.975506	1912.933566
1693.826618	1903.568531
1695.677330	1900.795105
1697.527641	1896.734965
1699.375767	1897.888811
1701.225278	1895.882517
1703.069040	1900.297902
1704.917751	1897.482517
1706.760716	1894.023077
1708.606848	1895.313986
1710.449017	1896.885315
1712.294352	1893.567133
1714.133946	1902.301399
1715.974924	1903.487413
1717.817285	1905.155245
1719.655690	1900.342657
1721.495478	1902.198601
1723.333091	1894.241958
1725.170308	1886.804196
1727.005352	1872.874825
1728.841779	1865.358741
1730.676034	1857.689510
1732.509894	1852.051748
1734.343360	1844.600699
1736.172881	1845.079021
1738.005560	1843.424476
1739.834295	1846.072028
1741.666187	1846.604196
1743.494137	1846.590210
1745.321696	1840.313287
1747.148862	1839.606993
1748.975637	1848.872727
1750.802020	1848.217483
1752.624467	1846.374126
1754.450069	1840.327972
1756.271736	1831.907692
1758.094785	1824.253147
1759.915672	1818.027972
1761.736171	1810.271329
1763.558051	1804.607692
1765.374231	1801.154545
1767.193563	1797.009790
1769.008968	1807.619580
1770.827523	1816.409091
1772.642153	1821.116084
1774.456396	1824.476224
1776.270253	1826.716084
1778.083723	1829.612587
1779.895040	1833.148951
1781.707737	1835.538462
1783.520049	1840.412587
1785.328443	1837.453147
1787.138217	1837.112587
1788.944077	1836.446853
1790.753082	1839.710490
1792.558174	1836.338462
1794.364647	1838.909091
1796.170736	1831.746853
1797.972914	1835.212587
1799.778237	1836.409790
1801.579651	1837.483217
1803.382445	1835.598601
1805.181333	1837.186014
1806.981602	1822.125175
1808.781489	1815.876923
1810.579234	1811.762937
1812.376599	1808.018881
1814.173584	1808.654545
1815.970188	1809.160839
1817.764653	1813.341958
1819.560497	1825.846853
1821.350686	1832.695804
1823.145772	1839.582517
1824.935206	1843.848951
1826.727776	1850.739860
1828.518211	1847.060140
1830.306512	1851.031469
1832.097948	1845.074126
1833.883738	1839.401399
1835.670908	1831.736364
1837.455946	1821.873427
1839.244118	1816.723776
1841.028404	1816.725874
1842.810560	1815.555944
1844.594096	1811.300000
1846.375503	1812.354545
1848.158289	1815.986713
1849.937194	1820.836364
1851.717479	1821.919580
1853.495637	1818.025874
1855.275174	1816.742657
1857.052586	1813.218881
1858.827874	1811.942657
1860.604540	1805.097902
1862.379084	1812.565734
1864.155006	1808.721678
1865.925307	1810.559441
1867.698736	1813.751049
1869.470045	1816.678322
1871.240983	1818.500000
1873.013299	1811.865035
1874.780001	1812.476224
1876.549829	1807.962238
1878.315793	1802.541259
1880.084880	1801.623776
1881.850106	1791.957343
1883.614964	1797.206294
1885.381199	1793.565035
1887.143575	1795.320979
1888.905584	1794.331469
1890.667225	1795.112587
1892.428500	1797.399301
1894.189407	1798.081818
1895.949948	1797.582517
1897.708379	1796.934266
1899.466444	1793.912587
1901.222402	1794.190909
1902.979736	1787.014685
1904.736705	1787.842657
1906.491567	1785.766434
1908.244325	1781.616084
1909.996718	1775.630769
1911.750488	1778.184615
1913.502154	1787.523077
1915.251718	1787.162238
1917.002657	1788.602797
1918.753234	1796.402797
1920.499971	1794.780420
1922.248085	1791.903497
1923.994099	1784.870629
1925.741488	1784.802098
1927.486780	1782.160839
1929.229974	1782.777622
1930.974543	1780.807692
1932.717017	1783.383217
1934.459130	1786.646853
1936.200883	1780.621329
1937.942276	1780.255245
1939.681576	1780.150699
1941.420517	1777.434965
1943.159099	1777.332517
1944.895590	1779.558042
1946.631723	1787.798252
1948.369230	1792.917483
1950.102915	1801.974476
1951.837975	1798.015385
1953.570946	1790.677972
1955.303561	1791.390909
1957.035820	1785.077972
1958.767722	1778.424476
1960.497538	1777.418881
1962.225269	1778.137063
1963.954375	1782.636364
1965.683126	1789.127972
1967.409793	1795.925874
1969.136106	1798.695804
1970.863792	1797.102797
1972.585942	1790.760839
1974.311193	1793.265734
1976.032637	1803.380420
1977.757182	1799.460839
1979.479646	1796.490210
1981.198308	1799.700000
1982.920068	1797.179021
1984.638026	1796.167832
1986.357357	1796.530070
1988.072889	1794.637762
1989.793241	1793.160839
1991.509795	1790.725874
1993.222552	1792.228671
1994.938405	1798.746853
1996.652186	1806.509790
1998.365617	1804.283217
2000.076977	1802.990210
2001.789709	1806.707692
2003.498651	1806.813287
2005.210685	1807.637063
2006.917211	1811.193007
2008.626828	1811.730769
2010.334379	1812.270629
2012.041581	1812.967832
2013.746718	1808.423776
2015.451509	1814.689510
2017.157671	1815.492308
2018.860051	1816.986014
2020.563802	1813.935664
2022.265491	1814.158042
2023.966835	1818.034965
2025.667833	1823.176923
2027.366770	1825.855245
2029.067079	1824.223077
2030.763613	1820.911888
2032.461518	1820.943357
2034.157364	1819.188811
2035.856296	1829.748951
2037.549742	1826.014685
2039.244559	1830.802797
2040.939034	1831.224476
2042.629740	1828.317483
2044.323530	1826.893007
2046.013553	1820.281818
2047.704947	1807.023077
2049.394288	1796.665035
2051.084999	1783.579021
2052.771947	1775.563636
2054.458556	1765.705594
2056.146534	1765.483217
2057.830753	1758.965734
2059.516343	1760.027273
2061.201593	1764.684615
2062.884794	1763.257343
2064.569366	1764.285315
2066.248475	1764.609790
2067.932369	1764.612587
2069.610802	1769.701399
2071.292313	1769.800000
2072.970072	1777.243357
2074.647495	1771.056643
2076.326287	1777.832867
2078.003037	1777.143357
2079.677745	1780.696503
2081.353822	1781.840559
2083.027859	1779.093007
2084.701560	1781.050350
2086.374926	1780.302797
2088.046253	1776.352448
2089.717246	1772.155245
2091.387905	1767.466434
2093.058230	1766.046154
2094.728221	1761.145455
2096.396176	1770.834266
2098.063798	1773.192308
2099.729385	1783.818182
2101.396341	1787.384615
2103.061264	1793.665734
2104.725855	1801.185315
2106.388414	1802.860140
2108.052341	1800.090210
2109.714237	1804.411888
2111.375803	1805.090210
2113.037037	1803.013986
2114.696243	1808.310490
2116.355118	1810.949650
2118.013664	1811.875524
2119.671880	1820.488811
2121.326372	1822.281818
2122.983929	1826.156643
2124.641157	1823.983217
2126.294663	1826.301399
2127.949537	1825.989510
2129.600692	1831.807692
2131.254910	1827.339161
2132.905411	1820.052448
2134.557278	1817.358042
2136.203737	1810.872028
2137.854951	1808.240559
2139.502451	1804.269930
2141.151318	1798.212587
2142.798166	1799.386713
2144.444689	1793.300699
2146.090886	1796.116783
2147.733375	1793.074126
2149.378922	1800.138462
2151.020762	1798.788811
2152.665659	1806.393007
2154.306850	1808.502797
2155.947719	1811.850350
2157.588263	1810.546853
2159.226795	1805.041259
2160.866693	1795.580420
2162.502891	1795.406294
2164.140455	1781.370629
2165.777697	1775.851748
2167.412929	1769.025874
2169.047840	1766.327972
2170.682428	1759.562238
2172.316696	1765.042657
2173.947270	1764.076923
2175.580896	1770.167133
2177.210830	1771.187413
2178.842129	1772.191608
2180.471423	1767.736364
2182.100398	1768.486713
2183.729053	1761.488112
2185.357389	1760.638462
2186.983723	1759.938462
2188.609738	1758.101399
2190.233751	1754.367832
2191.859130	1763.315385
2193.482508	1763.288811
2195.107251	1763.470629
2196.728313	1763.779720
2198.349058	1762.138462
2199.971168	1757.503497
2201.591280	1755.978322
2203.209395	1748.818881
2204.827195	1747.000000
2206.444680	1744.379720
2208.061849	1742.095804
2209.678703	1738.132867
2211.295241	1741.398601
2212.909787	1733.172028
2214.522340	1728.572727
2216.136257	1726.097203
2217.748183	1725.147552
2219.361472	1727.999301
2220.972771	1729.519580
2222.582080	1728.013287
2224.192753	1733.271329
2225.801437	1734.160839
2227.409808	1737.262937
2229.016193	1735.555944
2230.623941	1735.650350
2232.229702	1739.957343
2233.835152	1743.103497
2235.438617	1738.542657
2237.043445	1738.855245
2238.646289	1738.448951
2240.247150	1738.375524
2241.849374	1742.151748
2243.449616	1746.820280
2245.051220	1745.368531
2246.649171	1747.486713
2248.248485	1748.135664
2249.845819	1742.846154
2251.442845	1748.970629
2253.041233	1748.391608
2254.635972	1743.469231
2256.228734	1747.009091
2257.822859	1754.122378
2259.418345	1760.132867
2261.010186	1762.370629
2262.601721	1771.138462
2264.194618	1775.019580
2265.782205	1779.280420
2267.374488	1769.166434
2268.961465	1759.317483
2270.551469	1759.143357
2272.136169	1748.176923
2273.725563	1740.799301
2275.309655	1734.765035
2276.895107	1730.509790
2278.478591	1729.854545
2280.065100	1725.501399
2281.647976	1731.241958
2283.230549	1731.630769
2284.812818	1729.064336
2286.391457	1718.744755
2287.973121	1719.877622
2289.551156	1716.979021
2291.132214	1707.441958
2292.709645	1695.890909
2294.285113	1689.953846
2295.863603	1687.967832
2297.438469	1686.379021
2299.013034	1682.065035
2300.587299	1680.872727
2302.161263	1671.094406
2303.734926	1662.442657
2305.308290	1657.165734
2306.878035	1652.117483
2308.447481	1648.790210
2310.019945	1648.446154
2311.587135	1645.291608
2313.157343	1657.689510
2314.723936	1662.425175
2316.291889	1665.752448
2317.857886	1671.635664
2319.423586	1673.159441
2320.988988	1669.194406
2322.552437	1675.355245
2324.117245	1683.550350
2325.678445	1684.331469
2327.242659	1685.069930
2328.801611	1688.102797
2330.363578	1689.526573
2331.923593	1698.712587
2333.483314	1693.125874
2335.041085	1694.416084
2336.598561	1689.288112
2338.155743	1688.171329
2339.710977	1682.756643
2341.265918	1682.902098
2342.820564	1686.639161
2344.374917	1684.594406
2345.928977	1688.348252
2347.482742	1689.178322
2349.034564	1693.467832
2350.584442	1697.804196
2352.137328	1694.655944
2353.684972	1697.586713
2355.235623	1699.150350
2356.782683	1697.731469
2358.331101	1687.317483
2359.879228	1680.891608
2361.423766	1683.789510
2362.969662	1683.505594
2364.513620	1690.481119
2366.058935	1691.504895
2367.600665	1693.278322
2369.143752	1694.150350
2370.684903	1686.496503
2372.225765	1685.430769
2373.766338	1686.464336
2375.306622	1678.488811
2376.846617	1669.825175
2378.383034	1662.041259
2379.922452	1664.985315
2381.458293	1665.286713
2382.995490	1667.002797
2384.529112	1671.616084
2386.065734	1670.595804
2387.600426	1673.329371
2389.133188	1671.033566
2390.665663	1674.153147
2392.196210	1672.220979
2393.729755	1676.747552
2395.258089	1673.051748
2396.787780	1668.051748
2398.317184	1671.813986
2399.846304	1666.011189
2401.375139	1669.746853
2402.898768	1673.588811
2404.427033	1673.767133
2405.950096	1680.543357
2407.477792	1682.369231
2408.998649	1690.630769
2410.524139	1687.644056
2412.046068	1696.186014
2413.569353	1696.653846
2415.090716	1695.680420
2416.610160	1698.281119
2418.130959	1695.435664
2419.649840	1701.269231
2421.168438	1699.282517
2422.685119	1698.780420
2424.203154	1697.629371
2425.720908	1695.124476
2427.235111	1693.344056
2428.749033	1681.854545
2430.262675	1687.248252
2431.777672	1689.686713
2433.289120	1689.525175
2434.801923	1692.383916
2436.312812	1696.140559
2437.823423	1695.247552
2439.332122	1694.707692
2440.843807	1696.182517
2442.351949	1688.725874
2443.859813	1689.343357
2445.367399	1688.425874
2446.871444	1684.675524
2448.378474	1682.518182
2449.883597	1680.506993
2451.388441	1676.431469
2452.891379	1665.337762
2454.394041	1657.041259
2455.896426	1645.254545
2457.396906	1638.808392
2458.898739	1638.182517
2460.398667	1632.908392
2461.898320	1638.389510
2463.397698	1640.106294
2464.895173	1642.576923
2466.390746	1642.391608
2467.889299	1643.203497
2469.384324	1637.490909
2470.880701	1632.236364
2472.373552	1631.159441
2473.867756	1633.360140
2475.361686	1635.280420
2476.852092	1635.862937
2478.345476	1631.739161
2479.836962	1634.506993
2481.326551	1632.281818
2482.815868	1633.774126
2484.303289	1631.425175
2485.793686	1621.396503
2487.280565	1617.869231
2488.768795	1614.290909
2490.253508	1618.081119
2491.737952	1618.617483
2493.223746	1619.139860
2494.707649	1624.384615
2496.192902	1624.958042
2497.673022	1627.364336
2499.156115	1623.742657
2500.637317	1621.809790
2502.118250	1615.121678
2503.597294	1607.358741
2505.076069	1606.661538
2506.554576	1603.861538
2508.032815	1609.893706
2509.510785	1608.933566
2510.985250	1614.988112
2512.462685	1624.793706
2513.936616	1625.325874
2515.411897	1628.316783
2516.886911	1625.443357
2518.358425	1626.011888
2519.831288	1620.027273
2521.302269	1614.235664
2522.774600	1616.162238
2524.241817	1612.066434
2525.712001	1615.000699
2527.180304	1616.182517
2528.648342	1616.012587
2530.116115	1619.997203
2531.583623	1618.684615
2533.050866	1620.734965
2534.514617	1617.400000
2535.979718	1613.225175
2537.442942	1608.014685
2538.907516	1604.905594
2540.368600	1605.457343
2541.831034	1602.829371
2543.293205	1612.299301
2544.751890	1622.118881
2546.215147	1626.379021
2547.673307	1634.548951
2549.132816	1631.216783
2550.587231	1634.412587
2552.046217	1634.700000
2553.503331	1631.946853
2554.958574	1637.973427
2556.413555	1632.056643
2557.866668	1630.093007
2559.321129	1628.651748
2560.773720	1631.057343
2562.226052	1626.151049
2563.676517	1620.353147
2565.129937	1617.846154
2566.578275	1609.172727
2568.029569	1611.921678
2569.478996	1614.358741
2570.924951	1612.646154
2572.373861	1614.967133
2573.819301	1619.394406
2575.266088	1624.917483
2576.711013	1623.968531
2578.155679	1624.252448
2579.601693	1612.574825
2581.044241	1607.425874
2582.488136	1607.188112
2583.928566	1602.048252
2585.370343	1598.529371
2586.810261	1594.460839
2588.251526	1587.611888
2589.689329	1591.820979
2591.130082	1598.218881
2592.565773	1599.788811
2594.004413	1599.095105
2595.441195	1601.590210
2596.876122	1599.525175
2598.313996	1601.572028
2599.746813	1597.033566
2601.180977	1593.646154
2602.613287	1591.104895
2604.046943	1592.365035
2605.478746	1590.714685
2606.910295	1599.365734
2608.341592	1598.341958
2609.771036	1601.209790
2611.200228	1600.677622
2612.627570	1607.018881
2614.056257	1607.939161
2615.484693	1606.180420
2616.909681	1595.230070
2618.336016	1593.634266
2619.760502	1592.597902
2621.186334	1592.541259
2622.608722	1585.574126
2624.032456	1582.527273
2625.454343	1573.669231
2626.875981	1576.193007
2628.295773	1573.026573
2629.716911	1575.041259
2631.137799	1571.179720
2632.555249	1570.857343
2633.975638	1565.530769
2635.392590	1564.948951
2636.809293	1571.404895
2638.225748	1571.518881
2639.641955	1562.662937
2641.057914	1560.083217
2642.472032	1557.776923
2643.885902	1559.411888
2645.297934	1553.822378
2646.711309	1552.777622
2648.121255	1546.116783
2649.534137	1547.823077
2650.943590	1547.309091
2652.352797	1551.625175
2653.760168	1558.021678
2655.170473	1558.229371
2656.578943	1552.195804
2657.985577	1556.223776
2659.391966	1549.744755
2660.796521	1549.712587
2662.202420	1547.612587
2663.606486	1551.294406
2665.010307	1548.098601
2666.413884	1549.663636
2667.815630	1548.503497
2669.218719	1548.883916
2670.618390	1545.657343
2672.019405	1546.242657
2673.417004	1540.222378
2674.817533	1541.419580
2676.214646	1538.468531
2677.613103	1541.137063
2679.009733	1541.312587
2680.406120	1544.394406
2681.802265	1541.388112
2683.196585	1541.215385
2684.592246	1531.768531
2685.984499	1526.932168
2687.378094	1521.954545
2688.769865	1523.946853
2690.162979	1519.983217
2691.554269	1519.608392
2692.943736	1524.105594
2694.332963	1528.302797
2695.721951	1528.350350
2697.112280	1531.651748
2698.497626	1536.683916
2699.885895	1540.194406
2701.272344	1539.655944
2702.658554	1542.204196
2704.044525	1539.790909
2705.427098	1542.144755
2706.811013	1539.323077
2708.194690	1535.613287
2709.578128	1532.475524
2710.958172	1533.221678
2712.339556	1527.001399
2713.719126	1524.802797
2715.100036	1526.299301
2716.479132	1532.908392
2717.856414	1532.054545
2719.235037	1530.025175
2720.611847	1519.373427
2721.988420	1521.211189
2723.364758	1518.759441
2724.739285	1512.623776
2726.115152	1505.311888
2727.487632	1509.935664
2728.863028	1507.906294
2730.233464	1510.309091
2731.605241	1518.100000
2732.976783	1521.491608
2734.346517	1526.344056
2735.717592	1531.351049
2737.086858	1522.388112
2738.455891	1525.168531
2739.823118	1521.342657
2741.190112	1520.753846
2742.556872	1514.184615
2743.923401	1515.463636
2745.288124	1509.095105
2746.652615	1508.653147
2748.016875	1511.062238
2749.380902	1509.762937
2750.744698	1510.662937
2752.105120	1507.195105
2753.468452	1498.286014
2754.826842	1493.002098
2756.188142	1486.823077
2757.546072	1485.978322
2758.906910	1474.361538
2760.265949	1474.550350
2761.621619	1469.444755
2762.980197	1468.931469
2764.335408	1469.718182
2765.690390	1470.255944
2767.043576	1469.712587
2768.399668	1475.951049
2769.752395	1480.880420
2771.104895	1481.784615
2772.457166	1476.911888
2773.810776	1474.973427
2775.161024	1466.437063
2776.509478	1464.779720
2777.860838	1453.592308
2779.208838	1447.015385
2780.558176	1440.446853
2781.905722	1433.361538
2783.253042	1430.225874
2784.600135	1432.254545
2785.945437	1439.479021
2787.290512	1442.269231
2788.635362	1441.673427
2789.979986	1445.202098
2791.321258	1447.155245
2792.663868	1454.328671
2794.006252	1454.080420
2795.348411	1458.035664
2796.687221	1456.204196
2798.028931	1455.369231
2799.367293	1459.434965
2800.706991	1461.944056
2802.044905	1468.171329
2803.381034	1467.951049
2804.716939	1464.776224
2806.054182	1465.979021
2807.389641	1469.967832
2808.724877	1470.490909
2810.058330	1475.651049
2811.393120	1478.880420
2812.724570	1476.962238
2814.058915	1482.331469
2815.388362	1479.908392
2816.719146	1483.200699
2818.049708	1485.367832
2819.378491	1482.167133
2820.708610	1477.545455
2822.036951	1483.646154
2823.365071	1483.909790
2824.691413	1481.000000
2826.019092	1479.983916
2827.343437	1476.570629
2828.669119	1474.334266
2829.993025	1473.214685
2831.316712	1465.703497
2832.641734	1467.259441
2833.963426	1458.237063
2835.284900	1454.518881
2836.606155	1453.086014
2837.927191	1453.399301
2839.246454	1444.450350
2840.567053	1436.616783
2841.885881	1424.368531
2843.204490	1422.762238
2844.521328	1416.831469
2845.837949	1414.324476
2847.154353	1411.501399
2848.468987	1408.990909
2849.784957	1408.902098
2851.097606	1406.459441
2852.411590	1409.435664
2853.725358	1409.308392
2855.038909	1406.784615
2856.350694	1408.408392
2857.660712	1405.494406
2858.972065	1406.291608
2860.280103	1403.267832
2861.589475	1413.226573
2862.898633	1412.964336
2864.207575	1415.139161
2865.514753	1418.218881
2866.820169	1420.894406
2868.126919	1425.913986
2869.431906	1426.206993
2870.736680	1427.488811
2872.039692	1426.832867
2873.345585	1417.426573
2874.646624	1413.065734
2875.948997	1407.271329
2877.249610	1405.406294
2878.551557	1400.925175
2879.853290	1401.315385
2881.151720	1400.074825
2882.451483	1404.516084
2883.749489	1399.402797
2885.047283	1395.346853
2886.343321	1389.627273
2887.640692	1382.913287
2888.936307	1374.211189
2890.231711	1375.844755
2891.526904	1372.891608
2892.818800	1373.933566
2894.113572	1375.492308
2895.405047	1377.126573
2896.697855	1377.115385
2897.990453	1374.837762
2899.279757	1375.810490
2900.570393	1369.578322
2901.859278	1361.390909
2903.149495	1359.633566
2904.436421	1350.779021
2905.724679	1350.779021
2907.011188	1349.448951
2908.297489	1348.276923
2909.583581	1345.129371
2910.867925	1347.222378
2912.155140	1348.490909
2913.437529	1354.370629
2914.721250	1359.124476
2916.003225	1357.989510
2917.284992	1356.596503
2918.565015	1357.425175
2919.847907	1353.009790
2921.129054	1353.976224
2922.406919	1356.891608
2923.687653	1352.130769
2924.965106	1350.548951
2926.242353	1354.859441
2927.517858	1356.294406
2928.796231	1356.863636
2930.069790	1347.271329
2931.346216	1345.843357
2932.620901	1343.569231
2933.893845	1341.048951
2935.168121	1340.070629
2936.440657	1337.848252
2937.712988	1333.707692
2938.982047	1325.125175
2940.253971	1319.519580
2941.524157	1316.688112
2942.794139	1307.298601
2944.063918	1300.556643
2945.331961	1297.060140
2946.598267	1303.789510
2947.864372	1307.471329
2949.131806	1309.869930
2950.397506	1310.110490
2951.663003	1314.492308
2952.928298	1312.158042
2954.190328	1306.859441
2955.453688	1299.641259
2956.716847	1296.290210
2957.978274	1289.120280
2959.241030	1286.202797
2960.502054	1287.962238
2961.761348	1290.755944
2963.020442	1290.723077
2964.279335	1287.553846
2965.538028	1290.918182
2966.796521	1302.616084
2968.053285	1302.722378
2969.309849	1303.189510
2970.564686	1303.844056
2971.820851	1307.580420
2973.073762	1300.311189
2974.328002	1297.030070
2975.582043	1292.911189
2976.834358	1285.039860
2978.086474	1279.047552
2979.336866	1269.974126
2980.590113	1272.830070
2981.838583	1276.306294
2983.089908	1275.092308
2984.337983	1276.988811
2985.585862	1280.572028
2986.833543	1288.173427
2988.081027	1286.932867
2989.326790	1289.686713
2990.572357	1286.679021
2991.819251	1281.976923
2993.062901	1276.403497
2994.307879	1272.275524
2995.549613	1269.956643
2996.794199	1268.378322
2998.037066	1266.969930
2999.276692	1266.995804
3000.519168	1273.465035
3001.758404	1281.701399
3002.998968	1282.665734
3004.237816	1284.037063
3005.476468	1284.239161
3006.713406	1284.060839
3007.951670	1278.200699
3009.188219	1281.066434
3010.424575	1274.454545
3011.660737	1274.597203
3012.895185	1271.474825
3014.129441	1268.458042
3015.363503	1271.383916
3016.595853	1271.918182
3017.826491	1268.060140
3019.059975	1272.545455
3020.291747	1279.717483
3021.521809	1281.609790
3022.751679	1277.306294
3023.979839	1290.372727
3025.209325	1292.580420
3026.437102	1295.943357
3027.664688	1293.167133
3028.893601	1289.873427
3030.117771	1293.376923
3031.344784	1291.309790
3032.568573	1285.847552
3033.793689	1285.359441
3035.017098	1283.281818
3036.240317	1273.995804
3037.461831	1271.000000
3038.686186	1274.191608
3039.905806	1273.646853
3041.126752	1269.633566
3042.347509	1265.644755
3043.566562	1262.355944
3044.786940	1259.693706
3046.004102	1252.678322
3047.222590	1246.804196
3048.439375	1246.319580
3049.655973	1245.720979
3050.872382	1241.836364
3052.085579	1246.655245
3053.301613	1247.138462
3054.514435	1246.081818
3055.730094	1243.504895
3056.941030	1239.298601
3058.153291	1236.081818
3059.365366	1230.241958
3060.577253	1224.790210
3061.787444	1223.260839
3062.997448	1219.459790
3064.207266	1212.495804
3065.415388	1207.401748
3066.623325	1214.072727
3067.829566	1210.823427
3069.037132	1203.912587
3070.243003	1209.083566
3071.448690	1210.465035
3072.654191	1215.168881
3073.857999	1217.584615
3075.063131	1215.800350
3076.266570	1219.026573
3077.468318	1214.117133
3078.669881	1209.800699
3079.871261	1209.679720
3081.072457	1210.468531
3082.271963	1205.706294
3083.471286	1200.818182
3084.671932	1200.239860
3085.870888	1191.333566
3087.066650	1188.282517
3088.265241	1186.106993
3089.460638	1182.667133
3090.657358	1179.205594
3091.850886	1176.408392
3093.047242	1180.121678
3094.241912	1182.353147
3095.433391	1181.595804
3096.629201	1186.991608
3097.820318	1188.655245
3099.012757	1183.326573
3100.202009	1183.539860
3101.394086	1186.858741
3102.584480	1185.774825
3103.771688	1181.092308
3104.960219	1177.805594
3106.150071	1184.455245
3107.336740	1182.629371
3108.523228	1180.100699
3109.709538	1174.906993
3110.897169	1176.370629
3112.081618	1168.090909
3113.264388	1159.323776
3114.449980	1161.039860
3115.633893	1159.412587
3116.816127	1157.344755
3117.998182	1154.850350
3119.180059	1157.183916
3120.361758	1163.681119
3121.541780	1156.327972
3122.720125	1160.441259
3123.901290	1157.569930
3125.079280	1156.962238
3126.257094	1148.406294
3127.434730	1145.475524
3128.610691	1144.524476
3129.786475	1144.318182
3130.963581	1146.451049
3132.139012	1148.391608
3133.312770	1150.948951
3134.484855	1148.734965
3135.658262	1142.621678
3136.831492	1148.273427
3138.003051	1146.866434
3139.175930	1149.797902
3140.345642	1144.300699
3141.516675	1143.189510
3142.686038	1144.797902
3143.853730	1146.951049
3145.024238	1148.384615
3146.190088	1149.995804
3147.360246	1146.630769
3148.525748	1144.276224
3149.691075	1149.159441
3150.856229	1151.647552
3152.021210	1152.859441
3153.187510	1154.109091
3154.349158	1146.831469
3155.512125	1143.747552
3156.674920	1136.813986
3157.837542	1124.951748
3158.998499	1114.501399
3160.159283	1108.613287
3161.319895	1102.713287
3162.478843	1104.718182
3163.637620	1103.946154
3164.796225	1103.011888
3165.954657	1101.348252
3167.112919	1104.716783
3168.269518	1106.472028
3169.424456	1106.711189
3170.580713	1104.362238
3171.735309	1102.222378
3172.889735	1098.674825
3174.042501	1096.730070
3175.195096	1092.750350
3176.347522	1091.644056
3177.499778	1088.494406
3178.651863	1087.548951
3179.800803	1085.464336
3180.952549	1094.113986
3182.102637	1096.737762
3183.251069	1103.080420
3184.399331	1109.181119
3185.547425	1114.909091
3186.695350	1113.120280
3187.841619	1112.386713
3188.987720	1109.532168
3190.132167	1107.566434
3191.276446	1105.194406
3192.420557	1102.211888
3193.565985	1097.709790
3194.708275	1096.426573
3195.850398	1091.346853
3196.992353	1094.834965
3198.134141	1095.982517
3199.275762	1097.625874
3200.414248	1096.197203
3201.554051	1097.113986
3202.695172	1098.478322
3203.833158	1101.558741
3204.969495	1098.951049
3206.105666	1099.823077
3207.243154	1095.248252
3208.378994	1099.023776
3209.516151	1095.164336
3210.648695	1095.345455
3211.785521	1092.469930
3212.917735	1088.518182
3214.051266	1081.057343
3215.184633	1078.011888
3216.314872	1069.517483
3217.447909	1068.151748
3218.577820	1059.584615
3219.709047	1057.978322
3220.837150	1055.848951
3221.968049	1057.248951
3223.097304	1052.748252
3224.224916	1056.493706
3225.349405	1055.677622
3226.478170	1052.086014
3227.603813	1050.979021
3228.729294	1051.316084
3229.853133	1048.444755
3230.979766	1051.762238
3232.101802	1046.705594
3233.225154	1044.234266
3234.348344	1043.006294
3235.471372	1036.751049
3236.592760	1036.410490
3237.713986	1039.588112
3238.833575	1037.039860
3239.953002	1037.232168
3241.070791	1045.393007
3242.191372	1050.952448
3243.308840	1054.977622
3244.426147	1059.460140
3245.543294	1055.190210
3246.658805	1055.530769
3247.775630	1055.359441
3248.889346	1060.094406
3250.005851	1061.415385
3251.120722	1061.041958
3252.232484	1058.004895
3253.344086	1056.867133
3254.457004	1056.914685
3255.569762	1051.869231
3256.679414	1045.567832
3257.790381	1042.074126
3258.901189	1033.335664
3260.010365	1033.104895
3261.117911	1033.800699
3262.226770	1043.255245
3263.335472	1042.892308
3264.441071	1045.861538
3265.547984	1043.699301
3266.653268	1043.699301
3267.759866	1040.891608
3268.863364	1038.425874
3269.968177	1033.220280
3271.072832	1036.281119
3272.174388	1032.536364
3273.275788	1034.358042
3274.378502	1035.931469
3275.481060	1039.223077
3276.580521	1039.225874
3277.682766	1039.202098
3278.781915	1035.816084
3279.879440	1030.223077
3280.976809	1024.209091
3282.076960	1018.148951
3283.174019	1009.697902
3284.270922	1012.048252
3285.367670	1005.222378
3286.459860	1008.318881
3287.556298	1009.295804
3288.651114	1010.532867
3289.745776	1014.858741
3290.838816	1016.337762
3291.931701	1012.654545
3293.022967	1008.018182
3294.115544	1004.095105
3295.206502	1004.423776
3296.295840	995.676224
3297.385025	995.422378
3298.475523	987.437063
3299.562936	988.940559
3300.650196	986.065734
3301.738769	986.869930
3302.827190	984.706993
3303.911063	985.863636
3304.999178	982.004895
3306.084211	981.913986
3307.167629	982.323077
3308.252359	980.865035
3309.335473	973.770629
3310.419900	977.018881
3311.501248	975.041259
3312.583908	978.810490
3313.664954	975.669231
3314.745849	975.960140
3315.825130	973.855245
3316.904261	980.427273
3317.984704	977.572028
3319.062072	984.936364
3320.140752	992.159441
3321.217820	993.838462
3322.294739	1001.695105
3323.370046	1008.344755
3324.445204	1010.291608
3325.521673	1010.639161
3326.595072	1003.996503
3327.668322	1000.755245
3328.742882	999.342657
3329.815834	995.084615
3330.887177	983.405594
3331.959831	987.751748
3333.029419	984.702098
3334.100317	981.952448
3335.169608	974.779720
3336.240210	969.504895
3337.309205	963.906993
3338.376594	961.375524
3339.442378	955.442657
3340.512388	952.441259
3341.579335	950.451748
3342.643220	945.000699
3343.709873	940.639161
3344.774921	949.766434
3345.838366	947.220979
3346.901665	949.395804
3347.964817	943.600699
3349.027823	945.341958
3350.090683	942.511189
3351.151941	945.437762
3352.210142	943.322378
3353.272563	942.291608
3354.331929	938.383916
3355.391149	940.671329
3356.451679	941.510490
3357.507699	951.073427
3358.566483	952.306993
3359.620760	958.929371
3360.677801	958.295105
3361.733243	960.651049
3362.789995	962.924476
3363.845148	965.441259
3364.898704	959.959441
3365.950664	958.164336
3367.005385	950.050350
3368.057057	944.113986
3369.108586	936.805594
3370.161423	939.315385
3371.211213	934.220979
3372.262312	936.300699
3373.310365	935.468531
3374.361177	936.124476
3375.408945	937.806294
3376.456570	938.084615
3377.504052	930.696503
3378.549942	933.418182
3379.597140	930.092308
3380.641296	928.112587
3381.688210	929.511888
3382.733532	934.527273
3383.775813	931.976224
3384.817954	936.865035
3385.861402	935.372028
3386.904709	932.204196
3387.946427	930.615385
3388.988003	928.186014
3390.029438	923.878322
3391.069285	927.387413
3392.107543	925.386014
3393.147109	931.525874
3394.186535	932.193007
3395.224373	933.599301
3396.260624	932.497902
3397.296736	931.048252
3398.334155	929.907692
3399.368541	934.911888
3400.404234	933.504196
3401.439788	933.597203
3402.472311	934.730070
3403.507587	931.830769
3404.539832	928.761538
3405.571939	930.325175
3406.602462	926.889510
3407.634292	923.756643
3408.665984	919.453846
3409.694648	918.796503
3410.723175	922.548252
3411.753008	924.501399
3412.782704	921.865035
3413.809374	926.217483
3414.837351	924.975524
3415.862303	925.018881
3416.890005	921.979720
3417.914684	920.359441
3418.940669	922.091608
3419.965074	915.570629
3420.989343	913.290909
3422.012033	914.855245
3423.034587	908.395105
3424.058447	905.782517
3425.079287	903.132168
3426.099991	901.193007
3427.122002	899.818631
3428.140994	899.159740
3429.159850	899.367033
3430.180013	900.591209
3431.197159	902.982967
