-118.059454	-4.237088
-115.389854	-0.910989
-112.723189	1.547702
-110.057276	3.286014
-107.394295	4.450974
-104.729885	5.189610
-102.068405	5.648951
-99.405496	5.546853
-96.747693	6.878322
-94.088461	8.473427
-91.429977	9.625874
-88.774417	8.558741
-86.117429	6.645455
-83.465539	3.767133
-80.812218	2.177622
-78.161818	-0.869930
-75.509988	-0.812587
-72.863249	-1.748951
-70.215081	0.044755
-67.567655	-2.091608
-64.923143	-0.299301
-62.277203	2.783217
-59.636344	5.448951
-56.994056	5.925874
-54.354677	4.837762
-51.713868	3.270629
-49.073800	6.353147
-46.438804	5.911888
-43.802380	7.105594
-41.168858	4.269930
-38.533908	2.863636
-35.904023	0.816783
-33.270546	2.695804
-30.642131	2.325874
-28.014450	4.446154
-25.385340	3.934965
-22.761287	-4.713986
-20.133645	-32.770629
-17.511056	-91.880420
-14.889199	-71.600000
-12.268072	144.406993
-9.647675	447.613986
-7.030167	692.284615
-4.411230	859.301399
-1.795178	948.729371
0.820145	955.100000
3.434741	884.040559
6.046454	733.156643
8.659596	511.330769
11.267704	233.750350
13.879394	-29.363636
16.486053	-136.639161
19.094140	-71.547552
21.701503	-3.699301
24.303841	4.816084
26.909757	3.998601
29.510651	7.993007
32.112973	8.720979
34.710278	9.467832
37.311158	9.575524
39.907023	11.813986
42.504317	9.379021
45.100891	7.911888
47.692456	5.815385
50.285449	5.672028
52.875581	7.000000
55.467141	7.673427
58.055841	7.789510
60.645968	10.733566
63.231096	10.948252
65.817652	11.401399
68.403494	9.594406
70.986482	12.191608
73.570896	12.461538
76.148182	12.565035
78.729034	12.413287
81.307037	14.155944
83.884330	16.081119
86.463049	14.538462
89.036786	15.554545
91.611951	14.375524
94.184272	12.476923
96.755885	14.086014
99.324658	12.486713
101.894858	13.904196
104.462220	14.132168
107.031007	15.561538
109.596958	18.609091
112.160074	23.691608
114.726746	26.831469
117.284197	32.607692
119.847333	43.241958
122.405509	63.402098
124.967240	97.023776
127.524014	156.794406
130.082215	249.592308
132.635462	383.746853
135.188012	551.969231
137.744112	743.431469
140.295264	948.241259
142.845719	1147.239860
145.395476	1327.852448
147.942414	1471.225874
150.488657	1578.056643
153.036325	1644.338462
155.583297	1675.379021
158.125334	1682.758741
160.666677	1685.495804
163.207327	1683.037063
165.749403	1677.192308
168.288667	1672.618182
170.825123	1668.395105
173.360887	1663.356643
175.898077	1658.244755
178.434576	1649.826573
180.968269	1648.566434
183.499158	1640.923077
186.029360	1636.037063
188.560986	1633.393007
191.089811	1632.491608
193.615837	1631.149650
196.141177	1630.090909
198.667942	1634.364336
201.191911	1634.962937
203.715195	1632.974825
206.237794	1629.684615
208.757600	1633.407692
211.276723	1635.037762
213.795163	1632.669930
216.315027	1632.973427
218.827890	1635.964336
221.344284	1633.883217
223.859996	1640.185315
226.370818	1640.298601
228.883065	1644.644056
231.392530	1648.869231
233.901316	1651.918182
236.409423	1656.347552
238.918955	1665.671329
241.423606	1663.069930
243.927581	1670.125874
246.432980	1672.506294
248.933504	1678.218881
251.437552	1679.520979
253.934628	1686.149650
256.435228	1680.825175
258.933056	1684.159441
261.430211	1691.195105
263.926693	1693.728671
266.418312	1694.746154
268.913451	1691.666434
271.405823	1685.426573
273.897525	1688.325175
276.386464	1680.215385
278.876827	1679.186713
281.364427	1674.339161
283.849268	1669.827972
286.337624	1664.010490
288.819040	1668.302098
291.303970	1670.565734
293.784055	1672.564336
296.267652	1677.290909
298.746406	1680.438462
301.226584	1685.519580
303.704009	1687.396503
306.180771	1686.109091
308.656870	1688.890909
311.130220	1689.234965
313.602908	1689.046853
316.074935	1688.658741
318.546301	1693.216783
321.014922	1689.453147
323.482885	1689.777622
325.952269	1689.172727
328.416831	1690.057343
330.884897	1687.206993
333.348143	1681.511189
335.810731	1674.290210
338.272663	1676.932867
340.733938	1678.603497
343.192479	1678.442657
345.652442	1675.032168
348.109672	1676.204196
350.566248	1669.823077
353.022170	1664.741259
355.475362	1655.967133
357.929977	1652.639860
360.379790	1643.991608
362.833099	1633.512587
365.281610	1617.630769
367.729469	1612.313986
370.178751	1594.981119
372.623239	1581.732867
375.069149	1569.391608
377.514409	1559.213986
379.956951	1549.563636
382.398845	1537.404196
384.840092	1531.365734
387.278623	1531.837762
389.718576	1522.802797
392.155815	1516.790210
394.590342	1507.609091
397.028357	1501.188811
399.461595	1490.972727
401.896254	1485.430070
404.326141	1479.803497
406.759513	1477.255944
409.188115	1475.878322
411.616075	1476.109091
414.045457	1477.120979
416.470073	1476.288112
418.896111	1471.173427
421.321508	1472.558741
423.746265	1472.666434
426.166264	1472.559441
428.587684	1468.752448
431.006407	1465.985315
433.426551	1468.813287
435.844000	1470.090909
438.262869	1470.633566
440.679045	1475.324476
443.090473	1473.711189
445.505379	1474.783916
447.917594	1477.283916
450.329175	1480.502098
452.740122	1481.829371
455.148383	1477.937063
457.556011	1474.699301
459.963007	1476.832867
462.369372	1474.626573
464.773054	1471.877622
467.176106	1468.497902
469.578528	1466.909091
471.980320	1464.912587
474.379435	1463.025175
476.779969	1458.386014
479.179874	1458.756643
481.575056	1454.535664
483.973705	1451.307692
486.367634	1451.037762
488.760937	1450.286713
491.153614	1441.165035
493.545666	1442.052448
495.939136	1437.869930
498.327894	1435.095804
500.713986	1436.084615
503.101498	1433.025874
505.488387	1431.420979
507.872612	1437.025175
510.258255	1438.976923
512.641237	1440.210490
515.021558	1443.874825
517.403298	1445.790909
519.782379	1444.415385
522.162879	1447.829371
524.540721	1443.353147
526.915908	1438.486713
529.290477	1432.093007
531.666464	1425.248252
534.039799	1415.073427
536.414551	1408.813986
538.784618	1399.713986
541.154069	1387.276923
543.524938	1379.048252
545.891127	1372.687413
548.258734	1365.761538
550.623695	1359.297203
552.988043	1349.607692
555.351778	1346.062238
557.716931	1343.545455
560.077412	1341.079021
562.439311	1329.978322
564.798569	1328.720979
567.155190	1321.489510
569.515255	1313.956643
571.868629	1303.749650
574.225448	1297.961538
576.579632	1286.265035
578.933208	1275.650350
581.286175	1268.595804
583.636510	1263.988811
585.988263	1258.130070
588.333339	1252.600699
590.683879	1241.062238
593.027745	1240.893007
595.377073	1234.946853
597.721752	1234.149650
600.063807	1227.655944
602.407279	1226.759441
604.748128	1217.269231
607.088375	1213.523077
609.426001	1211.689510
611.767062	1205.773427
614.103485	1202.599301
616.441325	1203.056643
618.776548	1197.163636
621.109155	1195.553147
623.443178	1191.788811
625.774587	1195.978322
628.105398	1196.081119
630.435612	1200.467133
632.765227	1196.429371
635.090220	1200.709790
637.420653	1197.508392
639.746466	1200.235664
642.069671	1204.005594
644.394293	1210.371329
646.716309	1210.625175
649.037731	1215.325175
651.356551	1218.071329
653.676786	1225.917483
655.996428	1227.885315
658.313469	1232.085315
660.629918	1228.582517
662.943769	1234.323776
665.259036	1230.620979
667.571706	1238.817483
669.885791	1246.505594
672.195276	1256.914685
674.506177	1268.205594
676.814485	1280.646853
679.122205	1287.481119
681.431339	1296.111888
683.735881	1297.925874
686.039837	1301.157343
688.343207	1300.096503
690.647991	1305.659441
692.948189	1306.788811
695.249801	1310.822378
697.550829	1315.676923
699.847274	1319.116783
702.145135	1326.972028
704.442412	1333.344056
706.739106	1343.227972
709.031224	1348.292308
711.326753	1357.458741
713.617708	1362.260839
715.910078	1367.518182
718.199873	1377.177622
720.489087	1387.688811
722.777722	1392.135664
725.063784	1396.046154
727.351261	1397.952448
729.636166	1400.802098
731.920494	1408.581818
734.202253	1416.083916
736.485426	1421.700000
738.768022	1433.620280
741.046062	1436.501399
743.325517	1444.454545
745.604395	1452.174825
747.882699	1461.000000
750.156453	1467.799301
752.431620	1474.381119
754.706214	1480.216783
756.978249	1486.002797
759.251697	1495.613986
761.522587	1503.722378
763.790921	1512.702797
766.060668	1521.348252
768.327861	1529.419580
770.594483	1535.493007
772.860535	1539.983916
775.124036	1546.221678
777.388950	1551.154545
779.653294	1554.818182
781.913109	1562.068531
784.174336	1568.736364
786.434996	1569.541259
788.693110	1572.976224
790.948679	1577.165734
793.207639	1580.096503
795.460100	1586.876224
797.717927	1589.781818
799.971236	1595.432867
802.222005	1594.942657
804.474186	1596.117483
806.723828	1600.513287
808.974883	1608.113986
811.221426	1610.987413
813.469381	1614.017483
815.714802	1619.508392
817.961634	1619.402098
820.207905	1616.059441
822.449671	1622.544755
824.694821	1627.279720
826.933498	1629.640559
829.175557	1632.888112
831.413118	1639.603497
833.652091	1645.541958
835.888537	1651.373427
838.126394	1655.237063
840.361726	1666.474126
842.594535	1671.232867
844.828755	1680.452448
847.060452	1687.507692
849.291595	1705.144755
851.522183	1717.274126
853.752217	1734.335664
855.981697	1750.648951
858.206695	1763.146154
860.435068	1775.474825
862.658961	1792.246853
864.884266	1807.926573
867.105095	1832.013287
869.329296	1853.453846
871.549024	1878.151049
873.770162	1896.469930
875.990750	1922.693007
878.208829	1942.058741
880.428317	1965.800699
882.643339	1973.910490
884.857814	1986.937063
887.071740	1997.280420
889.285120	2006.597902
891.497952	2017.864336
893.710238	2026.784615
895.920021	2029.576923
898.129259	2027.911888
900.337952	2026.174825
902.544146	2026.872727
904.751749	2019.756643
906.956854	2007.122378
909.161416	1984.930070
911.363483	1969.557343
913.566959	1952.684615
915.767941	1932.002797
917.968381	1913.518182
920.170230	1888.912587
922.365688	1861.720280
924.564505	1837.923077
926.758883	1812.516783
928.956619	1787.035664
931.149919	1759.829371
933.344628	1733.643357
935.536851	1711.950350
937.728535	1695.904196
939.919682	1683.740559
942.108346	1677.295804
944.296474	1670.028671
946.482121	1662.742657
948.671120	1658.365734
950.855696	1657.413287
953.039737	1655.174126
955.227128	1651.144755
957.406215	1650.754545
959.588653	1654.782517
961.770557	1658.143357
963.949986	1660.309091
966.126943	1670.132168
968.305308	1674.275524
970.485080	1673.779720
972.658503	1671.747552
974.835272	1671.599301
977.007634	1669.849650
979.181404	1665.933566
981.350770	1652.063636
983.523480	1640.537762
985.693725	1627.988112
987.863441	1611.721678
990.032628	1598.075524
992.197418	1584.451049
994.365549	1568.920979
996.529286	1558.327972
998.694429	1548.285315
1000.857113	1539.197203
1003.019272	1533.746853
1005.178974	1526.810490
1007.338151	1516.520280
1009.498735	1505.722378
1011.656865	1490.620280
1013.814470	1480.733566
1015.971552	1470.834266
1018.128110	1455.854545
1020.280289	1445.841958
1022.433875	1436.100699
1024.586939	1428.781818
1026.737554	1421.920979
1028.889576	1422.262937
1031.037224	1419.446853
1033.188204	1413.886713
1035.334813	1408.398601
1037.480903	1404.536364
1039.626475	1399.291608
1041.773452	1395.946154
1043.914140	1383.093706
1046.058158	1375.147552
1048.199735	1364.944056
1050.340796	1359.448252
1052.483261	1354.786014
1054.619447	1343.857343
1056.758958	1331.619580
1058.894115	1322.896503
1061.032596	1320.381818
1063.166723	1317.573427
1065.300337	1312.917483
1067.435356	1317.262238
1069.566025	1313.233566
1071.698099	1317.553846
1073.827744	1315.979021
1075.956877	1318.172028
1078.085498	1311.454545
1080.213608	1304.213287
1082.339292	1294.767133
1084.464466	1286.055944
1086.591044	1272.215385
1088.713284	1260.645455
1090.836929	1250.862937
1092.956239	1244.482517
1095.080779	1238.665734
1097.199073	1238.046853
1099.318772	1236.720280
1101.436052	1235.387413
1103.552826	1228.032168
1105.669093	1225.914685
1107.782944	1213.795105
1109.898200	1204.974825
1112.009132	1193.569930
1114.123377	1189.014685
1116.233301	1178.906993
1118.344629	1173.765035
1120.455452	1169.959441
1122.561959	1167.117483
1124.671776	1167.708392
1126.777278	1166.016084
1128.884183	1158.506294
1130.984873	1155.667133
1133.090775	1150.674126
1135.192368	1147.450350
1137.295364	1142.876224
1139.397859	1137.965035
1141.494147	1131.123077
1143.595643	1126.858042
1145.692835	1118.677622
1147.789530	1112.151049
1149.885726	1114.495105
1151.981425	1110.381818
1154.076625	1105.923077
1156.169429	1101.727273
1158.263636	1100.437762
1160.351651	1102.937063
1162.444864	1099.365035
1164.531889	1099.190909
1166.622213	1096.309091
1168.708250	1091.459441
1170.797584	1087.593007
1172.880737	1085.069231
1174.965292	1083.611888
1177.051249	1075.839860
1179.132924	1071.749650
1181.216001	1072.110490
1183.296692	1074.146853
1185.376891	1077.241958
1187.456599	1074.091608
1189.535816	1076.608392
1191.612651	1074.637762
1193.687105	1070.837762
1195.764850	1065.297902
1197.838326	1061.837063
1199.913202	1058.792308
1201.983811	1059.847552
1204.055821	1059.900000
1206.125456	1061.514685
1208.196491	1061.625874
1210.267038	1064.397902
1212.333324	1063.526573
1214.401011	1067.024476
1216.466326	1064.758042
1218.533041	1064.007692
1220.595500	1064.228671
1222.661244	1069.477622
1224.722734	1071.289510
1226.785625	1076.529371
1228.846148	1078.078322
1230.906187	1078.816783
1232.965744	1077.770629
1235.022935	1079.103497
1237.079645	1074.519580
1239.133991	1077.063636
1241.191619	1075.313986
1243.246884	1079.785315
1245.297908	1081.647552
1247.350332	1087.404196
1249.402276	1089.911189
1251.451862	1094.396503
1253.500969	1101.997203
1255.549598	1106.963636
1257.597748	1105.720280
1259.645419	1106.786014
1261.688860	1103.836364
1263.735577	1105.381818
1265.779940	1102.016084
1267.823827	1104.747552
1269.865362	1105.630769
1271.904548	1105.230769
1273.947007	1102.069930
1275.985243	1103.520280
1278.024878	1103.991608
1280.064038	1105.081119
1282.098979	1101.906294
1284.135319	1106.824476
1286.169315	1111.262937
1288.204708	1112.780420
1290.235889	1117.116084
1292.268467	1124.346154
1294.300574	1124.834266
1296.330340	1123.132168
1298.361504	1122.701399
1300.388460	1124.715385
1302.416814	1123.827972
1304.440963	1128.601399
1306.468378	1129.978322
1308.491590	1137.100699
1310.516200	1139.875524
1312.538476	1142.034266
1314.562149	1143.540559
1316.583489	1146.623077
1318.604361	1145.109091
1320.624766	1144.648951
1322.640978	1145.442657
1324.658587	1145.446154
1326.673868	1147.165734
1328.692408	1145.741958
1330.706759	1144.565734
1332.718784	1146.097902
1334.734066	1142.650350
1336.745163	1141.411888
1338.757657	1135.440559
1340.765968	1137.287413
1342.777534	1136.020280
1344.783062	1134.770629
1346.791845	1133.137063
1348.796450	1129.799301
1350.804309	1131.990909
1352.811706	1128.380420
1354.813072	1128.396503
1356.815834	1128.913287
1358.818137	1127.314685
1360.819980	1128.466434
1362.821363	1129.317483
1364.820433	1127.561538
1366.819044	1123.298601
1368.817197	1120.436364
1370.814891	1117.324476
1372.808423	1114.274126
1374.803351	1115.202797
1376.797821	1111.425874
1378.791835	1112.742657
1380.783542	1110.069930
1382.774794	1111.323776
1384.763740	1113.211888
1386.754081	1117.112587
1388.743967	1116.139860
1390.731549	1114.813986
1392.718678	1117.439161
1394.703505	1116.969231
1396.689727	1116.244755
1398.673649	1117.611888
1400.657118	1115.886014
1402.640134	1114.739161
1404.620853	1113.100699
1406.602966	1115.241259
1408.582783	1115.719580
1410.562148	1119.937762
1412.537375	1119.850350
1414.515840	1120.760839
1416.492012	1121.827273
1418.467735	1118.287413
1420.443008	1119.853846
1422.415990	1119.134965
1424.388524	1119.620979
1426.360610	1120.132168
1428.332249	1124.353147
1430.299759	1126.882517
1432.272343	1121.887413
1434.237122	1119.334266
1436.206972	1113.333566
1438.172699	1108.330769
1440.139818	1105.296503
1442.104654	1105.285315
1444.065370	1110.758741
1446.031154	1107.718881
1447.990983	1117.073427
1449.952206	1119.680420
1451.914821	1124.738462
1453.873321	1126.858741
1455.831378	1125.079021
1457.788994	1122.706294
1459.746167	1120.050350
1461.701065	1116.450350
1463.657356	1118.309790
1465.611372	1118.641259
1467.564947	1121.494406
1469.516250	1119.186713
1471.468946	1123.429371
1473.419369	1119.174126
1475.369354	1113.386014
1477.318900	1112.914685
1479.266177	1115.095804
1481.211186	1116.627273
1483.157588	1118.394406
1485.103552	1118.206993
1487.049079	1119.142657
1488.992340	1116.792308
1490.935166	1120.583916
1492.875728	1120.094406
1494.817681	1117.156643
1496.757372	1111.665734
1498.696629	1105.893706
1500.635450	1109.032867
1502.572012	1109.404196
1504.509965	1109.756643
1506.445659	1105.223077
1508.380920	1102.422378
1510.313925	1103.140559
1512.246497	1105.761538
1514.178637	1111.086014
1516.110345	1113.448252
1518.039799	1115.708392
1519.970644	1114.641259
1521.901057	1114.759441
1523.827398	1118.400000
1525.755130	1113.595804
1527.680611	1109.752448
1529.605663	1103.561538
1531.530286	1102.241958
1533.454480	1104.901399
1535.376426	1109.800000
1537.299763	1110.539161
1539.220853	1115.514685
1541.139700	1121.909790
1543.059935	1125.120280
1544.977928	1124.102098
1546.895494	1128.498601
1548.810818	1128.986014
1550.727532	1131.214685
1552.640191	1129.477622
1554.556054	1131.385315
1556.469677	1130.216084
1558.381062	1128.151748
1560.293837	1126.640559
1562.202562	1129.354545
1564.112676	1127.245455
1566.022367	1124.710490
1567.931635	1121.383916
1569.838669	1121.901399
1571.743470	1128.327972
1573.649660	1129.922378
1575.553618	1131.214685
1577.457155	1134.970629
1579.360272	1133.665035
1581.261159	1129.818182
1583.163435	1131.435664
1585.063483	1131.801399
1586.964918	1125.588811
1588.862320	1121.706993
1590.759303	1117.646154
1592.655868	1114.623776
1594.553821	1117.387413
1596.445939	1114.655944
1598.341250	1112.832168
1600.236144	1111.719580
1602.128816	1107.094406
1604.021071	1102.999301
1605.911107	1103.876923
1607.800727	1103.649650
1609.689932	1099.962238
1611.578722	1095.195105
1613.465294	1088.894406
1615.353254	1084.501399
1617.237197	1078.085315
1619.122527	1075.830769
1621.007444	1071.469930
1622.890147	1069.418182
1624.774237	1069.686014
1626.654315	1071.325874
1628.535781	1074.297902
1630.415036	1076.890210
1632.295677	1077.755245
1634.170514	1076.157343
1636.050332	1074.753147
1637.926146	1071.434266
1639.801549	1068.025175
1641.678338	1059.988811
1643.549331	1053.681818
1645.423505	1050.026573
1647.293680	1049.206294
1649.167037	1046.189510
1651.038190	1046.588112
1652.907141	1040.840559
1654.777477	1042.262937
1656.643821	1039.116084
1658.511550	1038.444056
1660.377080	1037.514685
1662.243996	1034.329371
1664.106923	1023.368531
1665.971235	1024.698601
1667.833351	1022.466434
1669.695062	1021.062937
1671.558159	1023.161538
1673.419060	1019.388811
1675.277769	1011.200000
1677.136074	1013.682517
1678.995764	1008.535664
1680.849686	1007.652448
1682.706782	1008.144056
1684.563475	1007.851748
1686.416191	1011.548951
1688.272079	1018.890210
1690.123993	1021.581119
1691.975506	1027.737762
1693.826618	1031.206993
1695.677330	1023.804895
1697.527641	1014.717483
1699.375767	1015.981119
1701.225278	1006.725175
1703.069040	1004.769930
1704.917751	999.322378
1706.760716	997.330769
1708.606848	996.463636
1710.449017	995.674825
1712.294352	994.891608
1714.133946	993.284615
1715.974924	988.430070
1717.817285	984.042657
1719.655690	978.404895
1721.495478	981.466434
1723.333091	979.165734
1725.170308	976.490909
1727.005352	967.764336
1728.841779	967.423077
1730.676034	960.623776
1732.509894	960.544056
1734.343360	957.306294
1736.172881	951.634965
1738.005560	948.786014
1739.834295	948.242657
1741.666187	946.893007
1743.494137	949.576923
1745.321696	947.762937
1747.148862	952.850350
1748.975637	958.350350
1750.802020	967.504895
1752.624467	969.978322
1754.450069	974.023776
1756.271736	972.020280
1758.094785	968.857343
1759.915672	966.267832
1761.736171	963.216783
1763.558051	959.141958
1765.374231	959.648252
1767.193563	959.239860
1769.008968	969.844755
1770.827523	969.957343
1772.642153	971.003497
1774.456396	967.430769
1776.270253	960.405594
1778.083723	951.908392
1779.895040	951.708392
1781.707737	949.746853
1783.520049	948.691608
1785.328443	950.283217
1787.138217	955.488811
1788.944077	964.939161
1790.753082	969.900000
1792.558174	971.071329
1794.364647	974.318182
1796.170736	970.665734
1797.972914	964.673427
1799.778237	959.584615
1801.579651	960.168531
1803.382445	957.230769
1805.181333	952.198601
1806.981602	955.241958
1808.781489	955.140559
1810.579234	960.322378
1812.376599	959.297902
1814.173584	965.565734
1815.970188	975.909790
1817.764653	976.951748
1819.560497	980.691608
1821.350686	982.700000
1823.145772	985.593007
1824.935206	984.084615
1826.727776	979.023077
1828.518211	977.002098
1830.306512	968.702098
1832.097948	962.278322
1833.883738	958.995804
1835.670908	956.321678
1837.455946	957.010490
1839.244118	956.976224
1841.028404	960.004895
1842.810560	957.142657
1844.594096	961.653147
1846.375503	957.072727
1848.158289	952.797902
1849.937194	949.720280
1851.717479	947.851748
1853.495637	941.986713
1855.275174	944.032168
1857.052586	940.406993
1858.827874	944.960839
1860.604540	946.589510
1862.379084	945.266434
1864.155006	947.237063
1865.925307	950.798601
1867.698736	944.604196
1869.470045	944.081818
1871.240983	946.008392
1873.013299	948.620280
1874.780001	946.614685
1876.549829	947.516783
1878.315793	943.002098
1880.084880	937.795105
1881.850106	930.903497
1883.614964	929.460140
1885.381199	931.627972
1887.143575	932.304196
1888.905584	930.880420
1890.667225	935.211189
1892.428500	940.451049
1894.189407	945.855944
1895.949948	940.687413
1897.708379	939.055245
1899.466444	935.669930
1901.222402	930.067832
1902.979736	930.538462
1904.736705	934.127972
1906.491567	937.724476
1908.244325	939.913287
1909.996718	940.063636
1911.750488	939.098601
1913.502154	936.901399
1915.251718	934.674825
1917.002657	924.723776
1918.753234	923.047552
1920.499971	917.678322
1922.248085	917.663636
1923.994099	920.089510
1925.741488	923.241259
1927.486780	927.731469
1929.229974	930.823776
1930.974543	934.523776
1932.717017	932.027273
1934.459130	928.337063
1936.200883	927.504545
1937.942276	924.448252
1939.681576	924.250000
1941.420517	921.620979
1943.159099	925.136014
1944.895590	926.225175
1946.631723	927.005245
1948.369230	927.906993
1950.102915	934.012937
1951.837975	936.737063
1953.570946	941.877972
1955.303561	940.564336
1957.035820	943.586364
1958.767722	946.184615
1960.497538	943.355245
1962.225269	940.677622
1963.954375	940.446853
1965.683126	931.758042
1967.409793	924.601399
1969.136106	924.045455
1970.863792	928.164336
1972.585942	929.590909
1974.311193	937.904196
1976.032637	940.602098
1977.757182	947.746853
1979.479646	947.841259
1981.198308	946.689510
1982.920068	946.986713
1984.638026	948.503497
1986.357357	940.628671
1988.072889	941.658042
1989.793241	946.073427
1991.509795	947.569930
1993.222552	947.607692
1994.938405	949.304196
1996.652186	951.336364
1998.365617	949.291608
2000.076977	942.955944
2001.789709	944.284615
2003.498651	944.224476
2005.210685	944.204895
2006.917211	945.561538
2008.626828	944.665035
2010.334379	947.469930
2012.041581	950.583217
2013.746718	950.562937
2015.451509	952.004895
2017.157671	952.042657
2018.860051	951.308392
2020.563802	948.993007
2022.265491	950.420280
2023.966835	951.723077
2025.667833	951.436364
2027.366770	954.949650
2029.067079	951.011189
2030.763613	951.294406
2032.461518	946.188811
2034.157364	944.690210
2035.856296	946.451748
2037.549742	944.041259
2039.244559	946.388811
2040.939034	944.396503
2042.629740	946.830769
2044.323530	948.736364
2046.013553	949.665734
2047.704947	947.749650
2049.394288	942.713986
2051.084999	937.610490
2052.771947	930.411888
2054.458556	931.004196
2056.146534	927.683916
2057.830753	924.111888
2059.516343	924.661538
2061.201593	925.159441
2062.884794	926.840559
2064.569366	924.786014
2066.248475	926.836364
2067.932369	925.412587
2069.610802	925.391608
2071.292313	924.011189
2072.970072	926.056643
2074.647495	924.019580
2076.326287	921.126573
2078.003037	921.411189
2079.677745	918.747552
2081.353822	914.602797
2083.027859	909.900000
2084.701560	903.741958
2086.374926	901.669930
2088.046253	902.008392
2089.717246	901.645455
2091.387905	901.784615
2093.058230	907.954545
2094.728221	910.376224
2096.396176	915.935664
2098.063798	922.225874
2099.729385	926.633566
2101.396341	928.266434
2103.061264	932.697902
2104.725855	933.206294
2106.388414	935.846154
2108.052341	941.451049
2109.714237	940.832867
2111.375803	940.306993
2113.037037	937.318182
2114.696243	934.839161
2116.355118	933.969930
2118.013664	933.816783
2119.671880	934.274825
2121.326372	934.383916
2122.983929	940.555245
2124.641157	940.032168
2126.294663	947.054545
2127.949537	952.119580
2129.600692	952.021678
2131.254910	948.676923
2132.905411	949.267133
2134.557278	949.413287
2136.203737	949.395804
2137.854951	948.759441
2139.502451	946.487413
2141.151318	945.553846
2142.798166	946.431469
2144.444689	944.013986
2146.090886	947.952448
2147.733375	948.650350
2149.378922	943.152448
2151.020762	939.717483
2152.665659	941.206993
2154.306850	939.204196
2155.947719	937.988112
2157.588263	942.982517
2159.226795	939.204196
2160.866693	935.454545
2162.502891	935.971329
2164.140455	930.820979
2165.777697	928.944755
2167.412929	923.439860
2169.047840	915.806294
2170.682428	911.687413
2172.316696	907.120280
2173.947270	906.971329
2175.580896	909.200000
2177.210830	915.214685
2178.842129	916.016084
2180.471423	917.095105
2182.100398	916.716084
2183.729053	913.365035
2185.357389	914.535664
2186.983723	913.999301
2188.609738	915.559441
2190.233751	919.038462
2191.859130	918.997902
2193.482508	918.583217
2195.107251	918.248951
2196.728313	918.314685
2198.349058	915.163636
2199.971168	909.258042
2201.591280	907.239860
2203.209395	907.571329
2204.827195	907.010490
2206.444680	908.498601
2208.061849	912.158741
2209.678703	914.555944
2211.295241	917.659441
2212.909787	921.358042
2214.522340	923.637762
2216.136257	921.997902
2217.748183	918.231469
2219.361472	918.868531
2220.972771	918.853147
2222.582080	913.777622
2224.192753	907.914685
2225.801437	906.097902
2227.409808	908.721678
2229.016193	906.217483
2230.623941	910.751748
2232.229702	914.524476
2233.835152	912.972028
2235.438617	912.141259
2237.043445	914.382517
2238.646289	917.281119
2240.247150	917.205594
2241.849374	916.347552
2243.449616	915.002797
2245.051220	915.024476
2246.649171	914.230769
2248.248485	910.629371
2249.845819	910.578322
2251.442845	913.309790
2253.041233	915.221678
2254.635972	919.863636
2256.228734	922.291608
2257.822859	926.826573
2259.418345	931.776224
2261.010186	932.583916
2262.601721	936.541259
2264.194618	935.655944
2265.782205	934.944755
2267.374488	936.172727
2268.961465	933.906993
2270.551469	935.120280
2272.136169	931.753147
2273.725563	924.480420
2275.309655	920.664336
2276.895107	914.946154
2278.478591	912.597203
2280.065100	909.717483
2281.647976	912.506993
2283.230549	911.429720
2284.812818	911.833566
2286.391457	907.946503
2287.973121	901.879021
2289.551156	899.473077
2291.132214	892.233566
2292.709645	887.469580
2294.285113	884.646853
2295.863603	880.703846
2297.438469	878.604196
2299.013034	882.464685
2300.587299	886.227972
2302.161263	889.374476
2303.734926	882.452448
2305.308290	876.949650
2306.878035	876.141259
2308.447481	876.595105
2310.019945	876.702098
2311.587135	874.783916
2313.157343	875.284615
2314.723936	880.140559
2316.291889	881.387413
2317.857886	886.158042
2319.423586	886.467133
2320.988988	885.527273
2322.552437	879.076923
2324.117245	878.179021
2325.678445	878.186014
2327.242659	878.949650
2328.801611	880.800000
2330.363578	876.818182
2331.923593	879.499301
2333.483314	883.365734
2335.041085	885.055245
2336.598561	883.414685
2338.155743	881.874126
2339.710977	878.860839
2341.265918	882.395804
2342.820564	877.383916
2344.374917	874.325874
2345.928977	872.083916
2347.482742	871.275524
2349.034564	868.780420
2350.584442	869.783916
2352.137328	871.286713
2353.684972	871.165734
2355.235623	867.677622
2356.782683	865.769231
2358.331101	867.129371
2359.879228	872.144056
2361.423766	866.806294
2362.969662	868.780420
2364.513620	866.610490
2366.058935	868.683916
2367.600665	866.626573
2369.143752	865.444056
2370.684903	860.788811
2372.225765	853.013287
2373.766338	846.873427
2375.306622	845.967133
2376.846617	842.406993
2378.383034	839.417483
2379.922452	839.313986
2381.458293	843.455245
2382.995490	846.046853
2384.529112	854.543357
2386.065734	855.684615
2387.600426	863.939161
2389.133188	864.772727
2390.665663	866.282517
2392.196210	868.200699
2393.729755	867.385315
2395.258089	864.109091
2396.787780	860.902797
2398.317184	861.811189
2399.846304	863.118182
2401.375139	868.437063
2402.898768	878.188811
2404.427033	877.126573
2405.950096	882.672028
2407.477792	883.161538
2408.998649	883.283217
2410.524139	881.060140
2412.046068	875.892308
2413.569353	873.445455
2415.090716	871.260839
2416.610160	867.913986
2418.130959	866.009790
2419.649840	865.788112
2421.168438	869.179021
2422.685119	861.217483
2424.203154	859.569930
2425.720908	859.251049
2427.235111	860.172028
2428.749033	862.402098
2430.262675	865.393007
2431.777672	866.602797
2433.289120	869.680420
2434.801923	865.490210
2436.312812	862.953846
2437.823423	860.288811
2439.332122	860.727273
2440.843807	857.327273
2442.351949	857.765035
2443.859813	857.134266
2445.367399	852.995105
2446.871444	852.351748
2448.378474	852.673427
2449.883597	851.011189
2451.388441	850.912587
2452.891379	846.283217
2454.394041	848.119580
2455.896426	848.483916
2457.396906	851.837762
2458.898739	852.339860
2460.398667	849.203497
2461.898320	844.512587
2463.397698	838.094406
2464.895173	835.913986
2466.390746	832.250350
2467.889299	834.593007
2469.384324	833.646154
2470.880701	831.634266
2472.373552	839.523776
2473.867756	839.420280
2475.361686	843.941958
2476.852092	841.169930
2478.345476	837.897203
2479.836962	836.871329
2481.326551	830.649650
2482.815868	829.413986
2484.303289	827.380420
2485.793686	831.876224
2487.280565	832.656643
2488.768795	832.455944
2490.253508	835.181119
2491.737952	837.102098
2493.223746	837.859441
2494.707649	837.272727
2496.192902	837.853846
2497.673022	838.828671
2499.156115	833.256643
2500.637317	829.706294
2502.118250	828.880420
2503.597294	829.307692
2505.076069	831.660839
2506.554576	825.577622
2508.032815	821.579021
2509.510785	820.472028
2510.985250	814.969231
2512.462685	815.121678
2513.936616	816.135664
2515.411897	816.834965
2516.886911	814.293706
2518.358425	811.097203
2519.831288	816.851049
2521.302269	822.505594
2522.774600	827.881119
2524.241817	826.665734
2525.712001	826.997902
2527.180304	822.717483
2528.648342	826.333566
2530.116115	823.347552
2531.583623	826.136364
2533.050866	825.616783
2534.514617	825.170629
2535.979718	823.844755
2537.442942	829.691608
2538.907516	830.236364
2540.368600	829.850350
2541.831034	828.304196
2543.293205	827.393007
2544.751890	826.280420
2546.215147	832.190909
2547.673307	826.824476
2549.132816	827.124476
2550.587231	828.721678
2552.046217	826.132168
2553.503331	827.482517
2554.958574	827.613287
2556.413555	823.875524
2557.866668	825.507692
2559.321129	825.962937
2560.773720	828.976923
2562.226052	829.684615
2563.676517	833.404895
2565.129937	831.316084
2566.578275	830.113986
2568.029569	827.751049
2569.478996	819.076224
2570.924951	818.700000
2572.373861	816.601399
2573.819301	813.851049
2575.266088	819.681119
2576.711013	823.104895
2578.155679	827.186014
2579.601693	827.892308
2581.044241	832.041259
2582.488136	827.116084
2583.928566	827.348252
2585.370343	819.548951
2586.810261	819.039860
2588.251526	821.815385
2589.689329	823.503497
2591.130082	824.411888
2592.565773	834.655245
2594.004413	834.794406
2595.441195	834.704895
2596.876122	829.262937
2598.313996	827.790210
2599.746813	824.053147
2601.180977	824.937762
2602.613287	821.755944
2604.046943	825.243357
2605.478746	821.581119
2606.910295	819.179720
2608.341592	818.458042
2609.771036	819.702797
2611.200228	814.555944
2612.627570	812.459441
2614.056257	809.295804
2615.484693	811.172028
2616.909681	813.417483
2618.336016	815.634266
2619.760502	817.341958
2621.186334	819.174126
2622.608722	814.953147
2624.032456	816.722378
2625.454343	814.251049
2626.875981	815.280420
2628.295773	813.317483
2629.716911	810.555245
2631.137799	810.775524
2632.555249	810.258042
2633.975638	808.876923
2635.392590	808.780420
2636.809293	807.834266
2638.225748	808.520280
2639.641955	806.707692
2641.057914	810.251748
2642.472032	808.204895
2643.885902	807.391608
2645.297934	801.982517
2646.711309	798.207692
2648.121255	797.649650
2649.534137	795.269930
2650.943590	794.841958
2652.352797	797.402797
2653.760168	794.486014
2655.170473	796.243357
2656.578943	798.360140
2657.985577	804.153846
2659.391966	804.116084
2660.796521	800.165734
2662.202420	796.340559
2663.606486	796.662238
2665.010307	793.155944
2666.413884	795.495804
2667.815630	797.334965
2669.218719	796.183217
2670.618390	794.265035
2672.019405	797.512587
2673.417004	798.813986
2674.817533	800.314685
2676.214646	794.734266
2677.613103	795.174825
2679.009733	794.054545
2680.406120	795.031469
2681.802265	789.714685
2683.196585	793.536364
2684.592246	790.139860
2685.984499	788.783217
2687.378094	790.173427
2688.769865	793.214685
2690.162979	792.042657
2691.554269	793.688112
2692.943736	792.970629
2694.332963	797.960140
2695.721951	792.900000
2697.112280	788.934266
2698.497626	785.337762
2699.885895	784.576923
2701.272344	781.421678
2702.658554	784.106294
2704.044525	784.546154
2705.427098	788.883217
2706.811013	786.025175
2708.194690	789.727273
2709.578128	792.030070
2710.958172	793.715385
2712.339556	792.537762
2713.719126	792.572727
2715.100036	794.751049
2716.479132	790.623776
2717.856414	790.039161
2719.235037	789.565734
2720.611847	784.682517
2721.988420	781.131469
2723.364758	780.555245
2724.739285	777.366434
2726.115152	775.058741
2727.487632	777.910490
2728.863028	777.697203
2730.233464	773.937063
2731.605241	772.653147
2732.976783	771.893007
2734.346517	773.944755
2735.717592	776.067133
2737.086858	773.023077
2738.455891	771.141958
2739.823118	773.361538
2741.190112	769.295804
2742.556872	770.198601
2743.923401	772.013986
2745.288124	768.220979
2746.652615	770.483217
2748.016875	772.262937
2749.380902	778.140559
2750.744698	777.813287
2752.105120	779.144056
2753.468452	778.111888
2754.826842	776.820979
2756.188142	775.767133
2757.546072	775.923077
2758.906910	773.096503
2760.265949	771.047552
2761.621619	770.118182
2762.980197	769.269930
2764.335408	766.507692
2765.690390	768.741259
2767.043576	763.102797
2768.399668	763.784615
2769.752395	762.566434
2771.104895	764.327273
2772.457166	760.935664
2773.810776	760.006294
2775.161024	757.180420
2776.509478	759.954545
2777.860838	760.023077
2779.208838	755.879021
2780.558176	758.209091
2781.905722	758.896503
2783.253042	753.832168
2784.600135	749.193706
2785.945437	741.918881
2787.290512	744.267133
2788.635362	737.532168
2789.979986	734.333566
2791.321258	734.566434
2792.663868	741.030769
2794.006252	747.002098
2795.348411	749.358741
2796.687221	758.865734
2798.028931	763.625175
2799.367293	764.988112
2800.706991	762.151748
2802.044905	760.954545
2803.381034	763.141958
2804.716939	755.210490
2806.054182	753.441259
2807.389641	753.225874
2808.724877	758.632867
2810.058330	759.530769
2811.393120	764.276224
2812.724570	765.276923
2814.058915	764.888112
2815.388362	762.761538
2816.719146	760.962238
2818.049708	760.052448
2819.378491	756.210490
2820.708610	753.084615
2822.036951	749.025874
2823.365071	744.554545
2824.691413	745.898601
2826.019092	746.760140
2827.343437	752.014685
2828.669119	749.112587
2829.993025	753.348951
2831.316712	754.114685
2832.641734	757.475524
2833.963426	757.795105
2835.284900	753.441958
2836.606155	748.437063
2837.927191	738.724476
2839.246454	731.870629
2840.567053	728.668531
2841.885881	729.383217
2843.204490	725.353147
2844.521328	724.809091
2845.837949	722.015385
2847.154353	718.865734
2848.468987	718.269930
2849.784957	720.142657
2851.097606	722.674126
2852.411590	725.890210
2853.725358	727.167832
2855.038909	728.175524
2856.350694	731.793007
2857.660712	735.153147
2858.972065	733.292308
2860.280103	731.092308
2861.589475	724.645455
2862.898633	720.911189
2864.207575	717.068531
2865.514753	720.406993
2866.820169	718.933566
2868.126919	718.244755
2869.431906	718.859441
2870.736680	718.888811
2872.039692	720.492308
2873.345585	719.601399
2874.646624	721.076923
2875.948997	719.725874
2877.249610	721.102797
2878.551557	722.190909
2879.853290	722.265734
2881.151720	724.773427
2882.451483	720.587413
2883.749489	719.969231
2885.047283	723.256643
2886.343321	719.349650
2887.640692	717.196503
2888.936307	714.948951
2890.231711	711.586014
2891.526904	707.128671
2892.818800	705.823776
2894.113572	701.678322
2895.405047	696.013986
2896.697855	690.891608
2897.990453	691.113986
2899.279757	689.462238
2900.570393	691.739860
2901.859278	691.552448
2903.149495	694.256643
2904.436421	698.309790
2905.724679	695.224476
2907.011188	697.972028
2908.297489	703.751049
2909.583581	700.752448
2910.867925	699.561538
2912.155140	698.186713
2913.437529	700.155944
2914.721250	691.540559
2916.003225	690.308392
2917.284992	687.628671
2918.565015	687.413986
2919.847907	686.797203
2921.129054	683.460839
2922.406919	687.834266
2923.687653	695.587413
2924.965106	693.083916
2926.242353	698.409091
2927.517858	701.132867
2928.796231	698.596503
2930.069790	693.626573
2931.346216	690.892308
2932.620901	688.243357
2933.893845	685.870629
2935.168121	681.983217
2936.440657	685.083217
2937.712988	682.478322
2938.982047	681.434266
2940.253971	677.869930
2941.524157	682.037063
2942.794139	682.094406
2944.063918	678.114685
2945.331961	679.374126
2946.598267	676.150350
2947.864372	675.510490
2949.131806	677.679720
2950.397506	675.380420
2951.663003	676.848951
2952.928298	669.574825
2954.190328	668.514685
2955.453688	666.926573
2956.716847	672.228671
2957.978274	670.499301
2959.241030	676.647552
2960.502054	680.548252
2961.761348	678.424476
2963.020442	679.241259
2964.279335	683.743357
2965.538028	678.893706
2966.796521	681.596503
2968.053285	677.681119
2969.309849	674.906993
2970.564686	677.379720
2971.820851	680.488112
2973.073762	676.084615
2974.328002	679.689510
2975.582043	676.915385
2976.834358	675.399301
2978.086474	672.113287
2979.336866	671.388811
2980.590113	666.139161
2981.838583	665.023776
2983.089908	656.639161
2984.337983	655.841259
2985.585862	661.132168
2986.833543	658.133566
2988.081027	653.236364
2989.326790	652.000699
2990.572357	655.765035
2991.819251	658.477622
2993.062901	658.704895
2994.307879	659.949650
2995.549613	660.893706
2996.794199	666.526573
2998.037066	667.467832
2999.276692	668.176224
3000.519168	666.095804
3001.758404	663.154545
3002.998968	658.816783
3004.237816	653.546853
3005.476468	652.979720
3006.713406	654.263636
3007.951670	656.473427
3009.188219	661.309091
3010.424575	667.736364
3011.660737	672.167832
3012.895185	668.647552
3014.129441	665.736364
3015.363503	663.255944
3016.595853	667.443357
3017.826491	662.246154
3019.059975	654.912587
3020.291747	651.962238
3021.521809	658.556643
3022.751679	660.739860
3023.979839	664.604895
3025.209325	666.770629
3026.437102	665.661538
3027.664688	661.969930
3028.893601	659.625175
3030.117771	656.906993
3031.344784	660.023077
3032.568573	654.541958
3033.793689	654.702797
3035.017098	652.265734
3036.240317	656.856643
3037.461831	658.368531
3038.686186	660.013287
3039.905806	662.893007
3041.126752	660.212587
3042.347509	655.635664
3043.566562	653.370629
3044.786940	652.660140
3046.004102	656.270629
3047.222590	654.267832
3048.439375	654.149650
3049.655973	650.352448
3050.872382	654.951748
3052.085579	654.273427
3053.301613	655.174825
3054.514435	651.392308
3055.730094	644.179021
3056.941030	640.022378
3058.153291	634.695105
3059.365366	632.625175
3060.577253	632.450350
3061.787444	632.593007
3062.997448	633.650699
3064.207266	635.017483
3065.415388	638.975874
3066.623325	640.690210
3067.829566	643.318531
3069.037132	640.080420
3070.243003	637.479371
3071.448690	635.234266
3072.654191	631.464685
3073.857999	626.429371
3075.063131	624.931818
3076.266570	620.981818
3077.468318	620.839510
3078.669881	619.386014
3079.871261	622.703497
3081.072457	623.537762
3082.271963	622.732168
3083.471286	621.989510
3084.671932	619.993706
3085.870888	619.235664
3087.066650	619.418182
3088.265241	614.835664
3089.460638	615.579021
3090.657358	612.832168
3091.850886	614.869231
3093.047242	610.316084
3094.241912	614.241958
3095.433391	611.160140
3096.629201	611.462937
3097.820318	610.610490
3099.012757	610.130769
3100.202009	608.801399
3101.394086	611.378322
3102.584480	613.876224
3103.771688	615.753846
3104.960219	610.574126
3106.150071	609.246154
3107.336740	604.138462
3108.523228	607.024476
3109.709538	602.606993
3110.897169	599.676923
3112.081618	598.690210
3113.264388	598.747552
3114.449980	598.059441
3115.633893	602.546154
3116.816127	606.119580
3117.998182	605.187413
3119.180059	602.512587
3120.361758	603.513287
3121.541780	602.502797
3122.720125	599.820979
3123.901290	594.004196
3125.079280	590.534266
3126.257094	588.706993
3127.434730	586.138462
3128.610691	587.533566
3129.786475	587.412587
3130.963581	588.286014
3132.139012	588.645455
3133.312770	588.274825
3134.484855	587.517483
3135.658262	585.746154
3136.831492	585.539860
3138.003051	587.372727
3139.175930	588.670629
3140.345642	591.331469
3141.516675	593.440559
3142.686038	597.106993
3143.853730	594.389510
3145.024238	593.334965
3146.190088	594.807692
3147.360246	591.384615
3148.525748	591.031469
3149.691075	587.825874
3150.856229	590.947552
3152.021210	588.576224
3153.187510	587.502098
3154.349158	584.478322
3155.512125	581.590909
3156.674920	580.365035
3157.837542	575.822378
3158.998499	569.506294
3160.159283	564.592308
3161.319895	560.606294
3162.478843	557.217483
3163.637620	554.186014
3164.796225	556.800000
3165.954657	553.537762
3167.112919	554.644056
3168.269518	552.056643
3169.424456	556.690210
3170.580713	558.900699
3171.735309	557.900699
3172.889735	555.139860
3174.042501	555.348252
3175.195096	557.129371
3176.347522	556.590909
3177.499778	564.591608
3178.651863	570.279021
3179.800803	567.781818
3180.952549	570.740559
3182.102637	569.576923
3183.251069	571.616783
3184.399331	570.243357
3185.547425	569.520979
3186.695350	567.482517
3187.841619	566.067832
3188.987720	564.541259
3190.132167	565.432867
3191.276446	568.302797
3192.420557	561.715385
3193.565985	558.177622
3194.708275	558.307692
3195.850398	557.323077
3196.992353	560.073427
3198.134141	561.930070
3199.275762	565.531469
3200.414248	561.467133
3201.554051	561.127972
3202.695172	562.665035
3203.833158	564.078322
3204.969495	561.188811
3206.105666	562.232867
3207.243154	561.774126
3208.378994	563.532867
3209.516151	561.907692
3210.648695	564.632168
3211.785521	564.469231
3212.917735	567.487413
3214.051266	560.858741
3215.184633	558.224476
3216.314872	553.915385
3217.447909	551.432867
3218.577820	546.093706
3219.709047	543.918182
3220.837150	533.732867
3221.968049	531.858042
3223.097304	525.751748
3224.224916	525.570629
3225.349405	523.243357
3226.478170	528.132168
3227.603813	528.920280
3228.729294	533.602797
3229.853133	538.450350
3230.979766	542.752448
3232.101802	545.497902
3233.225154	546.793007
3234.348344	543.478322
3235.471372	544.055245
3236.592760	538.243357
3237.713986	534.548951
3238.833575	531.736364
3239.953002	533.896503
3241.070791	534.106993
3242.191372	537.256643
3243.308840	538.753846
3244.426147	538.118881
3245.543294	538.405594
3246.658805	542.193706
3247.775630	542.364336
3248.889346	543.980420
3250.005851	544.848951
3251.120722	544.523077
3252.232484	543.672028
3253.344086	544.358042
3254.457004	541.909091
3255.569762	539.513287
3256.679414	539.658042
3257.790381	535.966434
3258.901189	536.432867
3260.010365	540.007692
3261.117911	537.574126
3262.226770	536.704196
3263.335472	537.818881
3264.441071	534.076923
3265.547984	531.251049
3266.653268	532.791608
3267.759866	531.518182
3268.863364	533.600699
3269.968177	532.864336
3271.072832	531.010490
3272.174388	532.555245
3273.275788	531.213986
3274.378502	525.602797
3275.481060	520.599301
3276.580521	520.095105
3277.682766	517.436364
3278.781915	518.290210
3279.879440	523.218881
3280.976809	527.363636
3282.076960	529.275524
3283.174019	525.469930
3284.270922	528.240559
3285.367670	526.751049
3286.459860	521.137063
3287.556298	516.042657
3288.651114	509.705594
3289.745776	507.947552
3290.838816	507.744755
3291.931701	506.545455
3293.022967	508.441958
3294.115544	507.958741
3295.206502	506.699301
3296.295840	508.344056
3297.385025	511.156643
3298.475523	505.676923
3299.562936	506.505594
3300.650196	505.179720
3301.738769	503.765035
3302.827190	507.858042
3303.911063	511.030070
3304.999178	508.207692
3306.084211	514.141958
3307.167629	512.165035
3308.252359	509.695105
3309.335473	510.253846
3310.419900	509.366434
3311.501248	504.871329
3312.583908	503.925175
3313.664954	496.120280
3314.745849	495.201399
3315.825130	496.107692
3316.904261	498.674825
3317.984704	503.039860
3319.062072	510.909091
3320.140752	512.837063
3321.217820	515.210490
3322.294739	517.181119
3323.370046	518.306993
3324.445204	516.118881
3325.521673	516.338462
3326.595072	511.874825
3327.668322	507.723077
3328.742882	503.632168
3329.815834	501.176224
3330.887177	494.970629
3331.959831	492.541958
3333.029419	490.476224
3334.100317	486.888112
3335.169608	484.725175
3336.240210	487.910490
3337.309205	488.427273
3338.376594	494.309091
3339.442378	492.811189
3340.512388	492.007692
3341.579335	494.755245
3342.643220	491.591608
3343.709873	486.693007
3344.774921	482.634965
3345.838366	480.962238
3346.901665	482.250350
3347.964817	483.888112
3349.027823	487.072028
3350.090683	484.204895
3351.151941	484.672727
3352.210142	481.554545
3353.272563	485.939161
3354.331929	488.281818
3355.391149	489.596503
3356.451679	488.762238
3357.507699	489.041958
3358.566483	489.630070
3359.620760	489.133566
3360.677801	486.299301
3361.733243	487.115385
3362.789995	479.817483
3363.845148	478.193007
3364.898704	475.088811
3365.950664	478.626573
3367.005385	478.354545
3368.057057	483.381818
3369.108586	483.621678
3370.161423	486.760140
3371.211213	483.302797
3372.262312	483.023077
3373.310365	483.141259
3374.361177	483.008392
3375.408945	475.540559
3376.456570	475.883916
3377.504052	469.517483
3378.549942	470.900699
3379.597140	469.840559
3380.641296	476.290210
3381.688210	476.086014
3382.733532	480.154545
3383.775813	480.881818
3384.817954	484.952448
3385.861402	485.102797
3386.904709	481.741259
3387.946427	478.045455
3388.988003	481.813287
3390.029438	475.394406
3391.069285	477.624476
3392.107543	478.184615
3393.147109	483.500699
3394.186535	482.297902
3395.224373	484.721678
3396.260624	480.923077
3397.296736	479.789510
3398.334155	475.147552
3399.368541	472.724476
3400.404234	475.164336
3401.439788	476.900000
3402.472311	472.604895
3403.507587	476.267832
3404.539832	479.200000
3405.571939	484.158741
3406.602462	490.097203
3407.634292	491.526573
3408.665984	485.123776
3409.694648	484.673427
3410.723175	479.261538
3411.753008	476.120280
3412.782704	474.327972
3413.809374	474.418182
3414.837351	474.081119
3415.862303	476.272727
3416.890005	476.332867
3417.914684	479.282517
3418.940669	481.788112
3419.965074	478.583916
3420.989343	472.724476
3422.012033	473.965035
3423.034587	469.414685
3424.058447	468.455944
3425.079287	469.325874
3426.099991	471.867932
3427.122002	474.383367
3428.140994	476.299800
3429.159850	477.044855
3430.180013	476.046154
3431.197159	472.731319
