-118.059454	-3.496703
-115.389854	-1.963736
-112.723189	-0.482218
-110.057276	0.866733
-107.394295	2.001998
-104.729885	2.842458
-102.068405	3.306993
-99.405496	2.158042
-96.747693	1.524476
-94.088461	0.081119
-91.429977	-0.410490
-88.774417	-0.315385
-86.117429	-0.085315
-83.465539	-0.930070
-80.812218	-0.972028
-78.161818	-2.591608
-75.509988	-4.416084
-72.863249	-2.888811
-70.215081	-0.700000
-67.567655	-1.992308
-64.923143	0.699301
-62.277203	1.897902
-59.636344	2.880420
-56.994056	3.495105
-54.354677	4.460140
-51.713868	4.583217
-49.073800	3.245455
-46.438804	0.623077
-43.802380	-0.746853
-41.168858	-1.161538
-38.533908	-1.673427
-35.904023	-1.729371
-33.270546	-0.066434
-30.642131	-0.063636
-28.014450	0.447552
-25.385340	-1.031469
-22.761287	-4.079021
-20.133645	-14.552448
-17.511056	-44.473427
-14.889199	-50.968531
-12.268072	59.428671
-9.647675	221.834965
-7.030167	352.838462
-4.411230	442.413287
-1.795178	491.213986
0.820145	498.075524
3.434741	462.241958
6.046454	386.327972
8.659596	272.500000
11.267704	131.417483
13.879394	-9.276923
16.486053	-80.244755
19.094140	-40.020979
21.701503	-1.108392
24.303841	2.637762
26.909757	2.530070
29.510651	2.814685
32.112973	4.394406
34.710278	4.864336
37.311158	5.068531
39.907023	5.030769
42.504317	6.858741
45.100891	8.525175
47.692456	5.526573
50.285449	6.924476
52.875581	4.299301
55.467141	1.548252
58.055841	-0.255245
60.645968	-1.053846
63.231096	0.052448
65.817652	0.816084
68.403494	1.451049
70.986482	3.396503
73.570896	6.080420
76.148182	4.453846
78.729034	3.416084
81.307037	3.604196
83.884330	-0.310490
86.463049	0.829371
89.036786	1.204196
91.611951	1.531469
94.184272	2.108392
96.755885	5.637762
99.324658	8.130070
101.894858	9.118182
104.462220	8.404895
107.031007	7.058741
109.596958	9.869231
112.160074	9.218881
114.726746	9.957343
117.284197	15.803497
119.847333	20.648252
122.405509	26.197203
124.967240	46.570629
127.524014	78.076923
130.082215	128.313287
132.635462	196.653147
135.188012	286.911888
137.744112	391.491608
140.295264	502.827273
142.845719	610.954545
145.395476	708.225175
147.942414	790.598601
150.488657	846.111189
153.036325	879.019580
155.583297	899.413986
158.125334	904.057343
160.666677	902.916783
163.207327	899.537063
165.749403	898.432168
168.288667	900.176224
170.825123	898.073427
173.360887	896.274126
175.898077	892.674126
178.434576	892.821678
180.968269	887.330769
183.499158	888.112587
186.029360	889.085315
188.560986	886.682517
191.089811	886.229371
193.615837	889.501399
196.141177	890.122378
198.667942	889.344755
201.191911	879.073427
203.715195	875.534965
206.237794	869.702098
208.757600	868.728671
211.276723	864.132867
213.795163	865.206294
216.315027	868.810490
218.827890	873.402797
221.344284	879.018182
223.859996	886.895804
226.370818	887.277622
228.883065	889.504895
231.392530	890.047552
233.901316	894.444755
236.409423	893.313986
238.918955	894.569930
241.423606	893.118182
243.927581	895.683217
246.432980	901.869231
248.933504	907.216084
251.437552	907.210490
253.934628	912.567133
256.435228	911.639161
258.933056	912.152448
261.430211	909.379720
263.926693	909.523776
266.418312	908.596503
268.913451	905.263636
271.405823	903.066434
273.897525	903.604196
276.386464	901.354545
278.876827	903.829371
281.364427	901.281818
283.849268	900.741259
286.337624	900.123776
288.819040	898.651049
291.303970	900.639860
293.784055	908.505594
296.267652	907.824476
298.746406	907.391608
301.226584	908.158042
303.704009	907.327273
306.180771	900.794406
308.656870	899.798601
311.130220	892.322378
313.602908	892.301399
316.074935	892.103497
318.546301	895.354545
321.014922	896.856643
323.482885	905.051748
325.952269	904.219580
328.416831	908.807692
330.884897	911.662937
333.348143	916.162937
335.810731	916.178322
338.272663	919.037063
340.733938	919.546154
343.192479	917.448951
345.652442	910.506993
348.109672	911.016783
350.566248	902.681119
353.022170	902.132168
355.475362	895.266434
357.929977	890.702797
360.379790	888.987413
362.833099	887.751049
365.281610	881.953147
367.729469	879.873427
370.178751	872.402797
372.623239	860.892308
375.069149	850.267133
377.514409	849.486713
379.956951	841.312587
382.398845	839.194406
384.840092	835.295105
387.278623	831.700000
389.718576	830.580420
392.155815	828.667832
394.590342	825.011189
397.028357	826.410490
399.461595	818.727273
401.896254	815.042657
404.326141	813.412587
406.759513	818.637762
409.188115	816.989510
411.616075	818.498601
414.045457	815.074825
416.470073	813.897203
418.896111	816.018182
421.321508	816.930769
423.746265	815.953846
426.166264	815.838462
428.587684	813.018881
431.006407	816.004196
433.426551	817.941958
435.844000	816.780420
438.262869	812.000000
440.679045	810.033566
443.090473	807.039161
445.505379	810.000699
447.917594	811.926573
450.329175	815.183916
452.740122	818.793706
455.148383	820.558741
457.556011	825.140559
459.963007	827.265734
462.369372	824.667133
464.773054	820.532168
467.176106	817.104196
469.578528	814.032168
471.980320	814.560140
474.379435	811.057343
476.779969	810.168531
479.179874	814.425874
481.575056	816.604196
483.973705	817.104895
486.367634	816.432168
488.760937	817.472028
491.153614	813.530070
493.545666	812.211888
495.939136	808.594406
498.327894	805.049650
500.713986	802.140559
503.101498	793.782517
505.488387	794.071329
507.872612	796.481119
510.258255	795.984615
512.641237	795.230070
515.021558	795.576923
517.403298	800.362238
519.782379	798.437063
522.162879	799.030769
524.540721	798.144056
526.915908	798.852448
529.290477	794.681818
531.666464	792.274126
534.039799	789.662937
536.414551	791.362937
538.784618	787.178322
541.154069	784.786713
543.524938	784.625175
545.891127	781.491608
548.258734	773.958741
550.623695	771.329371
552.988043	767.088112
555.351778	762.455245
557.716931	758.136364
560.077412	755.203497
562.439311	749.239860
564.798569	751.642657
567.155190	746.644056
569.515255	745.446154
571.868629	742.281119
574.225448	737.400699
576.579632	732.566434
578.933208	728.314685
581.286175	720.169930
583.636510	716.630769
585.988263	711.479021
588.333339	706.791608
590.683879	702.630070
593.027745	700.593706
595.377073	698.181119
597.721752	698.613986
600.063807	698.741259
602.407279	703.266434
604.748128	702.238462
607.088375	702.268531
609.426001	700.479720
611.767062	700.416084
614.103485	695.173427
616.441325	692.883916
618.776548	689.057343
621.109155	684.476224
623.443178	683.803497
625.774587	686.704895
628.105398	689.793007
630.435612	694.183217
632.765227	694.023776
635.090220	700.632168
637.420653	698.771329
639.746466	698.908392
642.069671	698.130769
644.394293	700.629371
646.716309	698.407692
649.037731	698.004895
651.356551	699.909790
653.676786	702.973427
655.996428	705.669231
658.313469	707.593007
660.629918	706.895804
662.943769	715.786014
665.259036	716.047552
667.571706	720.282517
669.885791	724.374126
672.195276	729.105594
674.506177	731.995105
676.814485	734.699301
679.122205	736.231469
681.431339	737.579720
683.735881	737.640559
686.039837	737.876923
688.343207	739.132168
690.647991	745.365734
692.948189	746.873427
695.249801	751.179720
697.550829	754.116084
699.847274	756.099301
702.145135	764.023077
704.442412	768.551748
706.739106	771.676923
709.031224	778.634266
711.326753	778.244056
713.617708	783.207692
715.910078	783.765035
718.199873	787.806294
720.489087	789.946154
722.777722	793.625874
725.063784	792.722378
727.351261	794.979720
729.636166	801.320280
731.920494	806.490909
734.202253	810.563636
736.485426	816.477622
738.768022	814.079720
741.046062	815.252448
743.325517	814.437063
745.604395	819.716084
747.882699	819.518182
750.156453	820.333566
752.431620	822.528671
754.706214	830.523776
756.978249	834.558042
759.251697	843.123077
761.522587	847.538462
763.790921	851.799301
766.060668	854.555944
768.327861	856.532867
770.594483	859.869930
772.860535	863.624476
775.124036	863.788811
777.388950	865.433566
779.653294	869.231469
781.913109	873.369930
784.174336	876.465035
786.434996	878.511189
788.693110	879.467133
790.948679	887.442657
793.207639	889.678322
795.460100	891.759441
797.717927	895.906294
799.971236	900.060140
802.222005	899.829371
804.474186	899.804196
806.723828	902.059441
808.974883	904.931469
811.221426	905.732168
813.469381	905.323776
815.714802	903.775524
817.961634	910.885315
820.207905	910.431469
822.449671	914.064336
824.694821	919.027972
826.933498	922.355245
829.175557	923.081119
831.413118	926.160140
833.652091	932.687413
835.888537	935.774825
838.126394	935.669231
840.361726	939.335664
842.594535	939.179720
844.828755	950.966434
847.060452	954.403497
849.291595	962.374825
851.522183	969.794406
853.752217	974.731469
855.981697	982.716783
858.206695	993.620979
860.435068	1003.858042
862.658961	1010.648951
864.884266	1010.355944
867.105095	1015.639860
869.329296	1017.061538
871.549024	1027.280420
873.770162	1031.854545
875.990750	1043.686014
878.208829	1050.419580
880.428317	1061.609091
882.643339	1069.768531
884.857814	1080.239161
887.071740	1090.579021
889.285120	1095.211888
891.497952	1097.898601
893.710238	1105.540559
895.920021	1109.272028
898.129259	1116.472028
900.337952	1116.625175
902.544146	1111.975524
904.751749	1105.537762
906.956854	1100.274126
909.161416	1086.218881
911.363483	1076.686014
913.566959	1071.077622
915.767941	1064.816783
917.968381	1060.166434
920.170230	1054.819580
922.365688	1043.051049
924.564505	1029.273427
926.758883	1012.772727
928.956619	992.058042
931.149919	977.391608
933.344628	963.440559
935.536851	951.604895
937.728535	943.384615
939.919682	942.522378
942.108346	940.806294
944.296474	943.503497
946.482121	942.286713
948.671120	934.776923
950.855696	932.731469
953.039737	927.777622
955.227128	925.832168
957.406215	924.159441
959.588653	924.861538
961.770557	931.431469
963.949986	933.919580
966.126943	940.876224
968.305308	942.237063
970.485080	947.618881
972.658503	946.706993
974.835272	946.876224
977.007634	946.674126
979.181404	938.474825
981.350770	937.807692
983.523480	930.960839
985.693725	927.797203
987.863441	923.480420
990.032628	915.951049
992.197418	911.211189
994.365549	906.160140
996.529286	901.534266
998.694429	901.675524
1000.857113	898.218182
1003.019272	889.318182
1005.178974	880.502098
1007.338151	876.811189
1009.498735	872.348951
1011.656865	867.676224
1013.814470	855.286014
1015.971552	847.685315
1018.128110	841.278322
1020.280289	840.763636
1022.433875	836.295105
1024.586939	836.453846
1026.737554	830.703497
1028.889576	831.737063
1031.037224	830.086713
1033.188204	830.646853
1035.334813	832.864336
1037.480903	829.142657
1039.626475	824.296503
1041.773452	818.139860
1043.914140	814.844755
1046.058158	811.254545
1048.199735	808.879021
1050.340796	805.463636
1052.483261	797.556643
1054.619447	795.580420
1056.758958	790.748252
1058.894115	784.627273
1061.032596	779.113986
1063.166723	775.904196
1065.300337	774.161538
1067.435356	770.522378
1069.566025	771.216783
1071.698099	772.788112
1073.827744	776.974825
1075.956877	773.418182
1078.085498	768.281818
1080.213608	769.988112
1082.339292	767.970629
1084.464466	761.001399
1086.591044	755.596503
1088.713284	753.598601
1090.836929	749.006993
1092.956239	747.283916
1095.080779	744.767133
1097.199073	742.553147
1099.318772	739.932867
1101.436052	737.852448
1103.552826	735.465035
1105.669093	734.630070
1107.782944	728.550350
1109.898200	728.200699
1112.009132	726.257343
1114.123377	724.040559
1116.233301	721.506993
1118.344629	723.517483
1120.455452	718.635664
1122.561959	717.767832
1124.671776	717.460140
1126.777278	717.280420
1128.884183	714.006993
1130.984873	713.169930
1133.090775	708.987413
1135.192368	710.920280
1137.295364	707.476923
1139.397859	704.058042
1141.494147	703.214685
1143.595643	702.828671
1145.692835	697.776224
1147.789530	697.841958
1149.885726	694.451748
1151.981425	689.427273
1154.076625	686.246154
1156.169429	686.653147
1158.263636	679.823077
1160.351651	678.602098
1162.444864	677.886713
1164.531889	677.440559
1166.622213	676.039860
1168.708250	676.200699
1170.797584	672.676923
1172.880737	672.288112
1174.965292	669.920280
1177.051249	667.909790
1179.132924	668.393706
1181.216001	670.223776
1183.296692	667.879021
1185.376891	670.095804
1187.456599	670.006294
1189.535816	668.035664
1191.612651	661.564336
1193.687105	659.639860
1195.764850	656.783916
1197.838326	656.642657
1199.913202	653.913287
1201.983811	654.255944
1204.055821	658.285315
1206.125456	662.772727
1208.196491	664.260140
1210.267038	667.990909
1212.333324	665.465734
1214.401011	667.852448
1216.466326	666.344056
1218.533041	671.895804
1220.595500	675.045455
1222.661244	673.424476
1224.722734	667.442657
1226.785625	667.658741
1228.846148	667.923077
1230.906187	662.353846
1232.965744	661.207692
1235.022935	661.218182
1237.079645	659.283916
1239.133991	661.734266
1241.191619	664.318881
1243.246884	668.941259
1245.297908	672.883217
1247.350332	672.948951
1249.402276	671.557343
1251.451862	676.852448
1253.500969	679.706294
1255.549598	681.432867
1257.597748	686.726573
1259.645419	687.501399
1261.688860	690.025874
1263.735577	690.788112
1265.779940	691.079720
1267.823827	693.203497
1269.865362	692.180420
1271.904548	686.374126
1273.947007	686.385315
1275.985243	687.301399
1278.024878	688.741958
1280.064038	692.125874
1282.098979	693.860140
1284.135319	693.281818
1286.169315	694.448951
1288.204708	698.416783
1290.235889	695.651049
1292.268467	697.238462
1294.300574	693.526573
1296.330340	693.998601
1298.361504	695.188112
1300.388460	697.109091
1302.416814	701.248951
1304.440963	708.497203
1306.468378	709.111888
1308.491590	706.889510
1310.516200	710.729371
1312.538476	716.916084
1314.562149	714.565734
1316.583489	718.842657
1318.604361	717.735664
1320.624766	720.772727
1322.640978	719.815385
1324.658587	719.958741
1326.673868	721.458042
1328.692408	722.755245
1330.706759	716.393007
1332.718784	718.253147
1334.734066	720.844755
1336.745163	723.389510
1338.757657	723.451049
1340.765968	723.094406
1342.777534	719.391608
1344.783062	718.568531
1346.791845	711.909091
1348.796450	705.441958
1350.804309	705.539860
1352.811706	704.032168
1354.813072	701.654545
1356.815834	704.822378
1358.818137	703.884615
1360.819980	705.165035
1362.821363	700.846154
1364.820433	702.013986
1366.819044	699.427273
1368.817197	699.104196
1370.814891	698.116084
1372.808423	701.567832
1374.803351	704.511189
1376.797821	707.086014
1378.791835	707.341259
1380.783542	705.858042
1382.774794	704.673427
1384.763740	703.853846
1386.754081	699.382517
1388.743967	699.174825
1390.731549	695.164336
1392.718678	695.092308
1394.703505	694.732168
1396.689727	693.344056
1398.673649	688.331469
1400.657118	686.426573
1402.640134	686.693007
1404.620853	686.790210
1406.602966	688.688112
1408.582783	692.400699
1410.562148	692.782517
1412.537375	694.003497
1414.515840	700.152448
1416.492012	701.344755
1418.467735	700.738462
1420.443008	700.683217
1422.415990	699.641958
1424.388524	700.397203
1426.360610	704.165035
1428.332249	705.376923
1430.299759	704.569231
1432.272343	705.182517
1434.237122	701.046154
1436.206972	702.083217
1438.172699	706.509790
1440.139818	705.045455
1442.104654	705.932867
1444.065370	704.002098
1446.031154	701.761538
1447.990983	701.366434
1449.952206	700.237762
1451.914821	700.372028
1453.873321	699.947552
1455.831378	700.845455
1457.788994	699.325175
1459.746167	704.683916
1461.701065	709.957343
1463.657356	709.828671
1465.611372	712.272028
1467.564947	710.885315
1469.516250	711.416084
1471.468946	714.553147
1473.419369	714.892308
1475.369354	715.253846
1477.318900	709.923776
1479.266177	706.880420
1481.211186	705.379021
1483.157588	703.948951
1485.103552	700.727972
1487.049079	699.734266
1488.992340	699.275524
1490.935166	699.053147
1492.875728	696.286014
1494.817681	699.028671
1496.757372	701.757343
1498.696629	700.207692
1500.635450	699.119580
1502.572012	699.196503
1504.509965	699.834965
1506.445659	696.212587
1508.380920	695.287413
1510.313925	698.920979
1512.246497	697.186014
1514.178637	695.064336
1516.110345	690.783217
1518.039799	690.920280
1519.970644	692.127273
1521.901057	693.519580
1523.827398	694.762937
1525.755130	692.446154
1527.680611	693.386014
1529.605663	695.841958
1531.530286	700.638462
1533.454480	704.637063
1535.376426	706.516783
1537.299763	708.425874
1539.220853	706.754545
1541.139700	708.123077
1543.059935	708.524476
1544.977928	709.496503
1546.895494	706.354545
1548.810818	706.932168
1550.727532	708.183217
1552.640191	711.337762
1554.556054	710.686713
1556.469677	707.456643
1558.381062	707.718182
1560.293837	711.542657
1562.202562	711.668531
1564.112676	712.506993
1566.022367	713.214685
1567.931635	716.057343
1569.838669	715.481818
1571.743470	715.585315
1573.649660	715.030070
1575.553618	712.768531
1577.457155	711.058042
1579.360272	707.089510
1581.261159	709.423776
1583.163435	711.372727
1585.063483	709.989510
1586.964918	707.743357
1588.862320	710.579720
1590.759303	714.486014
1592.655868	710.153846
1594.553821	707.885315
1596.445939	706.306993
1598.341250	700.477622
1600.236144	693.791608
1602.128816	689.352448
1604.021071	683.300000
1605.911107	678.902098
1607.800727	676.388112
1609.689932	673.289510
1611.578722	673.314685
1613.465294	672.506294
1615.353254	673.497203
1617.237197	677.556643
1619.122527	676.668531
1621.007444	673.055245
1622.890147	671.393706
1624.774237	674.377622
1626.654315	670.263636
1628.535781	672.704196
1630.415036	671.118881
1632.295677	669.620979
1634.170514	664.865035
1636.050332	666.631469
1637.926146	668.716084
1639.801549	665.581119
1641.678338	660.285315
1643.549331	660.248252
1645.423505	662.448951
1647.293680	660.707692
1649.167037	660.860839
1651.038190	661.452448
1652.907141	662.190210
1654.777477	662.954545
1656.643821	660.862238
1658.511550	668.148252
1660.377080	665.422378
1662.243996	663.243357
1664.106923	658.873427
1665.971235	656.055944
1667.833351	652.619580
1669.695062	643.973427
1671.558159	644.903497
1673.419060	639.308392
1675.277769	637.605594
1677.136074	639.667832
1678.995764	638.525874
1680.849686	644.300699
1682.706782	645.958741
1684.563475	645.810490
1686.416191	644.688811
1688.272079	647.730070
1690.123993	645.735664
1691.975506	645.021678
1693.826618	645.767832
1695.677330	643.766434
1697.527641	644.300699
1699.375767	646.234965
1701.225278	641.686014
1703.069040	644.698601
1704.917751	641.540559
1706.760716	638.076923
1708.606848	639.047552
1710.449017	639.790909
1712.294352	635.341259
1714.133946	629.242657
1715.974924	625.223776
1717.817285	630.148951
1719.655690	631.992308
1721.495478	629.030769
1723.333091	627.499301
1725.170308	625.333566
1727.005352	618.120979
1728.841779	616.722378
1730.676034	616.437063
1732.509894	613.026573
1734.343360	610.408392
1736.172881	605.398601
1738.005560	606.182517
1739.834295	609.425175
1741.666187	608.101399
1743.494137	605.355944
1745.321696	606.066434
1747.148862	601.293007
1748.975637	597.694406
1750.802020	599.892308
1752.624467	598.833566
1754.450069	599.003497
1756.271736	601.690210
1758.094785	602.697203
1759.915672	602.654545
1761.736171	601.721678
1763.558051	604.327972
1765.374231	608.721678
1767.193563	608.866434
1769.008968	608.039860
1770.827523	608.145455
1772.642153	606.709790
1774.456396	604.051049
1776.270253	602.972727
1778.083723	602.965734
1779.895040	604.419580
1781.707737	600.877622
1783.520049	600.528671
1785.328443	603.983916
1787.138217	604.871329
1788.944077	603.791608
1790.753082	603.856643
1792.558174	602.565734
1794.364647	602.872727
1796.170736	607.909790
1797.972914	609.969930
1799.778237	610.781119
1801.579651	617.013287
1803.382445	614.786014
1805.181333	619.737063
1806.981602	617.674825
1808.781489	614.272727
1810.579234	612.552448
1812.376599	609.257343
1814.173584	609.939860
1815.970188	611.666434
1817.764653	612.511888
1819.560497	611.218881
1821.350686	610.034965
1823.145772	615.851049
1824.935206	615.604895
1826.727776	616.997902
1828.518211	614.355245
1830.306512	611.475524
1832.097948	613.353147
1833.883738	615.351049
1835.670908	616.511888
1837.455946	613.395804
1839.244118	613.529371
1841.028404	613.830769
1842.810560	614.148951
1844.594096	616.989510
1846.375503	615.032168
1848.158289	616.036364
1849.937194	615.451748
1851.717479	615.076224
1853.495637	613.941259
1855.275174	612.789510
1857.052586	608.720280
1858.827874	606.736364
1860.604540	606.968531
1862.379084	606.553147
1864.155006	604.471329
1865.925307	602.529371
1867.698736	597.276224
1869.470045	597.645455
1871.240983	599.113287
1873.013299	599.088112
1874.780001	595.436364
1876.549829	596.701399
1878.315793	597.718182
1880.084880	603.600000
1881.850106	605.178322
1883.614964	604.237762
1885.381199	598.283916
1887.143575	593.151748
1888.905584	587.743357
1890.667225	588.658042
1892.428500	586.293706
1894.189407	585.550350
1895.949948	583.698601
1897.708379	588.320979
1899.466444	590.434965
1901.222402	596.989510
1902.979736	597.578322
1904.736705	593.011189
1906.491567	591.181818
1908.244325	589.192308
1909.996718	589.673427
1911.750488	589.737762
1913.502154	583.555944
1915.251718	582.834266
1917.002657	583.030070
1918.753234	588.945455
1920.499971	592.213986
1922.248085	598.320979
1923.994099	602.138462
1925.741488	603.416783
1927.486780	604.126573
1929.229974	604.665035
1930.974543	605.974126
1932.717017	599.991608
1934.459130	594.511888
1936.200883	591.566783
1937.942276	592.704196
1939.681576	596.191259
1941.420517	597.900699
1943.159099	600.645804
1944.895590	602.754545
1946.631723	604.375874
1948.369230	606.600699
1950.102915	610.429720
1951.837975	610.139860
1953.570946	602.827622
1955.303561	598.499301
1957.035820	596.466084
1958.767722	590.779720
1960.497538	590.412587
1962.225269	589.644755
1963.954375	585.025175
1965.683126	583.429371
1967.409793	583.960140
1969.136106	587.129371
1970.863792	590.589510
1972.585942	591.586713
1974.311193	590.099301
1976.032637	592.680420
1977.757182	592.941259
1979.479646	587.751748
1981.198308	591.306993
1982.920068	590.337762
1984.638026	583.156643
1986.357357	582.631469
1988.072889	582.914685
1989.793241	584.268531
1991.509795	587.919580
1993.222552	587.564336
1994.938405	591.529371
1996.652186	596.708392
1998.365617	594.696503
2000.076977	592.147552
2001.789709	596.576923
2003.498651	596.653147
2005.210685	593.451049
2006.917211	594.396503
2008.626828	596.855245
2010.334379	593.804196
2012.041581	594.491608
2013.746718	592.749650
2015.451509	599.541958
2017.157671	600.550350
2018.860051	599.709091
2020.563802	601.830070
2022.265491	609.045455
2023.966835	610.832168
2025.667833	608.985315
2027.366770	608.054545
2029.067079	609.839161
2030.763613	604.239860
2032.461518	603.385315
2034.157364	603.204196
2035.856296	604.203497
2037.549742	601.713287
2039.244559	600.548252
2040.939034	601.777622
2042.629740	603.857343
2044.323530	603.264336
2046.013553	599.322378
2047.704947	602.611888
2049.394288	602.272727
2051.084999	600.406294
2052.771947	602.774126
2054.458556	604.453147
2056.146534	601.309091
2057.830753	600.001399
2059.516343	596.725874
2061.201593	591.732867
2062.884794	586.311888
2064.569366	580.992308
2066.248475	575.937063
2067.932369	575.351049
2069.610802	568.297203
2071.292313	566.897902
2072.970072	569.025175
2074.647495	573.109790
2076.326287	572.179021
2078.003037	577.964336
2079.677745	582.991608
2081.353822	584.253147
2083.027859	588.267832
2084.701560	588.132168
2086.374926	591.702098
2088.046253	592.173427
2089.717246	590.928671
2091.387905	591.767832
2093.058230	593.537762
2094.728221	592.554545
2096.396176	589.260140
2098.063798	592.800000
2099.729385	592.342657
2101.396341	591.982517
2103.061264	593.681119
2104.725855	590.875524
2106.388414	594.804196
2108.052341	595.406993
2109.714237	597.802797
2111.375803	597.822378
2113.037037	595.935664
2114.696243	594.239860
2116.355118	598.500000
2118.013664	600.064336
2119.671880	598.654545
2121.326372	600.445455
2122.983929	601.469930
2124.641157	596.832867
2126.294663	601.543357
2127.949537	602.595804
2129.600692	604.127972
2131.254910	602.750350
2132.905411	604.020979
2134.557278	606.038462
2136.203737	607.357343
2137.854951	605.073427
2139.502451	601.951049
2141.151318	602.457343
2142.798166	600.484615
2144.444689	599.534266
2146.090886	603.443357
2147.733375	602.548252
2149.378922	604.200000
2151.020762	603.520979
2152.665659	602.088811
2154.306850	599.608392
2155.947719	595.079021
2157.588263	590.019580
2159.226795	587.888112
2160.866693	586.659441
2162.502891	585.818182
2164.140455	585.721678
2165.777697	585.131469
2167.412929	586.606993
2169.047840	590.064336
2170.682428	588.939860
2172.316696	591.710490
2173.947270	588.877622
2175.580896	590.567133
2177.210830	586.713986
2178.842129	586.443357
2180.471423	584.436364
2182.100398	582.854545
2183.729053	578.337762
2185.357389	579.977622
2186.983723	579.979720
2188.609738	582.915385
2190.233751	586.177622
2191.859130	590.264336
2193.482508	586.411888
2195.107251	592.780420
2196.728313	589.790210
2198.349058	590.341259
2199.971168	586.460140
2201.591280	584.592308
2203.209395	581.174825
2204.827195	583.965035
2206.444680	581.283916
2208.061849	581.211189
2209.678703	585.251049
2211.295241	580.403497
2212.909787	575.666434
2214.522340	580.074825
2216.136257	576.645455
2217.748183	578.939161
2219.361472	576.083217
2220.972771	576.441958
2222.582080	573.690210
2224.192753	577.229371
2225.801437	575.804196
2227.409808	576.467832
2229.016193	580.806993
2230.623941	576.499301
2232.229702	577.976224
2233.835152	581.560140
2235.438617	579.137063
2237.043445	582.206294
2238.646289	581.890909
2240.247150	579.415385
2241.849374	579.270629
2243.449616	579.060140
2245.051220	576.990909
2246.649171	575.849650
2248.248485	577.681818
2249.845819	576.332867
2251.442845	581.639161
2253.041233	584.317483
2254.635972	586.025175
2256.228734	591.590909
2257.822859	593.320280
2259.418345	595.002098
2261.010186	594.472727
2262.601721	595.027972
2264.194618	594.661538
2265.782205	595.984615
2267.374488	596.737762
2268.961465	594.761538
2270.551469	596.005594
2272.136169	594.995105
2273.725563	592.713986
2275.309655	587.980420
2276.895107	579.433566
2278.478591	579.216783
2280.065100	578.701399
2281.647976	580.822378
2283.230549	578.886713
2284.812818	578.809091
2286.391457	575.318881
2287.973121	570.093007
2289.551156	565.989510
2291.132214	561.322378
2292.709645	557.637063
2294.285113	555.712587
2295.863603	557.018182
2297.438469	562.500699
2299.013034	565.390210
2300.587299	565.342657
2302.161263	565.039161
2303.734926	561.395105
2305.308290	559.211189
2306.878035	553.304895
2308.447481	548.106294
2310.019945	544.346853
2311.587135	544.032867
2313.157343	547.127972
2314.723936	547.376923
2316.291889	551.889510
2317.857886	551.792308
2319.423586	552.969231
2320.988988	557.978322
2322.552437	558.444755
2324.117245	559.027273
2325.678445	554.036364
2327.242659	553.715385
2328.801611	553.609091
2330.363578	553.970629
2331.923593	556.795804
2333.483314	554.864336
2335.041085	557.656643
2336.598561	556.347552
2338.155743	558.511888
2339.710977	567.097902
2341.265918	570.666434
2342.820564	570.463636
2344.374917	566.023776
2345.928977	569.953147
2347.482742	569.031469
2349.034564	568.497203
2350.584442	568.130769
2352.137328	562.461538
2353.684972	560.906993
2355.235623	560.069231
2356.782683	559.623077
2358.331101	560.658042
2359.879228	560.234266
2361.423766	554.920979
2362.969662	554.815385
2364.513620	555.573427
2366.058935	554.926573
2367.600665	553.171329
2369.143752	555.134965
2370.684903	551.585315
2372.225765	552.099301
2373.766338	548.283217
2375.306622	543.538462
2376.846617	540.519580
2378.383034	540.341259
2379.922452	537.097902
2381.458293	541.448951
2382.995490	539.592308
2384.529112	541.567832
2386.065734	545.169930
2387.600426	552.690909
2389.133188	554.976224
2390.665663	555.690210
2392.196210	554.563636
2393.729755	552.812587
2395.258089	552.942657
2396.787780	554.455245
2398.317184	551.860839
2399.846304	552.928671
2401.375139	549.343357
2402.898768	546.825874
2404.427033	547.569231
2405.950096	551.593706
2407.477792	551.282517
2408.998649	552.053846
2410.524139	554.010490
2412.046068	553.597902
2413.569353	554.226573
2415.090716	561.325175
2416.610160	563.060839
2418.130959	565.248951
2419.649840	564.365734
2421.168438	559.611888
2422.685119	557.967832
2424.203154	560.317483
2425.720908	558.918881
2427.235111	559.462937
2428.749033	552.818881
2430.262675	550.727972
2431.777672	550.637063
2433.289120	556.040559
2434.801923	554.770629
2436.312812	557.773427
2437.823423	559.825175
2439.332122	556.356643
2440.843807	555.167133
2442.351949	556.118182
2443.859813	554.560839
2445.367399	551.500000
2446.871444	544.376923
2448.378474	543.138462
2449.883597	542.783217
2451.388441	542.393007
2452.891379	540.566434
2454.394041	544.751049
2455.896426	537.713287
2457.396906	535.769930
2458.898739	536.736364
2460.398667	538.388811
2461.898320	539.334965
2463.397698	538.676224
2464.895173	537.276224
2466.390746	539.880420
2467.889299	540.327972
2469.384324	535.934965
2470.880701	533.016783
2472.373552	529.208392
2473.867756	526.318182
2475.361686	530.537762
2476.852092	530.306294
2478.345476	532.215385
2479.836962	533.394406
2481.326551	535.089510
2482.815868	536.625874
2484.303289	540.097203
2485.793686	537.183217
2487.280565	529.138462
2488.768795	522.857343
2490.253508	522.018881
2491.737952	523.832867
2493.223746	519.797203
2494.707649	521.318881
2496.192902	525.446154
2497.673022	524.546154
2499.156115	524.432168
2500.637317	525.800000
2502.118250	528.651748
2503.597294	528.374126
2505.076069	525.937762
2506.554576	522.479720
2508.032815	525.693007
2509.510785	527.447552
2510.985250	533.293007
2512.462685	539.437063
2513.936616	539.451748
2515.411897	534.700000
2516.886911	531.183916
2518.358425	532.524476
2519.831288	531.137762
2521.302269	529.091608
2522.774600	525.804895
2524.241817	518.996503
2525.712001	518.069930
2527.180304	517.505594
2528.648342	521.982517
2530.116115	521.911189
2531.583623	520.006993
2533.050866	520.099301
2534.514617	521.755944
2535.979718	525.143357
2537.442942	527.027273
2538.907516	523.903497
2540.368600	526.124476
2541.831034	523.918182
2543.293205	524.410490
2544.751890	523.690909
2546.215147	525.695105
2547.673307	527.776224
2549.132816	528.752448
2550.587231	532.097902
2552.046217	532.289510
2553.503331	528.058741
2554.958574	523.259441
2556.413555	516.594406
2557.866668	519.856643
2559.321129	515.823776
2560.773720	514.562238
2562.226052	514.141958
2563.676517	519.062238
2565.129937	527.946154
2566.578275	531.460140
2568.029569	536.467832
2569.478996	537.807692
2570.924951	536.722378
2572.373861	536.217483
2573.819301	534.553846
2575.266088	533.181119
2576.711013	527.681119
2578.155679	524.120979
2579.601693	523.287413
2581.044241	525.735664
2582.488136	523.965035
2583.928566	520.211189
2585.370343	521.267133
2586.810261	519.953147
2588.251526	519.265734
2589.689329	518.948951
2591.130082	518.315385
2592.565773	516.278322
2594.004413	513.401399
2595.441195	515.723776
2596.876122	517.106993
2598.313996	518.077622
2599.746813	516.553846
2601.180977	517.640559
2602.613287	519.891608
2604.046943	519.591608
2605.478746	518.550350
2606.910295	516.675524
2608.341592	514.042657
2609.771036	508.596503
2611.200228	505.644755
2612.627570	506.172028
2614.056257	502.932168
2615.484693	503.046853
2616.909681	502.840559
2618.336016	504.120979
2619.760502	507.539860
2621.186334	508.876224
2622.608722	506.040559
2624.032456	505.250350
2625.454343	502.726573
2626.875981	502.292308
2628.295773	505.052448
2629.716911	506.073427
2631.137799	507.932168
2632.555249	511.939161
2633.975638	511.865734
2635.392590	513.022378
2636.809293	513.571329
2638.225748	506.182517
2639.641955	499.839860
2641.057914	496.348252
2642.472032	497.202797
2643.885902	497.410490
2645.297934	499.008392
2646.711309	501.017483
2648.121255	504.034965
2649.534137	507.261538
2650.943590	507.140559
2652.352797	507.548951
2653.760168	504.316783
2655.170473	499.127273
2656.578943	497.641958
2657.985577	496.503497
2659.391966	497.788112
2660.796521	492.942657
2662.202420	494.684615
2663.606486	496.527273
2665.010307	495.874825
2666.413884	496.030070
2667.815630	494.601399
2669.218719	497.056643
2670.618390	497.274825
2672.019405	499.806294
2673.417004	498.319580
2674.817533	498.434965
2676.214646	494.955245
2677.613103	492.797902
2679.009733	493.263636
2680.406120	489.015385
2681.802265	484.406993
2683.196585	482.628671
2684.592246	481.073427
2685.984499	486.911189
2687.378094	488.477622
2688.769865	490.308392
2690.162979	493.611888
2691.554269	498.137063
2692.943736	496.323776
2694.332963	495.530769
2695.721951	497.674825
2697.112280	494.531469
2698.497626	492.205594
2699.885895	492.566434
2701.272344	489.639161
2702.658554	493.120979
2704.044525	490.225175
2705.427098	489.565734
2706.811013	496.116783
2708.194690	497.534266
2709.578128	492.533566
2710.958172	495.648951
2712.339556	495.017483
2713.719126	491.832168
2715.100036	490.277622
2716.479132	491.967133
2717.856414	488.165035
2719.235037	489.654545
2720.611847	488.016783
2721.988420	491.141958
2723.364758	494.671329
2724.739285	493.327273
2726.115152	496.778322
2727.487632	502.097203
2728.863028	499.567133
2730.233464	501.674825
2731.605241	500.675524
2732.976783	502.340559
2734.346517	499.356643
2735.717592	500.367133
2737.086858	496.363636
2738.455891	493.633566
2739.823118	490.372028
2741.190112	489.842657
2742.556872	492.734965
2743.923401	486.768531
2745.288124	485.518182
2746.652615	483.137063
2748.016875	479.567832
2749.380902	482.376923
2750.744698	481.993706
2752.105120	484.732168
2753.468452	483.556643
2754.826842	483.597203
2756.188142	482.067133
2757.546072	482.104196
2758.906910	480.693007
2760.265949	476.774825
2761.621619	475.312587
2762.980197	471.727273
2764.335408	471.311189
2765.690390	471.389510
2767.043576	472.227273
2768.399668	476.769231
2769.752395	482.888811
2771.104895	484.241259
2772.457166	484.192308
2773.810776	488.016084
2775.161024	486.351049
2776.509478	483.715385
2777.860838	476.971329
2779.208838	473.737063
2780.558176	473.824476
2781.905722	471.746154
2783.253042	470.305594
2784.600135	470.327972
2785.945437	471.884615
2787.290512	473.141958
2788.635362	471.786713
2789.979986	470.296503
2791.321258	465.632168
2792.663868	464.106993
2794.006252	464.451049
2795.348411	468.423776
2796.687221	473.993706
2798.028931	474.118182
2799.367293	473.068531
2800.706991	471.500699
2802.044905	476.256643
2803.381034	477.633566
2804.716939	472.554545
2806.054182	469.032168
2807.389641	467.468531
2808.724877	465.311888
2810.058330	467.620979
2811.393120	469.167832
2812.724570	472.658042
2814.058915	469.899301
2815.388362	469.806993
2816.719146	472.250350
2818.049708	476.223776
2819.378491	474.281818
2820.708610	473.754545
2822.036951	471.651748
2823.365071	472.118182
2824.691413	468.760839
2826.019092	470.318881
2827.343437	471.289510
2828.669119	470.362238
2829.993025	469.134965
2831.316712	470.693706
2832.641734	473.181818
2833.963426	470.842657
2835.284900	471.797902
2836.606155	472.510490
2837.927191	468.722378
2839.246454	466.009790
2840.567053	462.166434
2841.885881	458.327972
2843.204490	454.081119
2844.521328	448.372028
2845.837949	448.595105
2847.154353	445.837762
2848.468987	448.571329
2849.784957	448.582517
2851.097606	454.956643
2852.411590	457.289510
2853.725358	456.583916
2855.038909	456.321678
2856.350694	460.039860
2857.660712	458.497902
2858.972065	455.290210
2860.280103	451.704895
2861.589475	454.110490
2862.898633	453.569231
2864.207575	458.042657
2865.514753	459.160839
2866.820169	462.793007
2868.126919	462.700000
2869.431906	463.036364
2870.736680	463.246154
2872.039692	465.812587
2873.345585	463.062937
2874.646624	461.125874
2875.948997	459.675524
2877.249610	459.318182
2878.551557	454.878322
2879.853290	454.920280
2881.151720	455.764336
2882.451483	455.544056
2883.749489	451.422378
2885.047283	451.958741
2886.343321	447.905594
2887.640692	446.576923
2888.936307	441.259441
2890.231711	438.521678
2891.526904	435.816084
2892.818800	435.824476
2894.113572	433.965035
2895.405047	436.848951
2896.697855	440.581818
2897.990453	440.763636
2899.279757	440.173427
2900.570393	442.000699
2901.859278	439.302098
2903.149495	437.165035
2904.436421	433.732867
2905.724679	434.444056
2907.011188	433.099301
2908.297489	432.422378
2909.583581	428.738462
2910.867925	432.398601
2912.155140	431.193007
2913.437529	430.864336
2914.721250	430.621678
2916.003225	432.319580
2917.284992	439.986014
2918.565015	442.034266
2919.847907	445.702098
2921.129054	446.759441
2922.406919	445.306294
2923.687653	443.923776
2924.965106	439.244056
2926.242353	438.682517
2927.517858	430.079720
2928.796231	430.323776
2930.069790	427.018182
2931.346216	425.110490
2932.620901	425.548951
2933.893845	423.929371
2935.168121	424.832168
2936.440657	428.767832
2937.712988	431.463636
2938.982047	432.869930
2940.253971	430.928671
2941.524157	432.429371
2942.794139	431.596503
2944.063918	433.144755
2945.331961	431.086713
2946.598267	424.218182
2947.864372	421.413287
2949.131806	418.759441
2950.397506	417.789510
2951.663003	417.783916
2952.928298	414.305594
2954.190328	414.827972
2955.453688	411.157343
2956.716847	413.149650
2957.978274	415.306294
2959.241030	413.103497
2960.502054	415.330070
2961.761348	415.336364
2963.020442	415.781818
2964.279335	417.277622
2965.538028	418.773427
2966.796521	419.219580
2968.053285	419.482517
2969.309849	421.969930
2970.564686	421.841259
2971.820851	424.971329
2973.073762	424.107692
2974.328002	421.725175
2975.582043	420.721678
2976.834358	424.826573
2978.086474	422.151748
2979.336866	423.889510
2980.590113	421.947552
2981.838583	417.374126
2983.089908	413.559441
2984.337983	410.034266
2985.585862	408.188811
2986.833543	407.241259
2988.081027	408.163636
2989.326790	409.183916
2990.572357	411.662937
2991.819251	416.002098
2993.062901	411.806294
2994.307879	416.397203
2995.549613	416.697203
2996.794199	411.091608
2998.037066	408.830070
2999.276692	405.695804
3000.519168	405.715385
3001.758404	407.516084
3002.998968	407.346154
3004.237816	408.402797
3005.476468	411.145455
3006.713406	411.299301
3007.951670	412.281818
3009.188219	416.921678
3010.424575	416.386014
3011.660737	417.797203
3012.895185	416.659441
3014.129441	414.109790
3015.363503	410.453846
3016.595853	409.748951
3017.826491	403.863636
3019.059975	403.488811
3020.291747	403.223776
3021.521809	404.055944
3022.751679	404.685315
3023.979839	404.634965
3025.209325	405.073427
3026.437102	411.606993
3027.664688	409.777622
3028.893601	410.623077
3030.117771	407.963636
3031.344784	410.709790
3032.568573	407.033566
3033.793689	407.941958
3035.017098	409.700000
3036.240317	410.090909
3037.461831	409.718881
3038.686186	410.458042
3039.905806	411.106993
3041.126752	415.077622
3042.347509	412.627273
3043.566562	411.581818
3044.786940	409.465734
3046.004102	407.832168
3047.222590	402.983916
3048.439375	402.669231
3049.655973	404.204895
3050.872382	407.300699
3052.085579	406.734965
3053.301613	407.279720
3054.514435	407.938462
3055.730094	410.089510
3056.941030	407.200000
3058.153291	405.474825
3059.365366	403.479021
3060.577253	400.574126
3061.787444	397.160839
3062.997448	397.721329
3064.207266	399.354545
3065.415388	401.768881
3066.623325	398.182517
3067.829566	399.590559
3069.037132	397.556643
3070.243003	397.766783
3071.448690	396.730769
3072.654191	395.522028
3073.857999	393.746154
3075.063131	392.414336
3076.266570	388.120979
3077.468318	387.829720
3078.669881	385.032168
3079.871261	385.975524
3081.072457	382.074126
3082.271963	381.729371
3083.471286	377.288112
3084.671932	380.986713
3085.870888	384.062238
3087.066650	386.258042
3088.265241	384.565734
3089.460638	385.234266
3090.657358	382.897902
3091.850886	384.337063
3093.047242	382.118182
3094.241912	383.079720
3095.433391	378.917483
3096.629201	377.772028
3097.820318	376.981818
3099.012757	377.711189
3100.202009	381.363636
3101.394086	381.537063
3102.584480	379.297902
3103.771688	380.692308
3104.960219	376.988112
3106.150071	375.096503
3107.336740	374.137762
3108.523228	376.634266
3109.709538	374.971329
3110.897169	374.820280
3112.081618	374.700699
3113.264388	375.705594
3114.449980	376.711888
3115.633893	377.948252
3116.816127	377.340559
3117.998182	377.020280
3119.180059	373.815385
3120.361758	375.566434
3121.541780	377.053147
3122.720125	379.262238
3123.901290	375.194406
3125.079280	373.957343
3126.257094	373.204196
3127.434730	372.510490
3128.610691	372.281818
3129.786475	375.823776
3130.963581	373.919580
3132.139012	374.696503
3133.312770	376.544755
3134.484855	379.158042
3135.658262	377.726573
3136.831492	377.893706
3138.003051	374.014685
3139.175930	372.686713
3140.345642	372.315385
3141.516675	371.050350
3142.686038	369.955245
3143.853730	367.831469
3145.024238	364.339860
3146.190088	363.621678
3147.360246	363.919580
3148.525748	362.768531
3149.691075	361.555245
3150.856229	360.936364
3152.021210	357.265035
3153.187510	354.613986
3154.349158	351.377622
3155.512125	350.997203
3156.674920	348.293007
3157.837542	346.390909
3158.998499	345.213287
3160.159283	349.037063
3161.319895	350.225874
3162.478843	347.915385
3163.637620	350.512587
3164.796225	353.014685
3165.954657	351.618881
3167.112919	350.452448
3168.269518	353.432168
3169.424456	354.503497
3170.580713	352.993007
3171.735309	356.458042
3172.889735	360.316084
3174.042501	362.327972
3175.195096	358.262238
3176.347522	356.882517
3177.499778	360.685315
3178.651863	359.671329
3179.800803	360.525175
3180.952549	356.700000
3182.102637	358.686014
3183.251069	356.700000
3184.399331	357.104196
3185.547425	362.247552
3186.695350	363.731469
3187.841619	362.986014
3188.987720	361.370629
3190.132167	363.158042
3191.276446	358.773427
3192.420557	354.977622
3193.565985	347.748951
3194.708275	341.867832
3195.850398	342.196503
3196.992353	342.360140
3198.134141	343.402797
3199.275762	345.318182
3200.414248	345.749650
3201.554051	347.337063
3202.695172	349.883217
3203.833158	350.218881
3204.969495	344.639860
3206.105666	343.032867
3207.243154	337.660839
3208.378994	338.180420
3209.516151	334.857343
3210.648695	337.589510
3211.785521	340.824476
3212.917735	341.618881
3214.051266	340.353846
3215.184633	342.744056
3216.314872	341.148252
3217.447909	340.065734
3218.577820	335.769930
3219.709047	335.048252
3220.837150	332.084615
3221.968049	329.847552
3223.097304	326.992308
3224.224916	331.788811
3225.349405	333.893007
3226.478170	337.937063
3227.603813	339.018182
3228.729294	340.925175
3229.853133	340.232867
3230.979766	341.598601
3232.101802	335.840559
3233.225154	335.300000
3234.348344	334.644056
3235.471372	331.165035
3236.592760	326.238462
3237.713986	330.115385
3238.833575	329.651049
3239.953002	331.700000
3241.070791	332.609091
3242.191372	334.216783
3243.308840	335.764336
3244.426147	336.670629
3245.543294	335.060839
3246.658805	338.186713
3247.775630	339.335664
3248.889346	336.023077
3250.005851	335.722378
3251.120722	340.825874
3252.232484	339.598601
3253.344086	337.977622
3254.457004	339.081818
3255.569762	337.405594
3256.679414	333.329371
3257.790381	332.191608
3258.901189	327.546154
3260.010365	327.068531
3261.117911	324.675524
3262.226770	323.613986
3263.335472	322.975524
3264.441071	327.149650
3265.547984	326.847552
3266.653268	328.772727
3267.759866	332.186014
3268.863364	332.532867
3269.968177	331.624476
3271.072832	333.216783
3272.174388	330.975524
3273.275788	330.706294
3274.378502	329.804196
3275.481060	329.582517
3276.580521	327.953147
3277.682766	328.832867
3278.781915	324.885315
3279.879440	323.163636
3280.976809	319.702797
3282.076960	318.862238
3283.174019	316.624476
3284.270922	317.414685
3285.367670	316.218182
3286.459860	317.737762
3287.556298	322.691608
3288.651114	322.327273
3289.745776	322.089510
3290.838816	321.541259
3291.931701	318.804196
3293.022967	314.514685
3294.115544	310.784615
3295.206502	309.233566
3296.295840	309.169930
3297.385025	310.817483
3298.475523	312.278322
3299.562936	314.146853
3300.650196	315.431469
3301.738769	314.652448
3302.827190	316.558741
3303.911063	318.102797
3304.999178	319.545455
3306.084211	317.155944
3307.167629	317.669231
3308.252359	317.620979
3309.335473	320.674825
3310.419900	319.902098
3311.501248	315.900699
3312.583908	311.292308
3313.664954	306.395105
3314.745849	306.153147
3315.825130	306.036364
3316.904261	306.833566
3317.984704	307.462937
3319.062072	307.601399
3320.140752	308.783916
3321.217820	310.025874
3322.294739	311.173427
3323.370046	311.333566
3324.445204	309.327273
3325.521673	309.371329
3326.595072	310.320979
3327.668322	311.551049
3328.742882	307.333566
3329.815834	307.026573
3330.887177	307.448951
3331.959831	307.260140
3333.029419	305.135664
3334.100317	305.541958
3335.169608	304.986014
3336.240210	305.951748
3337.309205	305.246853
3338.376594	308.453846
3339.442378	311.718881
3340.512388	310.458042
3341.579335	308.309790
3342.643220	308.953846
3343.709873	309.251049
3344.774921	309.011888
3345.838366	308.046154
3346.901665	308.802797
3347.964817	307.944755
3349.027823	307.178322
3350.090683	305.351049
3351.151941	304.693706
3352.210142	303.134266
3353.272563	301.460839
3354.331929	298.342657
3355.391149	297.288811
3356.451679	294.895105
3357.507699	293.649650
3358.566483	292.366434
3359.620760	295.044056
3360.677801	298.678322
3361.733243	303.688811
3362.789995	304.543357
3363.845148	305.159441
3364.898704	303.598601
3365.950664	302.481119
3367.005385	300.559441
3368.057057	301.116084
3369.108586	295.401399
3370.161423	291.115385
3371.211213	288.430769
3372.262312	292.638462
3373.310365	296.819580
3374.361177	300.189510
3375.408945	300.041259
3376.456570	299.472028
3377.504052	297.692308
3378.549942	299.500000
3379.597140	298.333566
3380.641296	296.902797
3381.688210	293.172727
3382.733532	292.618881
3383.775813	294.585315
3384.817954	297.305594
3385.861402	297.986014
3386.904709	298.120280
3387.946427	299.374126
3388.988003	300.620280
3390.029438	298.304895
3391.069285	298.275524
3392.107543	294.959441
3393.147109	294.265035
3394.186535	294.030769
3395.224373	296.070629
3396.260624	295.120979
3397.296736	296.645455
3398.334155	302.373427
3399.368541	303.796503
3400.404234	308.280420
3401.439788	310.236364
3402.472311	309.660140
3403.507587	311.395105
3404.539832	311.022378
3405.571939	310.318881
3406.602462	304.833566
3407.634292	300.562238
3408.665984	294.693007
3409.694648	299.035664
3410.723175	297.963636
3411.753008	295.900000
3412.782704	295.520280
3413.809374	295.341958
3414.837351	299.458042
3415.862303	300.776923
3416.890005	302.790210
3417.914684	301.396503
3418.940669	299.986014
3419.965074	298.944755
3420.989343	296.646853
3422.012033	298.853147
3423.034587	293.872727
3424.058447	291.269930
3425.079287	285.362937
3426.099991	282.638162
3427.122002	280.981718
3428.140994	280.669830
3429.159850	281.978721
3430.180013	285.184615
3431.197159	290.563736
