-118.077073	51.030220
-115.407473	47.679121
-112.740808	45.263836
-110.074895	43.624575
-107.411914	42.601548
-104.747504	42.034965
-102.086024	41.765035
-99.423114	39.949650
-96.765312	41.160140
-94.106079	39.748252
-91.447596	41.019580
-88.792036	40.608392
-86.135048	43.424476
-83.483157	44.455944
-80.829837	42.673427
-78.179437	45.020280
-75.527607	45.883217
-72.880868	44.467133
-70.232699	45.723776
-67.585274	44.111888
-64.940762	44.598601
-62.294822	42.977622
-59.653963	41.946154
-57.011675	38.252448
-54.372295	39.837063
-51.731487	38.665734
-49.091419	39.588811
-46.456423	40.805594
-43.819999	41.747552
-41.186477	43.776224
-38.551527	48.116084
-35.921642	51.748951
-33.288165	53.983217
-30.659750	55.955245
-28.032069	54.739161
-25.402959	50.665035
-22.778906	32.893007
-20.151264	-33.733566
-17.528675	-137.995105
-14.906818	-197.237762
-12.285691	293.106294
-9.665294	1049.211189
-7.047786	1675.521678
-4.428848	2109.752448
-1.812797	2344.820280
0.802526	2385.362238
3.417122	2230.600699
6.028835	1885.675524
8.641977	1359.465035
11.250085	699.296503
13.861775	57.779720
16.468434	-320.930769
19.076521	-150.629371
21.683884	36.550350
24.286222	64.331469
26.892138	63.150350
29.493032	58.404196
32.095354	57.776224
34.692659	58.311189
37.293539	60.955944
39.889405	58.896503
42.486698	60.151049
45.083272	64.990909
47.674837	64.092308
50.267830	67.356643
52.857962	67.642657
55.449522	73.553147
58.038222	71.758741
60.628349	72.564336
63.213478	76.201399
65.800033	76.527972
68.385875	77.855944
70.968863	74.560140
73.553277	74.968531
76.130563	74.988811
78.711415	74.519580
81.289418	80.465035
83.866711	81.127273
86.445430	85.568531
89.019168	84.481818
91.594332	89.218182
94.166653	92.934266
96.738266	94.802797
99.307039	97.625175
101.877239	102.050350
104.444601	110.251049
107.013388	116.120280
109.579339	129.417483
112.142455	149.713986
114.709127	176.321678
117.266578	219.159441
119.829714	295.583217
122.387891	425.454545
124.949621	661.279720
127.506395	1062.402098
130.064596	1724.550350
132.617844	2645.457343
135.170393	3844.872028
137.726493	5250.871329
140.277646	6780.908392
142.828100	8338.781818
145.377857	9781.169930
147.924796	10993.337063
150.471038	11930.160839
153.018706	12559.172727
155.565678	12925.266434
158.107715	13093.497902
160.649058	13147.468531
163.189708	13130.299301
165.731784	13116.811189
168.271048	13096.556643
170.807504	13091.441259
173.343268	13102.474825
175.880458	13095.353846
178.416957	13082.468531
180.950650	13073.279021
183.481540	13060.757343
186.011741	13049.202797
188.543367	13034.509091
191.072192	13016.589510
193.598218	13013.093007
196.123558	13009.068531
198.650324	12988.400699
201.174292	12954.455944
203.697576	12925.154545
206.220175	12886.313986
208.739981	12853.587413
211.259104	12815.897902
213.777544	12790.004196
216.297408	12782.135664
218.810271	12780.053846
221.326665	12783.901399
223.842377	12798.932867
226.353199	12817.444755
228.865447	12823.616084
231.374911	12827.516783
233.883697	12834.554545
236.391805	12828.837063
238.901336	12828.513986
241.405987	12812.167133
243.909962	12821.906993
246.415362	12840.551748
248.915886	12846.371329
251.419933	12847.627273
253.917010	12852.081119
256.417609	12848.869930
258.915437	12833.206294
261.412592	12815.690210
263.909074	12784.218182
266.400693	12752.061538
268.895832	12702.417483
271.388205	12647.523776
273.879907	12622.604895
276.368845	12583.104895
278.859208	12538.910490
281.346808	12504.958042
283.831649	12476.763636
286.320005	12444.748252
288.801421	12412.498601
291.286351	12387.112587
293.766436	12370.855944
296.250033	12357.246853
298.728787	12327.342657
301.208965	12313.288811
303.686390	12287.089510
306.163152	12252.097203
308.639251	12216.713986
311.112601	12209.735664
313.585289	12193.979021
316.057316	12181.132867
318.528682	12166.208392
320.997304	12170.800000
323.465266	12187.563636
325.934650	12194.706294
328.399212	12188.583916
330.867278	12192.247552
333.330524	12187.140559
335.793112	12169.579021
338.255044	12157.580420
340.716319	12162.320979
343.174860	12150.539161
345.634823	12128.321678
348.092053	12102.850350
350.548629	12095.273427
353.004551	12068.996503
355.457744	12038.181818
357.912358	12002.741958
360.362171	11980.869930
362.815480	11951.559441
365.263991	11906.540559
367.711851	11874.797902
370.161132	11843.660140
372.605620	11816.794406
375.051530	11792.319580
377.496791	11785.784615
379.939332	11788.185315
382.381226	11771.374126
384.822473	11768.151748
387.261004	11771.472028
389.700957	11764.763636
392.138196	11738.620979
394.572723	11714.874825
397.010738	11706.458042
399.443976	11685.102797
401.878636	11662.583916
404.308522	11660.872028
406.741894	11646.259441
409.170496	11641.164336
411.598457	11634.790210
414.027838	11640.830769
416.452454	11659.699301
418.878492	11660.084615
421.303889	11661.358741
423.728646	11684.248252
426.148645	11705.734965
428.570065	11709.803497
430.988788	11716.721678
433.408932	11737.704895
435.826381	11735.574825
438.245250	11748.502098
440.661426	11755.009790
443.072855	11767.338462
445.487760	11773.381119
447.899975	11774.113986
450.311556	11767.621678
452.722503	11758.862937
455.130764	11731.756643
457.538392	11714.430070
459.945389	11691.071329
462.351753	11664.755944
464.755435	11637.891608
467.158487	11630.882517
469.560909	11618.751748
471.962701	11617.681119
474.361816	11606.333566
476.762350	11604.155245
479.162255	11588.026573
481.557437	11572.645455
483.956086	11545.024476
486.350015	11523.346853
488.743318	11498.155944
491.135995	11466.617483
493.528047	11440.176224
495.921517	11410.202098
498.310276	11390.624476
500.696368	11374.925874
503.083879	11354.765734
505.470768	11342.160839
507.854993	11324.841259
510.240637	11318.927972
512.623618	11310.717483
515.003939	11310.102098
517.385679	11306.682517
519.764760	11302.904196
522.145260	11290.060140
524.523102	11274.153846
526.898289	11273.213287
529.272858	11263.436364
531.648846	11271.839161
534.022180	11263.218881
536.396932	11254.746154
538.766999	11249.213287
541.136450	11242.218182
543.507319	11231.269231
545.873508	11221.748252
548.241115	11210.136364
550.606076	11199.362238
552.970424	11191.084615
555.334160	11180.921678
557.699312	11173.580420
560.059793	11166.369930
562.421692	11145.841259
564.780950	11151.562238
567.137571	11142.685315
569.497636	11128.866434
571.851011	11109.074126
574.207830	11085.365035
576.562013	11058.842657
578.915589	11039.591608
581.268556	11012.511189
583.618892	10982.583217
585.970644	10949.734965
588.315720	10922.953147
590.666260	10916.163636
593.010126	10911.421678
595.359454	10891.880420
597.704134	10873.709790
600.046188	10863.304895
602.389660	10857.737762
604.730509	10849.258741
607.070756	10833.779720
609.408382	10815.498601
611.749443	10791.337063
614.085866	10776.012587
616.423706	10756.882517
618.758929	10734.832168
621.091536	10702.048951
623.425559	10672.378322
625.756969	10654.303497
628.087780	10636.101399
630.417993	10634.763636
632.747608	10617.359441
635.072601	10602.101399
637.403035	10583.338462
639.728847	10582.520280
642.052053	10575.695804
644.376674	10566.170629
646.698690	10560.586713
649.020113	10549.558741
651.338932	10537.495105
653.659167	10526.241958
655.978809	10524.493706
658.295850	10522.764336
660.612299	10516.118182
662.926150	10523.704895
665.241417	10522.206993
667.554087	10524.737762
669.868172	10508.497203
672.177657	10524.535664
674.488558	10521.416783
676.796866	10503.616783
679.104586	10485.409790
681.413721	10459.550350
683.718263	10444.283217
686.022218	10416.213986
688.325588	10398.086014
690.630372	10390.516084
692.930570	10358.715385
695.232182	10331.618182
697.533210	10308.946853
699.829655	10297.183217
702.127516	10269.705594
704.424793	10249.300000
706.721487	10239.159441
709.013605	10225.957343
711.309134	10225.012587
713.600090	10217.862937
715.892460	10231.387413
718.182254	10234.869930
720.471468	10228.476923
722.760103	10239.916084
725.046166	10238.650350
727.333642	10234.326573
729.618547	10233.083217
731.902875	10230.365734
734.184634	10239.206993
736.467807	10241.991608
738.750403	10258.683217
741.028444	10253.676224
743.307898	10269.215385
745.586777	10257.846853
747.865080	10252.634266
750.138834	10255.330769
752.414002	10236.430769
754.688596	10211.357343
756.960630	10188.948951
759.234078	10166.878322
761.504968	10160.044755
763.773302	10147.482517
766.043049	10141.358042
768.310242	10128.860140
770.576864	10129.712587
772.842916	10116.351049
775.106417	10111.658042
777.371331	10109.856643
779.635675	10102.797203
781.895490	10094.465035
784.156717	10088.951049
786.417377	10077.540559
788.675491	10070.525175
790.931060	10067.171329
793.190020	10057.360140
795.442481	10054.779021
797.700309	10044.115385
799.953617	10022.235664
802.204386	10003.243357
804.456567	9987.598601
806.706210	9967.298601
808.957264	9960.408392
811.203807	9948.004196
813.451762	9928.230070
815.697183	9921.139161
817.944015	9930.600000
820.190286	9918.546853
822.432053	9916.695105
824.677202	9911.918881
826.915879	9902.471329
829.157938	9868.965734
831.395499	9860.467133
833.634472	9847.065734
835.870918	9845.452448
838.108775	9831.028671
840.344107	9820.859441
842.576916	9826.039860
844.811136	9830.072028
847.042834	9829.568531
849.273976	9847.566434
851.504565	9849.112587
853.734598	9843.477622
855.964078	9835.683217
858.189076	9838.388811
860.417449	9837.748951
862.641343	9829.703497
864.866647	9824.493706
867.087476	9827.229371
869.311677	9838.914685
871.531405	9830.969930
873.752544	9830.323776
875.973132	9832.763636
878.191210	9825.223776
880.410698	9818.444755
882.625720	9799.923776
884.840195	9777.618182
887.054121	9760.269930
889.267501	9731.670629
891.480333	9718.976923
893.692619	9706.609790
895.902402	9689.346154
898.111640	9664.143357
900.320333	9658.713986
902.526527	9656.321678
904.734130	9643.702098
906.939235	9627.534965
909.143797	9600.329371
911.345864	9590.286014
913.549340	9580.824476
915.750322	9574.474825
917.950763	9579.002098
920.152611	9572.533566
922.348069	9562.159441
924.546886	9555.790210
926.741264	9556.251748
928.939000	9544.326573
931.132300	9532.660140
933.327009	9535.412587
935.519232	9535.123776
937.710917	9537.779021
939.902064	9551.338462
942.090728	9578.660140
944.278855	9588.583916
946.464502	9612.618182
948.653501	9622.141259
950.838077	9617.358741
953.022118	9615.970629
955.209509	9623.573427
957.388596	9628.781818
959.571034	9640.548951
961.752938	9644.304196
963.932368	9657.369231
966.109324	9669.374126
968.287689	9679.135664
970.467461	9666.430769
972.640884	9685.683217
974.817653	9675.248951
976.990015	9658.402098
979.163785	9646.407692
981.333151	9651.925874
983.505861	9653.346154
985.676106	9647.109091
987.845822	9652.420280
990.015009	9659.189510
992.179799	9647.048951
994.347930	9639.100699
996.511667	9642.104196
998.676810	9655.600000
1000.839495	9656.540559
1003.001653	9652.016783
1005.161355	9643.158042
1007.320533	9633.455245
1009.481117	9618.418182
1011.639246	9598.393007
1013.796851	9583.325175
1015.953933	9555.981119
1018.110492	9521.409091
1020.262671	9508.400000
1022.416256	9505.652448
1024.569320	9491.909790
1026.719936	9488.635664
1028.871957	9492.737063
1031.019605	9486.576923
1033.170585	9488.610490
1035.317194	9481.240559
1037.463285	9489.160839
1039.608856	9484.497203
1041.755833	9473.245455
1043.896521	9459.323776
1046.040539	9467.099301
1048.182116	9461.419580
1050.323177	9452.881818
1052.465642	9450.106993
1054.601828	9455.594406
1056.741340	9442.718182
1058.876496	9447.672727
1061.014977	9440.161538
1063.149104	9444.332168
1065.282718	9445.833566
1067.417737	9452.125175
1069.548406	9479.946154
1071.680480	9506.404196
1073.810125	9515.731469
1075.939258	9537.565734
1078.067879	9543.417483
1080.195989	9544.111888
1082.321673	9550.000699
1084.446847	9545.911189
1086.573425	9531.372727
1088.695666	9511.294406
1090.819310	9505.924476
1092.938621	9498.108392
1095.063160	9509.718881
1097.181454	9499.753846
1099.301153	9497.847552
1101.418433	9506.358042
1103.535207	9498.207692
1105.651474	9496.086014
1107.765326	9504.860140
1109.880581	9487.576224
1111.991513	9466.504196
1114.105758	9459.086713
1116.215682	9458.244056
1118.327010	9453.402797
1120.437833	9441.370629
1122.544340	9428.843357
1124.654157	9419.381818
1126.759659	9406.450350
1128.866564	9394.879021
1130.967254	9380.324476
1133.073156	9360.871329
1135.174749	9338.865734
1137.277745	9306.454545
1139.380240	9279.281119
1141.476528	9263.268531
1143.578024	9239.093706
1145.675216	9203.681119
1147.771911	9179.777622
1149.868107	9147.834965
1151.963806	9135.041259
1154.059006	9132.134965
1156.151811	9116.532168
1158.246017	9107.202098
1160.334032	9110.846154
1162.427245	9084.593007
1164.514270	9074.235664
1166.604594	9067.853846
1168.690631	9055.037063
1170.779965	9031.455245
1172.863118	9013.531469
1174.947673	9010.767832
1177.033630	9027.910490
1179.115305	9041.235664
1181.198382	9053.052448
1183.279073	9062.722378
1185.359272	9084.297902
1187.438980	9080.565734
1189.518197	9104.461538
1191.595032	9099.340559
1193.669486	9101.040559
1195.747231	9096.550350
1197.820707	9100.095804
1199.895583	9111.184615
1201.966192	9122.518182
1204.038203	9138.530769
1206.107837	9148.839860
1208.178872	9151.913287
1210.249419	9173.151049
1212.315705	9181.051748
1214.383392	9201.705594
1216.448707	9205.332168
1218.515422	9223.705594
1220.577881	9236.387413
1222.643625	9234.874825
1224.705116	9243.078322
1226.768006	9254.561538
1228.828529	9268.110490
1230.888568	9264.936364
1232.948125	9269.599301
1235.005316	9272.267832
1237.062026	9273.377622
1239.116373	9272.472028
1241.174000	9278.381818
1243.229265	9289.190210
1245.280289	9295.501399
1247.332713	9314.262937
1249.384657	9333.828671
1251.434243	9366.602098
1253.483350	9386.374825
1255.531979	9390.437063
1257.580129	9389.660140
1259.627800	9391.564336
1261.671242	9378.728671
1263.717958	9368.013287
1265.762321	9373.710490
1267.806208	9385.769231
1269.847743	9397.608392
1271.886929	9425.506993
1273.929388	9443.748252
1275.967624	9479.655245
1278.007259	9497.700000
1280.046419	9525.616084
1282.081360	9555.019580
1284.117700	9595.836364
1286.151696	9623.050350
1288.187090	9666.241958
1290.218270	9739.625874
1292.250848	9818.569231
1294.282955	9877.780420
1296.312721	9973.640559
1298.343885	10071.329371
1300.370841	10185.304895
1302.399195	10321.197203
1304.423345	10494.595105
1306.450759	10675.584615
1308.473971	10867.249650
1310.498581	10960.622378
1312.520857	10747.765035
1314.544530	10786.025175
1316.565870	13917.561538
1318.586742	19410.481119
1320.607147	26583.570629
1322.623359	34679.820979
1324.640968	43024.039860
1326.656249	52074.256643
1328.674789	60916.178322
1330.689140	65734.262238
1332.701165	65847.064336
1334.716447	61334.392308
1336.727544	53046.121678
1338.740038	43154.274126
1340.748349	34434.248252
1342.759916	25944.369930
1344.765443	18390.811189
1346.774226	12497.953147
1348.778831	9030.782517
1350.786690	8716.176923
1352.794087	9867.438462
1354.795453	9846.534266
1356.798216	9711.092308
1358.800518	9560.440559
1360.802361	9428.844056
1362.803744	9306.289510
1364.802814	9211.515385
1366.801425	9143.174126
1368.799578	9067.580420
1370.797272	9003.314685
1372.790804	8954.925874
1374.785732	8913.302098
1376.780202	8882.496503
1378.774217	8847.521678
1380.765923	8821.823776
1382.757175	8779.618182
1384.746121	8747.887413
1386.736462	8721.267832
1388.726348	8711.768531
1390.713931	8698.481818
1392.701059	8689.984615
1394.685886	8686.577622
1396.672108	8695.222378
1398.656030	8714.874825
1400.639499	8718.782517
1402.622515	8723.220979
1404.603234	8730.781119
1406.585347	8728.771329
1408.565164	8735.102797
1410.544529	8748.995105
1412.519756	8758.979021
1414.498222	8765.050350
1416.474393	8782.663636
1418.450116	8791.653846
1420.425389	8813.065734
1422.398371	8834.764336
1424.370905	8857.039161
1426.342992	8890.625874
1428.314630	8919.845455
1430.282140	8955.055944
1432.254724	8977.958741
1434.219503	8992.414685
1436.189353	8997.382517
1438.155080	9005.286713
1440.122199	9000.670629
1442.087035	8987.420979
1444.047751	8974.736364
1446.013536	8962.774126
1447.973365	8950.489510
1449.934587	8930.244056
1451.897202	8906.368531
1453.855702	8888.355944
1455.813759	8858.947552
1457.771375	8835.864336
1459.728549	8810.777622
1461.683447	8804.193007
1463.639737	8790.777622
1465.593753	8777.872028
1467.547329	8764.862238
1469.498632	8755.927273
1471.451327	8733.925874
1473.401751	8703.727972
1475.351735	8674.332867
1477.301281	8662.716783
1479.248558	8639.639860
1481.193568	8626.401399
1483.139969	8615.539860
1485.085933	8614.310490
1487.031460	8613.830070
1488.974722	8612.904196
1490.917547	8624.646154
1492.858109	8625.252448
1494.800062	8621.818182
1496.739753	8618.237762
1498.679010	8626.142657
1500.617831	8629.437762
1502.554393	8613.357343
1504.492346	8613.548252
1506.428040	8609.071329
1508.363301	8612.931469
1510.296306	8622.448252
1512.228878	8627.106993
1514.161018	8643.037063
1516.092726	8643.772727
1518.022180	8657.847552
1519.953025	8666.220979
1521.883438	8672.725874
1523.809779	8671.442657
1525.737511	8677.732168
1527.662992	8693.124476
1529.588044	8702.014685
1531.512667	8707.090909
1533.436861	8708.204196
1535.358807	8708.895804
1537.282144	8712.606294
1539.203235	8713.603497
1541.122081	8712.852448
1543.042316	8695.458042
1544.960309	8676.656643
1546.877875	8665.351748
1548.793199	8656.492308
1550.709913	8632.622378
1552.622572	8587.965734
1554.538435	8561.257343
1556.452058	8531.183916
1558.363444	8515.200699
1560.276218	8498.858042
1562.184943	8480.793007
1564.095058	8463.376923
1566.004748	8447.566434
1567.914016	8437.077622
1569.821050	8426.706993
1571.725851	8424.102098
1573.632041	8410.633566
1575.535999	8394.135664
1577.439537	8408.235664
1579.342653	8396.409091
1581.243540	8400.046154
1583.145816	8379.324476
1585.045864	8352.035664
1586.947299	8333.040559
1588.844701	8310.329371
1590.741684	8285.308392
1592.638249	8267.344056
1594.536202	8253.069930
1596.428320	8234.148951
1598.323631	8222.569930
1600.218525	8207.746154
1602.111197	8197.147552
1604.003453	8183.869930
1605.893488	8162.991608
1607.783109	8147.239161
1609.672313	8134.476224
1611.561103	8133.000699
1613.447675	8139.627972
1615.335635	8138.096503
1617.219578	8133.894406
1619.104909	8143.566434
1620.989825	8133.930769
1622.872528	8133.737762
1624.756618	8138.435664
1626.636697	8127.232867
1628.518162	8106.295105
1630.397417	8088.921678
1632.278058	8070.579021
1634.152895	8061.621678
1636.032714	8054.402098
1637.908527	8046.965734
1639.783930	8047.572727
1641.660719	8045.600000
1643.531712	8038.893706
1645.405886	8063.504895
1647.276062	8068.783916
1649.149418	8074.900699
1651.020571	8073.216084
1652.889522	8076.193007
1654.759859	8069.720280
1656.626202	8052.766434
1658.493931	8050.352448
1660.359461	8041.336364
1662.226377	8012.838462
1664.089304	7990.133566
1665.953616	7983.300000
1667.815732	7969.593706
1669.677444	7966.420280
1671.540540	7949.629371
1673.401442	7945.967133
1675.260150	7945.002797
1677.118455	7946.906993
1678.978145	7934.675524
1680.832068	7938.328671
1682.689163	7937.138462
1684.545856	7936.021678
1686.398573	7941.441958
1688.254460	7938.399301
1690.106374	7929.361538
1691.957887	7924.665035
1693.808999	7900.216783
1695.659711	7892.697902
1697.510022	7876.843357
1699.358148	7867.113287
1701.207659	7842.566434
1703.051421	7838.211888
1704.900132	7833.661538
1706.743098	7826.910490
1708.589229	7832.185315
1710.431399	7830.626573
1712.276733	7825.685315
1714.116327	7816.977622
1715.957305	7810.904895
1717.799666	7795.329371
1719.638071	7779.946853
1721.477859	7783.082517
1723.315472	7772.741259
1725.152689	7765.046853
1726.987733	7768.023077
1728.824160	7768.463636
1730.658415	7774.951748
1732.492275	7765.651049
1734.325742	7758.323077
1736.155262	7740.172727
1737.987941	7723.774825
1739.816676	7704.636364
1741.648568	7696.810490
1743.476519	7699.523776
1745.304077	7697.294406
1747.131243	7685.648951
1748.958018	7686.490210
1750.784402	7683.837762
1752.606848	7673.838462
1754.432450	7674.774126
1756.254117	7666.116783
1758.077166	7649.067832
1759.898053	7633.077622
1761.718552	7630.413986
1763.540432	7620.643357
1765.356612	7627.888811
1767.175944	7628.502098
1768.991349	7624.354545
1770.809904	7622.929371
1772.624534	7632.377622
1774.438778	7630.218182
1776.252634	7632.629371
1778.066104	7632.885315
1779.877421	7627.640559
1781.690119	7614.134965
1783.502430	7607.725175
1785.310824	7587.692308
1787.120598	7585.053846
1788.926458	7580.802098
1790.735463	7579.162937
1792.540555	7569.314685
1794.347028	7566.583217
1796.153117	7558.009790
1797.955296	7564.664336
1799.760618	7581.162937
1801.562032	7594.111189
1803.364826	7595.830769
1805.163714	7601.826573
1806.963983	7599.141958
1808.763870	7602.025874
1810.561616	7600.400699
1812.358980	7592.648951
1814.155965	7578.973427
1815.952569	7573.389510
1817.747034	7568.539161
1819.542878	7573.097902
1821.333068	7568.555245
1823.128153	7572.891608
1824.917587	7563.362937
1826.710157	7551.697902
1828.500592	7537.523776
1830.288893	7531.860839
1832.080329	7520.478322
1833.866119	7510.807692
1835.653289	7506.163636
1837.438327	7497.472727
1839.226499	7492.304895
1841.010785	7490.565734
1842.792942	7494.281818
1844.576477	7510.490210
1846.357884	7512.218881
1848.140670	7506.632867
1849.919575	7506.602797
1851.699860	7503.709790
1853.478018	7501.023776
1855.257555	7494.390210
1857.034967	7491.420979
1858.810255	7478.716084
1860.586922	7468.753846
1862.361465	7472.113287
1864.137387	7475.064336
1865.907688	7482.784615
1867.681117	7488.087413
1869.452426	7499.532867
1871.223365	7506.432867
1872.995680	7526.100699
1874.762382	7552.683916
1876.532210	7578.897902
1878.298174	7592.146853
1880.067262	7597.476224
1881.832488	7597.039161
1883.597345	7591.695804
1885.363580	7577.522378
1887.125956	7562.151049
1888.887965	7549.054545
1890.649606	7533.190210
1892.410881	7519.376224
1894.171788	7527.577622
1895.932329	7532.453147
1897.690760	7535.830769
1899.448826	7531.807692
1901.204783	7531.008392
1902.962117	7529.747552
1904.719086	7528.047552
1906.473949	7531.727273
1908.226706	7524.801399
1909.979100	7521.086713
1911.732869	7514.238462
1913.484535	7523.708392
1915.234099	7529.375524
1916.985038	7537.007692
1918.735615	7547.806294
1920.482352	7559.700000
1922.230466	7574.239860
1923.976480	7579.031469
1925.723870	7590.365035
1927.469161	7607.658741
1929.212355	7613.383916
1930.956924	7622.741958
1932.699398	7622.444755
1934.441511	7631.430070
1936.183264	7630.947203
1937.924658	7640.499301
1939.663957	7648.454895
1941.402898	7649.840559
1943.141481	7656.729720
1944.877971	7661.720979
1946.614104	7680.231818
1948.351611	7699.817483
1950.085296	7710.858392
1951.820356	7727.462937
1953.553328	7737.287762
1955.285942	7752.582517
1957.018201	7769.152797
1958.750103	7776.030070
1960.479919	7774.406993
1962.207650	7771.603497
1963.936756	7775.715385
1965.665507	7786.660140
1967.392174	7789.777622
1969.118487	7792.851748
1970.846173	7788.888112
1972.568323	7794.642657
1974.293574	7797.595105
1976.015019	7814.249650
1977.739563	7832.376923
1979.462028	7834.176923
1981.180689	7832.301399
1982.902449	7848.276923
1984.620407	7852.568531
1986.339738	7865.473427
1988.055270	7869.339860
1989.775622	7875.809790
1991.492176	7879.641958
1993.204933	7895.523776
1994.920787	7911.657343
1996.634567	7933.888811
1998.347998	7946.708392
2000.059358	7953.997203
2001.772090	7963.447552
2003.481032	7988.113986
2005.193067	7987.175524
2006.899592	8002.307692
2008.609210	8003.219580
2010.316760	8002.109091
2012.023963	8012.494406
2013.729100	8014.834965
2015.433890	8027.162238
2017.140052	8032.481818
2018.842432	8036.626573
2020.546184	8050.286713
2022.247872	8059.051748
2023.949216	8073.024476
2025.650214	8070.665734
2027.349151	8079.889510
2029.049460	8080.239860
2030.745994	8083.806993
2032.443899	8088.935664
2034.139745	8081.051748
2035.838677	8090.594406
2037.532123	8099.486014
2039.226940	8089.186713
2040.921415	8094.732168
2042.612121	8086.926573
2044.305911	8088.947552
2045.995934	8085.407692
2047.687328	8085.155245
2049.376669	8072.532168
2051.067380	8057.995105
2052.754328	8050.051748
2054.440937	8039.060839
2056.128916	8045.517483
2057.813135	8040.466434
2059.498724	8016.679021
2061.183974	8009.202797
2062.867176	7986.772028
2064.551747	7976.000699
2066.230856	7970.127273
2067.914750	7959.104196
2069.593184	7941.303497
2071.274694	7941.338462
2072.952454	7955.479720
2074.629876	7956.535664
2076.308668	7977.621678
2077.985418	7981.565035
2079.660126	7982.351049
2081.336203	7970.873427
2083.010240	7964.001399
2084.683941	7966.669930
2086.357307	7975.925874
2088.028635	7972.585315
2089.699628	7973.383217
2091.370287	7972.824476
2093.040611	7967.890210
2094.710602	7963.640559
2096.378557	7982.317483
2098.046179	7991.327972
2099.711766	8011.458042
2101.378723	8030.589510
2103.043645	8063.756643
2104.708236	8097.160839
2106.370795	8126.364336
2108.034722	8147.863636
2109.696619	8164.599301
2111.358184	8173.355944
2113.019418	8177.571329
2114.678624	8182.913986
2116.337499	8193.209790
2117.996045	8200.508392
2119.654261	8204.660140
2121.308753	8198.769930
2122.966310	8196.867832
2124.623538	8203.813986
2126.277044	8198.755245
2127.931918	8195.579021
2129.583074	8185.640559
2131.237291	8184.253846
2132.887792	8179.181119
2134.539659	8173.509790
2136.186118	8175.540559
2137.837332	8183.318881
2139.484832	8181.621678
2141.133699	8188.395804
2142.780548	8196.250350
2144.427070	8219.899301
2146.073267	8228.237063
2147.715756	8231.659441
2149.361303	8228.983217
2151.003143	8224.017483
2152.648040	8218.337762
2154.289232	8204.095804
2155.930100	8198.213287
2157.570644	8199.700699
2159.209176	8180.525874
2160.849074	8174.270629
2162.485272	8163.618881
2164.122837	8171.102098
2165.760078	8174.278322
2167.395310	8175.843357
2169.030221	8182.144755
2170.664810	8173.772028
2172.299077	8181.448951
2173.929651	8185.731469
2175.563277	8185.411189
2177.193211	8185.833566
2178.824510	8184.651748
2180.453804	8182.158042
2182.082779	8178.188112
2183.711434	8175.409790
2185.339770	8178.804196
2186.966104	8168.106993
2188.592119	8160.865734
2190.216133	8155.317483
2191.841511	8154.634965
2193.464890	8145.478322
2195.089632	8133.218881
2196.710694	8136.572727
2198.331439	8134.631469
2199.953549	8116.607692
2201.573661	8116.869231
2203.191776	8110.921678
2204.809576	8116.792308
2206.427061	8117.941958
2208.044230	8138.997203
2209.661084	8166.114685
2211.277623	8178.763636
2212.892168	8192.490210
2214.504721	8201.949650
2216.118638	8224.653846
2217.730564	8232.658042
2219.343853	8236.858042
2220.955152	8243.012587
2222.564461	8243.046853
2224.175134	8255.510490
2225.783818	8268.209091
2227.392190	8284.244056
2228.998574	8301.396503
2230.606322	8316.086014
2232.212083	8335.427972
2233.817533	8352.946154
2235.420998	8375.473427
2237.025826	8391.553846
2238.628670	8398.384615
2240.229532	8403.209790
2241.831755	8419.239860
2243.431997	8440.853147
2245.033601	8457.611189
2246.631553	8470.574126
2248.230867	8488.351049
2249.828201	8503.444755
2251.425226	8534.320280
2253.023614	8551.188811
2254.618353	8553.029371
2256.211115	8556.768531
2257.805240	8544.912587
2259.400726	8537.602098
2260.992568	8543.882517
2262.584103	8542.514685
2264.176999	8537.986014
2265.764586	8537.351049
2267.356870	8539.166434
2268.943846	8535.682517
2270.533851	8549.034266
2272.118551	8548.579021
2273.707944	8538.500699
2275.292036	8522.832867
2276.877489	8502.100699
2278.460972	8498.113287
2280.047482	8501.451049
2281.630358	8494.517483
2283.212930	8491.525524
2284.795199	8496.134266
2286.373839	8504.548601
2287.955502	8501.661538
2289.533537	8509.663986
2291.114595	8501.709790
2292.692026	8495.193357
2294.267494	8482.715385
2295.845984	8468.203147
2297.420850	8470.241259
2298.995415	8461.201748
2300.569680	8446.237762
2302.143644	8434.185664
2303.717308	8421.458741
2305.290671	8416.165035
2306.860416	8412.057343
2308.429862	8404.680420
2310.002326	8402.800000
2311.569516	8408.357343
2313.139724	8426.510490
2314.706317	8438.202098
2316.274270	8474.773427
2317.840267	8496.500699
2319.405967	8518.407692
2320.971370	8520.400699
2322.534818	8536.175524
2324.099626	8555.700699
2325.660826	8560.326573
2327.225040	8559.038462
2328.783992	8571.032168
2330.345959	8578.090909
2331.905975	8601.248252
2333.465695	8624.560839
2335.023466	8665.037762
2336.580942	8691.467832
2338.138124	8713.390210
2339.693358	8720.575524
2341.248299	8742.698601
2342.802946	8749.433566
2344.357299	8734.272727
2345.911358	8735.815385
2347.465123	8731.831469
2349.016945	8732.653147
2350.566823	8734.416084
2352.119709	8760.042657
2353.667353	8776.358042
2355.218004	8784.545455
2356.765064	8803.484615
2358.313483	8803.551049
2359.861609	8809.737063
2361.406147	8820.786713
2362.952043	8822.958042
2364.496001	8829.246154
2366.041316	8836.911888
2367.583046	8844.992308
2369.126133	8844.876923
2370.667285	8867.568531
2372.208147	8860.327273
2373.748719	8865.862937
2375.289003	8869.310490
2376.828998	8860.378322
2378.365415	8873.768531
2379.904833	8885.853147
2381.440674	8894.880420
2382.977871	8901.536364
2384.511493	8919.182517
2386.048116	8928.522378
2387.582807	8940.946853
2389.115569	8962.443357
2390.648044	8986.580420
2392.178591	9002.181119
2393.712136	9009.632168
2395.240470	9024.793706
2396.770161	9043.151049
2398.299566	9044.665035
2399.828685	9065.133566
2401.357520	9071.739860
2402.881149	9089.685315
2404.409415	9092.381818
2405.932477	9108.540559
2407.460173	9117.709790
2408.981030	9145.673427
2410.506520	9146.509091
2412.028449	9167.000699
2413.551734	9194.867832
2415.073098	9196.973427
2416.592542	9198.362937
2418.113341	9221.343357
2419.632221	9229.034266
2421.150819	9248.127972
2422.667500	9248.374825
2424.185535	9266.038462
2425.703289	9275.939860
2427.217492	9292.163636
2428.731414	9308.549650
2430.245056	9327.693007
2431.760053	9344.341259
2433.271501	9329.661538
2434.784304	9335.919580
2436.295193	9346.820280
2437.805804	9351.260140
2439.314503	9369.437063
2440.826188	9372.862937
2442.334330	9395.361538
2443.842194	9422.184615
2445.349780	9447.386014
2446.853825	9491.065035
2448.360856	9509.906294
2449.865978	9548.146154
2451.370823	9567.359441
2452.873760	9596.113287
2454.376422	9616.237762
2455.878807	9626.419580
2457.379287	9640.801399
2458.881120	9642.779021
2460.381049	9663.941259
2461.880702	9668.462937
2463.380079	9662.610490
2464.877554	9666.423077
2466.373127	9652.888112
2467.871680	9658.537762
2469.366705	9639.722378
2470.863082	9632.684615
2472.355933	9624.727273
2473.850137	9617.907692
2475.344067	9618.627273
2476.834473	9628.246154
2478.327857	9647.079720
2479.819343	9656.839860
2481.308932	9665.625175
2482.798249	9690.253147
2484.285671	9703.025874
2485.776068	9708.630070
2487.262946	9716.371329
2488.751176	9720.816084
2490.235890	9728.762238
2491.720333	9728.119580
2493.206128	9709.490909
2494.690030	9704.109790
2496.175284	9706.174126
2497.655403	9713.481119
2499.138496	9707.685315
2500.619698	9697.550350
2502.100631	9693.213986
2503.579675	9689.794406
2505.058450	9688.427273
2506.536957	9672.131469
2508.015196	9665.790210
2509.493166	9655.799301
2510.967632	9626.683916
2512.445066	9623.989510
2513.918997	9604.711888
2515.394278	9587.458042
2516.869293	9570.348252
2518.340806	9550.165035
2519.813669	9542.865035
2521.284650	9540.737762
2522.756981	9529.090210
2524.224199	9511.890210
2525.694382	9502.518182
2527.162685	9511.862937
2528.630723	9500.854545
2530.098496	9505.196503
2531.566004	9495.311189
2533.033247	9497.821678
2534.496998	9496.806993
2535.962099	9494.249650
2537.425323	9489.928671
2538.889897	9500.027273
2540.350981	9502.139860
2541.813415	9499.530769
2543.275586	9497.562238
2544.734271	9504.753846
2546.197528	9497.378322
2547.655688	9500.088112
2549.115197	9490.530769
2550.569613	9484.344755
2552.028598	9479.720280
2553.485712	9483.423776
2554.940955	9484.483217
2556.395937	9491.513986
2557.849049	9510.819580
2559.303510	9510.180420
2560.756102	9506.533566
2562.208434	9508.802098
2563.658898	9504.104196
2565.112318	9515.650350
2566.560656	9519.723776
2568.011950	9543.421678
2569.461377	9561.767133
2570.907332	9583.040559
2572.356242	9599.430070
2573.801682	9614.504895
2575.248470	9635.364336
2576.693394	9636.425874
2578.138060	9635.739860
2579.584075	9645.708392
2581.026622	9634.760140
2582.470517	9638.715385
2583.910947	9635.297902
2585.352724	9631.626573
2586.792642	9625.123077
2588.233907	9634.383217
2589.671711	9630.579021
2591.112464	9636.608392
2592.548154	9658.186014
2593.986794	9669.158042
2595.423576	9682.508392
2596.858503	9708.611189
2598.296377	9716.353846
2599.729194	9731.086014
2601.163358	9729.813287
2602.595668	9729.234965
2604.029324	9730.974825
2605.461127	9737.251748
2606.892676	9742.182517
2608.323973	9738.652448
2609.753417	9739.655944
2611.182609	9729.554545
2612.609951	9745.879720
2614.038638	9741.739860
2615.467074	9749.592308
2616.892062	9762.488112
2618.318397	9766.741958
2619.742883	9782.051049
2621.168715	9783.427972
2622.591103	9802.886014
2624.014837	9820.615385
2625.436724	9813.178322
2626.858362	9825.165734
2628.278154	9832.416084
2629.699292	9844.248951
2631.120180	9828.318182
2632.537630	9847.967133
2633.958019	9855.824476
2635.374971	9861.523776
2636.791674	9858.383217
2638.208130	9861.434266
2639.624336	9863.579021
2641.040295	9865.243357
2642.454413	9857.695804
2643.868284	9861.890210
2645.280315	9865.751748
2646.693691	9875.218182
2648.103637	9891.548951
2649.516518	9909.355944
2650.925971	9923.111189
2652.335178	9939.819580
2653.742549	9936.097203
2655.152855	9956.361538
2656.561324	9955.475524
2657.967958	9989.988811
2659.374347	9998.692308
2660.778902	10022.860839
2662.184801	10056.079021
2663.588867	10083.250350
2664.992688	10118.344056
2666.396266	10119.890909
2667.798011	10118.633566
2669.201100	10088.208392
2670.600771	10050.574825
2672.001786	10022.657343
2673.399385	9983.098601
2674.799914	9962.597902
2676.197028	9929.318881
2677.595485	9912.251049
2678.992114	9898.032867
2680.388501	9888.958042
2681.784647	9890.064336
2683.178966	9880.079021
2684.574628	9878.988112
2685.966880	9868.797203
2687.360475	9874.220280
2688.752247	9862.168531
2690.145360	9858.451748
2691.536650	9863.490210
2692.926117	9874.528671
2694.315344	9869.935664
2695.704332	9870.984615
2697.094662	9870.508392
2698.480007	9873.670629
2699.868276	9874.981818
2701.254725	9868.526573
2702.640935	9873.163636
2704.026907	9872.629371
2705.409479	9863.341958
2706.793394	9880.976923
2708.177071	9894.299301
2709.560510	9913.063636
2710.940553	9924.184615
2712.321938	9944.706294
2713.701507	9956.728671
2715.082418	9965.013986
2716.461513	9974.781818
2717.838795	9987.676224
2719.217418	10023.637762
2720.594228	10036.620280
2721.970802	10054.213986
2723.347140	10081.355245
2724.721666	10091.169231
2726.097533	10106.567832
2727.470013	10111.546154
2728.845409	10120.179021
2730.215845	10129.255944
2731.587622	10139.119580
2732.959164	10148.911189
2734.328898	10173.498601
2735.699973	10196.208392
2737.069239	10202.062937
2738.438273	10214.441958
2739.805499	10228.523776
2741.172493	10230.599301
2742.539254	10243.893007
2743.905782	10252.838462
2745.270505	10268.035664
2746.634997	10286.941259
2747.999256	10307.786014
2749.363283	10324.408392
2750.727079	10362.758042
2752.087501	10381.411888
2753.450834	10391.879021
2754.809224	10405.203497
2756.170524	10404.414685
2757.528453	10393.484615
2758.889291	10392.228671
2760.248330	10378.191608
2761.604000	10364.444056
2762.962578	10361.402098
2764.317789	10369.019580
2765.672772	10390.090210
2767.025957	10408.874126
2768.382049	10422.498601
2769.734777	10440.404196
2771.087276	10456.616084
2772.439547	10464.951049
2773.793157	10468.676923
2775.143405	10474.925175
2776.491860	10476.207692
2777.843219	10477.111888
2779.191219	10480.111189
2780.540557	10487.175524
2781.888104	10495.665035
2783.235423	10506.441958
2784.582516	10513.157343
2785.927818	10532.140559
2787.272894	10539.482517
2788.617743	10542.544755
2789.962367	10543.527972
2791.303639	10557.311189
2792.646249	10578.930070
2793.988633	10600.420280
2795.330793	10627.388811
2796.669603	10651.513287
2798.011312	10680.116783
2799.349674	10714.426573
2800.689373	10741.877622
2802.027286	10775.897902
2803.363415	10787.616783
2804.699320	10791.161538
2806.036563	10813.197902
2807.372022	10838.167133
2808.707258	10857.506294
2810.040711	10884.687413
2811.375502	10924.663636
2812.706951	10930.833566
2814.041296	10947.595804
2815.370743	10972.301399
2816.701527	11006.572028
2818.032089	11033.530769
2819.360872	11036.471329
2820.690991	11063.321678
2822.019332	11084.769930
2823.347452	11091.578322
2824.673794	11078.713986
2826.001473	11091.564336
2827.325818	11101.338462
2828.651500	11071.533566
2829.975406	11067.796503
2831.299093	11071.360839
2832.624115	11067.979021
2833.945807	11078.635664
2835.267281	11085.067832
2836.588536	11127.556643
2837.909572	11123.427273
2839.228836	11128.221678
2840.549435	11116.489510
2841.868262	11109.498601
2843.186871	11096.610490
2844.503709	11098.645455
2845.820330	11086.488112
2847.136734	11084.544056
2848.451368	11080.148951
2849.767338	11099.051049
2851.079987	11113.563636
2852.393972	11123.481119
2853.707739	11122.162937
2855.021291	11128.509790
2856.333075	11133.673427
2857.643093	11131.032867
2858.954446	11156.772028
2860.262484	11192.960140
2861.571857	11205.442657
2862.881014	11238.672028
2864.189956	11265.541958
2865.497134	11296.009091
2866.802550	11329.386014
2868.109300	11343.323776
2869.414287	11356.486713
2870.719061	11362.044056
2872.022073	11389.937063
2873.327967	11385.106294
2874.629005	11404.628671
2875.931378	11399.528671
2877.231991	11405.882517
2878.533938	11402.668531
2879.835672	11404.218182
2881.134101	11412.874126
2882.433865	11426.134266
2883.731870	11421.324476
2885.029664	11422.513986
2886.325702	11431.442657
2887.623073	11438.874825
2888.918688	11435.262238
2890.214092	11434.608392
2891.509285	11422.016783
2892.801181	11436.241958
2894.095953	11431.911189
2895.387428	11433.900000
2896.680236	11439.127972
2897.972834	11427.195105
2899.262138	11426.177622
2900.552774	11429.722378
2901.841659	11421.318182
2903.131877	11426.000000
2904.418802	11425.480420
2905.707061	11412.037762
2906.993569	11418.765035
2908.279870	11432.065734
2909.565962	11428.604895
2910.850306	11436.527273
2912.137521	11428.200699
2913.419910	11425.923776
2914.703631	11422.914685
2915.985606	11421.388112
2917.267373	11433.294406
2918.547396	11447.141958
2919.830288	11439.337063
2921.111435	11425.997902
2922.389300	11428.397203
2923.670034	11420.397902
2924.947487	11412.924476
2926.224734	11415.183217
2927.500240	11387.738462
2928.778613	11391.930070
2930.052171	11381.644056
2931.328597	11373.895105
2932.603282	11382.164336
2933.876227	11370.530769
2935.150502	11371.832867
2936.423038	11364.466434
2937.695370	11364.423776
2938.964428	11344.788811
2940.236352	11341.085315
2941.506538	11342.534266
2942.776521	11333.529371
2944.046300	11336.032168
2945.314342	11327.165734
2946.580649	11316.410490
2947.846753	11324.461538
2949.114187	11341.264336
2950.379887	11360.795804
2951.645384	11383.098601
2952.910679	11379.323077
2954.172709	11381.088112
2955.436070	11389.709091
2956.699228	11399.502098
2957.960655	11392.356643
2959.223411	11380.404196
2960.484436	11375.790210
2961.743729	11376.808392
2963.002823	11381.497902
2964.261716	11386.040559
2965.520409	11387.499301
2966.778902	11400.153147
2968.035666	11411.346853
2969.292230	11444.681119
2970.547067	11473.924476
2971.803232	11493.552448
2973.056143	11498.177622
2974.310383	11511.338462
2975.564424	11502.141958
2976.816739	11518.357343
2978.068856	11529.689510
2979.319247	11539.453846
2980.572494	11538.786713
2981.820964	11540.078322
2983.072289	11571.622378
2984.320364	11591.186014
2985.568243	11602.086014
2986.815924	11608.639161
2988.063409	11609.628671
2989.309171	11614.274126
2990.554738	11618.411888
2991.801632	11649.583217
2993.045282	11675.153147
2994.290260	11687.274825
2995.531994	11680.825874
2996.776580	11686.551049
2998.019447	11694.788811
2999.259073	11695.022378
3000.501549	11698.453846
3001.740786	11700.468531
3002.981350	11702.362238
3004.220197	11710.242657
3005.458850	11720.246853
3006.695787	11721.558042
3007.934051	11729.596503
3009.170601	11745.044755
3010.406956	11763.050350
3011.643118	11783.529371
3012.877567	11800.027972
3014.111822	11819.967832
3015.345884	11845.826573
3016.578234	11866.143357
3017.808872	11880.076923
3019.042356	11887.579720
3020.274128	11891.074126
3021.504190	11908.490909
3022.734060	11925.700699
3023.962220	11949.151748
3025.191706	11958.577622
3026.419484	11967.806294
3027.647070	11980.927273
3028.875982	11988.486713
3030.100152	12012.932168
3031.327165	12024.586014
3032.550954	12027.953846
3033.776070	12040.546853
3034.999479	12060.055245
3036.222698	12090.686014
3037.444212	12100.144755
3038.668567	12110.023776
3039.888187	12123.723776
3041.109133	12126.994406
3042.329890	12142.727273
3043.548943	12159.016084
3044.769322	12174.779720
3045.986484	12196.790909
3047.204971	12229.450350
3048.421756	12253.639161
3049.638354	12272.913287
3050.854763	12298.684615
3052.067960	12309.300000
3053.283994	12318.195105
3054.496816	12333.008392
3055.712475	12344.843357
3056.923411	12375.456643
3058.135672	12396.479720
3059.347747	12415.950350
3060.559635	12436.441259
3061.769825	12450.591608
3062.979829	12454.304895
3064.189647	12462.746853
3065.397770	12484.174825
3066.605706	12497.972727
3067.811948	12509.184615
3069.019513	12531.691608
3070.225384	12578.954545
3071.431071	12629.180420
3072.636572	12657.420979
3073.840380	12700.640559
3075.045512	12717.471329
3076.248952	12741.492308
3077.450699	12752.109091
3078.652263	12765.742657
3079.853642	12780.239860
3081.054839	12781.688112
3082.254344	12782.172727
3083.453667	12781.828671
3084.654313	12803.777622
3085.853269	12800.373427
3087.049031	12791.587413
3088.247622	12802.272028
3089.443019	12807.641958
3090.639739	12805.032168
3091.833267	12791.839860
3093.029623	12812.646853
3094.224293	12823.509790
3095.415772	12852.726573
3096.611582	12852.727972
3097.802699	12860.276923
3098.995138	12880.931469
3100.184390	12890.147552
3101.376468	12918.010490
3102.566861	12938.682517
3103.754069	12962.856643
3104.942600	12951.535664
3106.132452	12950.487413
3107.319121	12959.739860
3108.505610	12959.722378
3109.691919	12955.957343
3110.879550	12934.227972
3112.064000	12945.106294
3113.246769	12948.888811
3114.432361	12966.352448
3115.616274	13002.416783
3116.798508	13016.855245
3117.980563	13035.345455
3119.162441	13038.379021
3120.344140	13040.841259
3121.524161	13043.790909
3122.702506	13044.384615
3123.883672	13033.500699
3125.061662	13049.880420
3126.239475	13053.513986
3127.417111	13044.775524
3128.593072	13050.369930
3129.768856	13049.041958
3130.945962	13051.983217
3132.121393	13059.713986
3133.295151	13078.486713
3134.467237	13092.788112
3135.640643	13120.322378
3136.813874	13155.539860
3137.985432	13193.601399
3139.158311	13245.461538
3140.328024	13272.225874
3141.499056	13279.797203
3142.668419	13274.081818
3143.836112	13265.892308
3145.006620	13259.585315
3146.172469	13256.257343
3147.342628	13253.155245
3148.508129	13250.523077
3149.673457	13247.276923
3150.838611	13256.219580
3152.003591	13254.448951
3153.169892	13234.769930
3154.331539	13193.539161
3155.494506	13147.113986
3156.657301	13089.552448
3157.819923	13042.193007
3158.980880	12993.558741
3160.141664	12955.520979
3161.302276	12912.144755
3162.461225	12898.909091
3163.620001	12890.246154
3164.778606	12888.625874
3165.937039	12874.048951
3167.095300	12875.100699
3168.251899	12876.860140
3169.406837	12884.501399
3170.563094	12884.401399
3171.717690	12898.637063
3172.872116	12910.306993
3174.024882	12899.670629
3175.177478	12903.174126
3176.329903	12924.380420
3177.482159	12943.828671
3178.634244	12940.017483
3179.783184	12944.556643
3180.934930	12981.195105
3182.085018	13013.455944
3183.233450	13054.298601
3184.381713	13098.937762
3185.529806	13155.879021
3186.677731	13216.935664
3187.824001	13257.834266
3188.970102	13301.074126
3190.114548	13328.240559
3191.258827	13356.477622
3192.402938	13349.436364
3193.548367	13357.461538
3194.690656	13361.574126
3195.832779	13359.343357
3196.974734	13346.295804
3198.116523	13338.663636
3199.258144	13345.230070
3200.396629	13351.021678
3201.536432	13357.548951
3202.677553	13353.716783
3203.815539	13365.202797
3204.951876	13364.729371
3206.088047	13370.415385
3207.225536	13386.878322
3208.361375	13400.817483
3209.498532	13386.421678
3210.631076	13384.139161
3211.767902	13383.914685
3212.900116	13373.213986
3214.033647	13340.427972
3215.167014	13301.618182
3216.297253	13234.224476
3217.430290	13192.734266
3218.560201	13128.846853
3219.691428	13088.872727
3220.819531	13063.820979
3221.950430	13044.971329
3223.079685	13024.031469
3224.207297	13034.969231
3225.331787	13033.943357
3226.460551	13041.311888
3227.586194	13045.334965
3228.711675	13056.722378
3229.835514	13063.386713
3230.962147	13080.418881
3232.084183	13092.306993
3233.207535	13107.318881
3234.330725	13115.541259
3235.453753	13119.687413
3236.575141	13113.408392
3237.696368	13110.802098
3238.815956	13112.444755
3239.935383	13136.495105
3241.053172	13163.103497
3242.173754	13219.488112
3243.291221	13271.786014
3244.408528	13336.932168
3245.525675	13398.677622
3246.641186	13446.400000
3247.758012	13491.413986
3248.871727	13535.481119
3249.988232	13556.371329
3251.103103	13576.056643
3252.214865	13597.639161
3253.326468	13605.871329
3254.439385	13609.888112
3255.552144	13634.766434
3256.661796	13646.221678
3257.772762	13664.070629
3258.883570	13654.739860
3259.992747	13657.948252
3261.100292	13681.428671
3262.209151	13684.052448
3263.317853	13694.200000
3264.423452	13713.923077
3265.530365	13732.553846
3266.635649	13751.713287
3267.742248	13783.803497
3268.845746	13824.241259
3269.950558	13836.169231
3271.055213	13853.241958
3272.156769	13854.678322
3273.258170	13870.578322
3274.360884	13874.872727
3275.463441	13876.368531
3276.562902	13881.101399
3277.665147	13910.687413
3278.764296	13927.019580
3279.861821	13945.593007
3280.959190	13960.422378
3282.059342	13960.379720
3283.156400	13934.028671
3284.253303	13925.274825
3285.350051	13901.845455
3286.442241	13888.435664
3287.538679	13884.761538
3288.633495	13861.543357
3289.728157	13865.137063
3290.821197	13889.816783
3291.914083	13896.937063
3293.005348	13912.472028
3294.097926	13919.932168
3295.188883	13931.723776
3296.278221	13923.082517
3297.367406	13939.203497
3298.457904	13930.904196
3299.545317	13946.544755
3300.632578	13963.333566
3301.721151	13966.940559
3302.809571	13982.879720
3303.893444	13995.579720
3304.981559	14028.458741
3306.066593	14046.375524
3307.150010	14074.934266
3308.234740	14098.407692
3309.317855	14103.792308
3310.402281	14130.107692
3311.483629	14134.775524
3312.566289	14143.412587
3313.647335	14156.142657
3314.728230	14158.934965
3315.807511	14140.830769
3316.886643	14153.937762
3317.967085	14162.858741
3319.044454	14156.881818
3320.123133	14195.488112
3321.200202	14210.502098
3322.277120	14215.169930
3323.352427	14236.670629
3324.427585	14254.479021
3325.504054	14264.419580
3326.577453	14293.254545
3327.650703	14301.388811
3328.725263	14306.262937
3329.798215	14314.962937
3330.869558	14303.890909
3331.942213	14294.249650
3333.011800	14302.434266
3334.082698	14286.418182
3335.151989	14265.119580
3336.222591	14258.154545
3337.291586	14243.129371
3338.358975	14234.352448
3339.424759	14228.838462
3340.494769	14222.547552
3341.561716	14213.944056
3342.625601	14208.846853
3343.692254	14204.404196
3344.757302	14206.481119
3345.820747	14209.232867
3346.884046	14206.032867
3347.947198	14224.857343
3349.010204	14220.762937
3350.073064	14233.036364
3351.134322	14238.265035
3352.192523	14233.579720
3353.254945	14245.856643
3354.314310	14262.165734
3355.373530	14275.403497
3356.434060	14312.865035
3357.490080	14352.651748
3358.548865	14378.597902
3359.603142	14405.774825
3360.660182	14451.881119
3361.715625	14480.726573
3362.772376	14528.416084
3363.827529	14546.434965
3364.881086	14556.267832
3365.933045	14590.756643
3366.987766	14603.669930
3368.039438	14618.626573
3369.090967	14646.716783
3370.143804	14661.870629
3371.193594	14667.410490
3372.244693	14670.879720
3373.292746	14686.215385
3374.343559	14704.616084
3375.391326	14717.143357
3376.438951	14729.263636
3377.486433	14747.887413
3378.532323	14774.356643
3379.579521	14777.087413
3380.623677	14800.343357
3381.670591	14807.635664
3382.715913	14810.357343
3383.758194	14815.329371
3384.800335	14812.244755
3385.843783	14814.132867
3386.887091	14814.801399
3387.928808	14800.287413
3388.970384	14818.206294
3390.011820	14839.126573
3391.051666	14858.858042
3392.089924	14872.011189
3393.129491	14908.051049
3394.168916	14918.674126
3395.206754	14934.827273
3396.243005	14944.409790
3397.279117	14942.836364
3398.316536	14967.686713
3399.350922	14971.762937
3400.386615	14973.687413
3401.422169	15009.526573
3402.454692	15040.147552
3403.489968	15072.662937
3404.522213	15095.239161
3405.554320	15126.481119
3406.584843	15141.214685
3407.616673	15169.702797
3408.648365	15179.439161
3409.677030	15201.665035
3410.705556	15226.230769
3411.735390	15222.681818
3412.765085	15239.443357
3413.791755	15270.625175
3414.819732	15297.883916
3415.844684	15312.626573
3416.872386	15343.019580
3417.897065	15357.347552
3418.923050	15375.549650
3419.947455	15408.653147
3420.971724	15410.618182
3421.994414	15428.506993
3423.016968	15408.731469
3424.040828	15396.108392
3425.061668	15384.358741
3426.082373	15367.411688
3427.104383	15356.390584
3428.123375	15355.747353
3429.142232	15369.933916
3430.162394	15403.402198
3431.179540	15460.604121
