-118.077073	51.712363
-115.407473	62.823077
-112.740808	69.862388
-110.074895	73.556344
-107.411914	74.630994
-104.747504	73.812388
-102.086024	71.826573
-99.423114	70.230070
-96.765312	70.934965
-94.106079	69.702098
-91.447596	68.971329
-88.792036	69.365734
-86.135048	67.680420
-83.483157	69.690909
-80.829837	69.539161
-78.179437	68.054545
-75.527607	64.067133
-72.880868	65.330070
-70.232699	63.054545
-67.585274	65.809091
-64.940762	68.597203
-62.294822	68.356643
-59.653963	67.886014
-57.011675	67.869930
-54.372295	67.410490
-51.731487	71.254545
-49.091419	75.171329
-46.456423	78.334266
-43.819999	76.604196
-41.186477	80.060839
-38.551527	81.575524
-35.921642	85.370629
-33.288165	83.228671
-30.659750	85.611189
-28.032069	84.450350
-25.402959	77.723776
-22.778906	45.666434
-20.151264	-48.013287
-17.528675	-204.330769
-14.906818	-275.402098
-12.285691	465.346154
-9.665294	1587.375524
-7.047786	2515.346154
-4.428848	3154.342657
-1.812797	3499.897203
0.802526	3558.355245
3.417122	3319.890909
6.028835	2799.385315
8.641977	2009.806993
11.250085	1027.578322
13.861775	71.767133
16.468434	-474.791608
19.076521	-217.422378
21.683884	57.118881
24.286222	97.607692
26.892138	99.109790
29.493032	96.418881
32.095354	98.198601
34.692659	97.299301
37.293539	101.810490
39.889405	100.343357
42.486698	101.626573
45.083272	104.058042
47.674837	103.897902
50.267830	102.672028
52.857962	106.932168
55.449522	106.062238
58.038222	105.593706
60.628349	102.518182
63.213478	106.004196
65.800033	107.095804
68.385875	110.711189
70.968863	109.600699
73.553277	116.247552
76.130563	119.344056
78.711415	122.751748
81.289418	126.812587
83.866711	133.355944
86.445430	136.676923
89.019168	138.960140
91.594332	141.331469
94.166653	149.158042
96.738266	151.232168
99.307039	158.980420
101.877239	163.551748
104.444601	174.832867
107.013388	189.580420
109.579339	208.051748
112.142455	235.700699
114.709127	279.566434
117.266578	346.902797
119.829714	457.713986
122.387891	662.097203
124.949621	1023.009790
127.506395	1627.862937
130.064596	2628.930769
132.617844	4041.770629
135.170393	5892.018182
137.726493	8085.911189
140.277646	10451.216084
142.828100	12841.758042
145.377857	15068.025874
147.924796	16942.966434
150.471038	18396.654545
153.018706	19370.783217
155.565678	19929.787413
158.107715	20164.893706
160.649058	20242.430070
163.189708	20218.809091
165.731784	20182.834266
168.271048	20151.753846
170.807504	20125.833566
173.343268	20127.186014
175.880458	20101.662238
178.416957	20064.081119
180.950650	20041.997902
183.481540	20020.965035
186.011741	20018.029371
188.543367	20017.390909
191.072192	20013.234965
193.598218	20023.063636
196.123558	20013.686014
198.650324	20001.823077
201.174292	19981.850350
203.697576	19943.727273
206.220175	19864.969231
208.739981	19798.860140
211.259104	19748.502098
213.777544	19704.751748
216.297408	19685.098601
218.810271	19682.664336
221.326665	19662.322378
223.842377	19686.048951
226.353199	19709.044056
228.865447	19737.620979
231.374911	19759.697203
233.883697	19773.572727
236.391805	19768.648252
238.901336	19793.106294
241.405987	19816.469930
243.909962	19821.195105
246.415362	19853.923077
248.915886	19857.932867
251.419933	19842.660140
253.917010	19849.627972
256.417609	19839.396503
258.915437	19817.111888
261.412592	19775.242657
263.909074	19715.481818
266.400693	19660.728671
268.895832	19612.709091
271.388205	19545.298601
273.879907	19478.676224
276.368845	19420.323077
278.859208	19335.170629
281.346808	19278.062238
283.831649	19215.545455
286.320005	19153.866434
288.801421	19127.706993
291.286351	19103.460839
293.766436	19081.162238
296.250033	19070.753147
298.728787	19053.895804
301.208965	19045.208392
303.686390	19012.785315
306.163152	18965.955944
308.639251	18909.578322
311.112601	18888.923776
313.585289	18845.567133
316.057316	18816.765734
318.528682	18802.877622
320.997304	18801.130070
323.465266	18797.485315
325.934650	18784.461538
328.399212	18777.972028
330.867278	18787.682517
333.330524	18771.819580
335.793112	18765.944056
338.255044	18769.125175
340.716319	18792.600699
343.174860	18781.204895
345.634823	18772.171329
348.092053	18737.337063
350.548629	18706.938462
353.004551	18654.912587
355.457744	18578.609790
357.912358	18508.244056
360.362171	18456.363636
362.815480	18399.755245
365.263991	18337.724476
367.711851	18292.557343
370.161132	18254.749650
372.605620	18218.783916
375.051530	18205.628671
377.496791	18187.808392
379.939332	18196.909790
382.381226	18183.947552
384.822473	18172.328671
387.261004	18182.381119
389.700957	18173.118881
392.138196	18152.653147
394.572723	18112.860839
397.010738	18095.130070
399.443976	18070.605594
401.878636	18039.134266
404.308522	18029.565734
406.741894	18037.631469
409.170496	18039.005594
411.598457	18031.900699
414.027838	18040.943357
416.452454	18064.810490
418.878492	18055.927972
421.303889	18063.342657
423.728646	18082.773427
426.148645	18115.523077
428.570065	18137.272727
430.988788	18152.547552
433.408932	18190.075524
435.826381	18212.414685
438.245250	18217.942657
440.661426	18235.520979
443.072855	18242.590909
445.487760	18245.757343
447.899975	18244.755245
450.311556	18231.400699
452.722503	18212.050350
455.130764	18185.055944
457.538392	18150.965734
459.945389	18118.767832
462.351753	18091.923077
464.755435	18056.261538
467.158487	18042.251748
469.560909	18028.348252
471.962701	18031.933566
474.361816	18026.271329
476.762350	18020.192308
479.162255	17983.071329
481.557437	17946.260140
483.956086	17900.163636
486.350015	17842.401399
488.743318	17792.967832
491.135995	17747.348951
493.528047	17698.095105
495.921517	17662.075524
498.310276	17640.465734
500.696368	17650.679021
503.083879	17622.445455
505.470768	17608.058042
507.854993	17604.737762
510.240637	17602.556643
512.623618	17580.975524
515.003939	17573.986014
517.385679	17560.896503
519.764760	17561.662937
522.145260	17552.058042
524.523102	17542.863636
526.898289	17547.151748
529.272858	17546.306993
531.648846	17534.759441
534.022180	17519.650350
536.396932	17524.675524
538.766999	17508.258741
541.136450	17485.583916
543.507319	17465.680420
545.873508	17433.856643
548.241115	17415.953846
550.606076	17413.183217
552.970424	17399.084615
555.334160	17391.380420
557.699312	17387.951748
560.059793	17380.810490
562.421692	17356.049650
564.780950	17369.694406
567.137571	17370.859441
569.497636	17357.838462
571.851011	17318.160140
574.207830	17284.710490
576.562013	17250.709790
578.915589	17222.897902
581.268556	17176.993007
583.618892	17135.977622
585.970644	17090.210490
588.315720	17055.206993
590.666260	17034.261538
593.010126	17019.006993
595.359454	17007.423077
597.704134	16989.735664
600.046188	16958.690210
602.389660	16925.844755
604.730509	16896.453147
607.070756	16859.912587
609.408382	16815.248252
611.749443	16762.946154
614.085866	16736.388112
616.423706	16704.810490
618.758929	16680.467133
621.091536	16653.104196
623.425559	16636.013986
625.756969	16633.902098
628.087780	16607.920280
630.417993	16597.183217
632.747608	16605.861538
635.072601	16602.616783
637.403035	16570.357343
639.728847	16556.105594
642.052053	16554.429371
644.376674	16526.676923
646.698690	16519.706993
649.020113	16515.841259
651.338932	16496.329371
653.659167	16477.511888
655.978809	16450.573427
658.295850	16443.982517
660.612299	16451.955944
662.926150	16464.478322
665.241417	16447.753846
667.554087	16451.547552
669.868172	16453.655245
672.177657	16452.988112
674.488558	16447.971329
676.796866	16426.926573
679.104586	16387.796503
681.413721	16337.902797
683.718263	16307.917483
686.022218	16276.716783
688.325588	16250.336364
690.630372	16236.288112
692.930570	16187.187413
695.232182	16169.868531
697.533210	16152.215385
699.829655	16118.286713
702.127516	16090.067832
704.424793	16062.812587
706.721487	16055.372727
709.013605	16033.199301
711.309134	16036.467832
713.600090	16022.927972
715.892460	16027.432867
718.182254	16031.388112
720.471468	16029.086014
722.760103	16044.973427
725.046166	16034.899301
727.333642	16033.044056
729.618547	16034.762238
731.902875	16030.287413
734.184634	16033.866434
736.467807	16033.658042
738.750403	16038.798601
741.028444	16043.486014
743.307898	16062.025874
745.586777	16065.998601
747.865080	16064.855944
750.138834	16068.754545
752.414002	16067.088811
754.688596	16069.679021
756.960630	16035.065035
759.234078	16001.143357
761.504968	15995.543357
763.773302	15971.676224
766.043049	15945.758042
768.310242	15932.162937
770.576864	15920.885315
772.842916	15890.853147
775.106417	15859.132168
777.371331	15856.293007
779.635675	15851.366434
781.895490	15837.465734
784.156717	15831.584615
786.417377	15823.267133
788.675491	15829.402098
790.931060	15812.655245
793.190020	15802.191608
795.442481	15799.066434
797.700309	15794.088811
799.953617	15752.206294
802.204386	15703.930769
804.456567	15681.401399
806.706210	15642.955245
808.957264	15619.203497
811.203807	15603.707692
813.451762	15580.460839
815.697183	15576.876224
817.944015	15565.030070
820.190286	15552.897203
822.432053	15567.480420
824.677202	15562.219580
826.915879	15543.548252
829.157938	15511.342657
831.395499	15512.984615
833.634472	15482.631469
835.870918	15462.730769
838.108775	15433.704196
840.344107	15418.163636
842.576916	15428.623776
844.811136	15413.094406
847.042834	15427.813986
849.273976	15448.444755
851.504565	15455.567832
853.734598	15466.671329
855.964078	15478.146154
858.189076	15502.127972
860.417449	15487.082517
862.641343	15466.176224
864.866647	15447.033566
867.087476	15447.398601
869.311677	15456.309091
871.531405	15439.332168
873.752544	15446.690210
875.973132	15445.674126
878.191210	15452.334965
880.410698	15446.355944
882.625720	15430.673427
884.840195	15411.197203
887.054121	15370.486014
889.267501	15333.358042
891.480333	15311.652448
893.692619	15289.423077
895.902402	15238.784615
898.111640	15202.958741
900.320333	15201.683217
902.526527	15198.039860
904.734130	15179.207692
906.939235	15161.109091
909.143797	15137.602797
911.345864	15131.634965
913.549340	15130.716783
915.750322	15131.602098
917.950763	15126.029371
920.152611	15108.998601
922.348069	15078.476224
924.546886	15063.189510
926.741264	15066.593007
928.939000	15045.122378
931.132300	15018.634266
933.327009	15021.026573
935.519232	15024.598601
937.710917	15031.220979
939.902064	15059.583916
942.090728	15090.084615
944.278855	15116.890909
946.464502	15153.941958
948.653501	15178.243357
950.838077	15181.363636
953.022118	15201.011189
955.209509	15208.655944
957.388596	15215.176923
959.571034	15220.419580
961.752938	15222.235664
963.932368	15216.099301
966.109324	15234.013986
968.287689	15261.574825
970.467461	15270.658741
972.640884	15280.903497
974.817653	15291.583217
976.990015	15305.109790
979.163785	15311.292308
981.333151	15297.077622
983.505861	15283.399301
985.676106	15292.339860
987.845822	15276.520979
990.015009	15267.380420
992.179799	15272.234965
994.347930	15284.048252
996.511667	15294.407692
998.676810	15308.174126
1000.839495	15324.920979
1003.001653	15349.295804
1005.161355	15342.748951
1007.320533	15329.782517
1009.481117	15329.039860
1011.639246	15303.423776
1013.796851	15249.854545
1015.953933	15200.247552
1018.110492	15168.960839
1020.262671	15151.434266
1022.416256	15138.583217
1024.569320	15118.387413
1026.719936	15110.976224
1028.871957	15133.774825
1031.019605	15146.553846
1033.170585	15167.946154
1035.317194	15170.850350
1037.463285	15136.669930
1039.608856	15116.372028
1041.755833	15100.249650
1043.896521	15097.079021
1046.040539	15103.738462
1048.182116	15096.874126
1050.323177	15113.112587
1052.465642	15138.177622
1054.601828	15155.427273
1056.741340	15157.668531
1058.876496	15159.537063
1061.014977	15158.320979
1063.149104	15138.337063
1065.282718	15137.636364
1067.417737	15132.904895
1069.548406	15122.413986
1071.680480	15130.925175
1073.810125	15137.318182
1075.939258	15158.529371
1078.067879	15155.879720
1080.195989	15145.011189
1082.321673	15151.836364
1084.446847	15152.449650
1086.573425	15158.179720
1088.695666	15148.648951
1090.819310	15167.487413
1092.938621	15165.867832
1095.063160	15167.680420
1097.181454	15174.660839
1099.301153	15183.808392
1101.418433	15174.972028
1103.535207	15133.351748
1105.651474	15115.144755
1107.765326	15083.899301
1109.880581	15040.564336
1111.991513	15004.492308
1114.105758	14990.352448
1116.215682	14986.219580
1118.327010	14969.907692
1120.437833	14961.495804
1122.544340	14966.132867
1124.654157	14958.150350
1126.759659	14951.102098
1128.866564	14931.493007
1130.967254	14913.366434
1133.073156	14861.526573
1135.174749	14824.957343
1137.277745	14793.225175
1139.380240	14759.195105
1141.476528	14707.809091
1143.578024	14662.133566
1145.675216	14621.596503
1147.771911	14584.806993
1149.868107	14538.770629
1151.963806	14522.229371
1154.059006	14517.367832
1156.151811	14495.277622
1158.246017	14470.976923
1160.334032	14453.992308
1162.427245	14449.133566
1164.514270	14449.014685
1166.604594	14438.148951
1168.690631	14438.607692
1170.779965	14423.761538
1172.863118	14406.927273
1174.947673	14386.065035
1177.033630	14394.808392
1179.115305	14399.044056
1181.198382	14401.961538
1183.279073	14405.099301
1185.359272	14424.174126
1187.438980	14440.054545
1189.518197	14463.097902
1191.595032	14479.258741
1193.669486	14488.612587
1195.747231	14504.803497
1197.820707	14504.620979
1199.895583	14514.128671
1201.966192	14525.532867
1204.038203	14543.106993
1206.107837	14561.408392
1208.178872	14571.958042
1210.249419	14585.578322
1212.315705	14581.427972
1214.383392	14587.273427
1216.448707	14618.246154
1218.515422	14627.121678
1220.577881	14642.532867
1222.643625	14619.462937
1224.705116	14634.252448
1226.768006	14656.058042
1228.828529	14681.100699
1230.888568	14692.104196
1232.948125	14701.441259
1235.005316	14701.541958
1237.062026	14716.399301
1239.116373	14718.080420
1241.174000	14742.631469
1243.229265	14747.839860
1245.280289	14761.514685
1247.332713	14770.184615
1249.384657	14804.241259
1251.434243	14844.527972
1253.483350	14858.777622
1255.531979	14866.136364
1257.580129	14876.520280
1259.627800	14879.888112
1261.671242	14888.923776
1263.717958	14875.644056
1265.762321	14894.417483
1267.806208	14895.733566
1269.847743	14918.778322
1271.886929	14932.969231
1273.929388	14963.753846
1275.967624	15008.870629
1278.007259	15034.281119
1280.046419	15065.699301
1282.081360	15110.636364
1284.117700	15170.368531
1286.151696	15237.798601
1288.187090	15310.186713
1290.218270	15411.181119
1292.250848	15484.093706
1294.282955	15587.979021
1296.312721	15695.370629
1298.343885	15833.956643
1300.370841	15993.437063
1302.399195	16180.206294
1304.423345	16425.442657
1306.450759	16684.707692
1308.473971	16975.581818
1310.498581	17158.688811
1312.520857	17199.020280
1314.544530	19340.777622
1316.565870	23653.380420
1318.586742	29531.402098
1320.607147	36349.635664
1322.623359	43507.022378
1324.640968	50426.165035
1326.656249	56648.853846
1328.674789	63633.306993
1330.689140	67473.341259
1332.701165	67276.488811
1334.716447	63162.623776
1336.727544	56325.910490
1338.740038	49299.804895
1340.748349	41847.101399
1342.759916	34235.092308
1344.765443	27051.204895
1346.774226	20957.918182
1348.778831	16595.809091
1350.786690	14623.256643
1352.794087	15531.759441
1354.795453	15482.650350
1356.798216	15278.065734
1358.800518	15059.468531
1360.802361	14866.837762
1362.803744	14704.682517
1364.802814	14580.921678
1366.801425	14476.279720
1368.799578	14364.472028
1370.797272	14287.230769
1372.790804	14224.294406
1374.785732	14167.639860
1376.780202	14116.220979
1378.774217	14065.882517
1380.765923	14021.820979
1382.757175	13977.361538
1384.746121	13948.367133
1386.736462	13912.796503
1388.726348	13889.869930
1390.713931	13857.388112
1392.701059	13835.472028
1394.685886	13831.858042
1396.672108	13833.114685
1398.656030	13837.265734
1400.639499	13832.183217
1402.622515	13834.220979
1404.603234	13846.223077
1406.585347	13852.358042
1408.565164	13878.551748
1410.544529	13897.864336
1412.519756	13914.248951
1414.498222	13953.899301
1416.474393	13984.153846
1418.450116	14016.225175
1420.425389	14038.473427
1422.398371	14072.702797
1424.370905	14098.601399
1426.342992	14138.413287
1428.314630	14156.530070
1430.282140	14186.767133
1432.254724	14200.462937
1434.219503	14215.504895
1436.189353	14216.802098
1438.155080	14219.708392
1440.122199	14201.872727
1442.087035	14189.642657
1444.047751	14167.483916
1446.013536	14158.158042
1447.973365	14146.623776
1449.934587	14129.502098
1451.897202	14107.124476
1453.855702	14111.058042
1455.813759	14079.733566
1457.771375	14064.690210
1459.728549	14041.804895
1461.683447	14022.604196
1463.639737	13996.606993
1465.593753	13952.948951
1467.547329	13918.353147
1469.498632	13895.165035
1471.451327	13870.488112
1473.401751	13841.179720
1475.351735	13824.356643
1477.301281	13820.904895
1479.248558	13792.472028
1481.193568	13784.007692
1483.139969	13761.616084
1485.085933	13743.632168
1487.031460	13723.769231
1488.974722	13699.734266
1490.917547	13709.483916
1492.858109	13715.408392
1494.800062	13724.693007
1496.739753	13747.532168
1498.679010	13783.826573
1500.617831	13802.473427
1502.554393	13806.258042
1504.492346	13833.262238
1506.428040	13815.092308
1508.363301	13826.521678
1510.296306	13818.702098
1512.228878	13809.432168
1514.161018	13823.488112
1516.092726	13829.556643
1518.022180	13850.684615
1519.953025	13873.434965
1521.883438	13900.618881
1523.809779	13902.004895
1525.737511	13897.876923
1527.662992	13913.684615
1529.588044	13890.766434
1531.512667	13884.526573
1533.436861	13881.564336
1535.358807	13881.938462
1537.282144	13886.653147
1539.203235	13890.930769
1541.122081	13905.719580
1543.042316	13899.618182
1544.960309	13884.493007
1546.877875	13870.665035
1548.793199	13832.040559
1550.709913	13795.487413
1552.622572	13735.728671
1554.538435	13707.608392
1556.452058	13675.006294
1558.363444	13620.738462
1560.276218	13586.481119
1562.184943	13563.560839
1564.095058	13548.791608
1566.004748	13527.165035
1567.914016	13516.388112
1569.821050	13507.562238
1571.725851	13487.365035
1573.632041	13466.203497
1575.535999	13442.484615
1577.439537	13443.657343
1579.342653	13416.972028
1581.243540	13397.353846
1583.145816	13374.096503
1585.045864	13355.069930
1586.947299	13323.058042
1588.844701	13288.689510
1590.741684	13270.621678
1592.638249	13226.166434
1594.536202	13214.337063
1596.428320	13193.267133
1598.323631	13186.743357
1600.218525	13182.570629
1602.111197	13171.985315
1604.003453	13160.802098
1605.893488	13137.810490
1607.783109	13119.923077
1609.672313	13084.535664
1611.561103	13061.258741
1613.447675	13066.846853
1615.335635	13043.131469
1617.219578	13043.202797
1619.104909	13041.253147
1620.989825	13041.316084
1622.872528	13024.946154
1624.756618	13004.449650
1626.636697	13013.958042
1628.518162	12991.618182
1630.397417	12977.169231
1632.278058	12958.613986
1634.152895	12956.614685
1636.032714	12952.660839
1637.908527	12933.479021
1639.783930	12927.044755
1641.660719	12936.269930
1643.531712	12928.511888
1645.405886	12917.313287
1647.276062	12912.419580
1649.149418	12926.101399
1651.020571	12909.914685
1652.889522	12907.066434
1654.759859	12887.717483
1656.626202	12862.800000
1658.493931	12846.881818
1660.359461	12832.007692
1662.226377	12806.800699
1664.089304	12793.519580
1665.953616	12775.271329
1667.815732	12751.239161
1669.677444	12744.834965
1671.540540	12726.870629
1673.401442	12719.039860
1675.260150	12720.821678
1677.118455	12717.632168
1678.978145	12692.238462
1680.832068	12695.411189
1682.689163	12706.859441
1684.545856	12690.061538
1686.398573	12681.093706
1688.254460	12672.634266
1690.106374	12661.459441
1691.957887	12666.954545
1693.808999	12646.183916
1695.659711	12641.800000
1697.510022	12638.015385
1699.358148	12621.913986
1701.207659	12594.830070
1703.051421	12584.184615
1704.900132	12596.914685
1706.743098	12561.366434
1708.589229	12557.620280
1710.431399	12543.026573
1712.276733	12554.193706
1714.116327	12547.267133
1715.957305	12540.351748
1717.799666	12539.700699
1719.638071	12521.600000
1721.477859	12528.520280
1723.315472	12509.006294
1725.152689	12491.595804
1726.987733	12494.517483
1728.824160	12452.986713
1730.658415	12431.018881
1732.492275	12390.283916
1734.325742	12386.163636
1736.155262	12367.191608
1737.987941	12351.881818
1739.816676	12329.188112
1741.648568	12329.758741
1743.476519	12342.802098
1745.304077	12325.546154
1747.131243	12338.692308
1748.958018	12337.944755
1750.784402	12309.106993
1752.606848	12303.753147
1754.432450	12295.783217
1756.254117	12307.673427
1758.077166	12311.980420
1759.898053	12297.854545
1761.718552	12281.797203
1763.540432	12295.727972
1765.356612	12291.904196
1767.175944	12283.025175
1768.991349	12279.954545
1770.809904	12266.821678
1772.624534	12237.483217
1774.438778	12247.399301
1776.252634	12242.671329
1778.066104	12241.902797
1779.877421	12229.657343
1781.690119	12200.320979
1783.502430	12196.574126
1785.310824	12197.516084
1787.120598	12189.613986
1788.926458	12172.344056
1790.735463	12170.218881
1792.540555	12159.693007
1794.347028	12145.830769
1796.153117	12162.581818
1797.955296	12170.539860
1799.760618	12171.795804
1801.562032	12168.314685
1803.364826	12173.493007
1805.163714	12183.623776
1806.963983	12176.994406
1808.763870	12157.083217
1810.561616	12137.181818
1812.358980	12111.043357
1814.155965	12081.593007
1815.952569	12069.320280
1817.747034	12056.274126
1819.542878	12054.676923
1821.333068	12044.458042
1823.128153	12052.627273
1824.917587	12068.018182
1826.710157	12073.846154
1828.500592	12085.452448
1830.288893	12082.390210
1832.080329	12073.771329
1833.866119	12052.200699
1835.653289	12057.167133
1837.438327	12047.268531
1839.226499	12024.318881
1841.010785	12019.716783
1842.792942	12012.286014
1844.576477	12034.241259
1846.357884	12029.921678
1848.140670	12030.518182
1849.919575	12037.573427
1851.699860	12021.000699
1853.478018	12010.295804
1855.257555	11999.129371
1857.034967	11991.327273
1858.810255	11964.238462
1860.586922	11952.383916
1862.361465	11963.110490
1864.137387	11971.977622
1865.907688	11991.118881
1867.681117	12000.434965
1869.452426	12007.411888
1871.223365	12025.876224
1872.995680	12026.873427
1874.762382	12047.269231
1876.532210	12058.425175
1878.298174	12060.430070
1880.067262	12067.554545
1881.832488	12076.729371
1883.597345	12081.067133
1885.363580	12098.918182
1887.125956	12095.679021
1888.887965	12098.000699
1890.649606	12073.636364
1892.410881	12055.100699
1894.171788	12046.714685
1895.932329	12039.736364
1897.690760	12040.332168
1899.448826	12024.690909
1901.204783	12018.979720
1902.962117	12009.044056
1904.719086	12002.763636
1906.473949	12025.756643
1908.226706	12012.191608
1909.979100	12008.151748
1911.732869	12001.408392
1913.484535	12004.931469
1915.234099	12010.809790
1916.985038	12017.281119
1918.735615	12047.312587
1920.482352	12050.631469
1922.230466	12069.110490
1923.976480	12077.717483
1925.723870	12084.227273
1927.469161	12104.743357
1929.212355	12098.342657
1930.956924	12112.143357
1932.699398	12121.048951
1934.441511	12145.395105
1936.183264	12158.101399
1937.924658	12187.686713
1939.663957	12228.258741
1941.402898	12250.972028
1943.141481	12271.293706
1944.877971	12290.750350
1946.614104	12297.063636
1948.351611	12294.940559
1950.085296	12285.278322
1951.820356	12301.620979
1953.553328	12302.006294
1955.285942	12322.636364
1957.018201	12328.525175
1958.750103	12346.764336
1960.479919	12361.368531
1962.207650	12381.665035
1963.936756	12405.676224
1965.665507	12411.551748
1967.392174	12402.905594
1969.118487	12404.355245
1970.846173	12403.172028
1972.568323	12421.691608
1974.293574	12421.229371
1976.015019	12440.979021
1977.739563	12446.147552
1979.462028	12463.920280
1981.180689	12470.745455
1982.902449	12489.013986
1984.620407	12498.792308
1986.339738	12499.485315
1988.055270	12505.255245
1989.775622	12536.625175
1991.492176	12553.878322
1993.204933	12581.178322
1994.920787	12587.140559
1996.634567	12616.306993
1998.347998	12624.770629
2000.059358	12631.852448
2001.772090	12638.999301
2003.481032	12654.960839
2005.193067	12687.010490
2006.899592	12722.814685
2008.609210	12733.027972
2010.316760	12758.808392
2012.023963	12787.431469
2013.729100	12788.307692
2015.433890	12784.888811
2017.140052	12781.046154
2018.842432	12771.821678
2020.546184	12760.827273
2022.247872	12764.159441
2023.949216	12775.100699
2025.650214	12782.937063
2027.349151	12785.428671
2029.049460	12785.116783
2030.745994	12796.867133
2032.443899	12816.138462
2034.139745	12818.652448
2035.838677	12841.791608
2037.532123	12856.737063
2039.226940	12859.732168
2040.921415	12869.153846
2042.612121	12882.023077
2044.305911	12880.219580
2045.995934	12855.934965
2047.687328	12847.369930
2049.376669	12827.160140
2051.067380	12792.953846
2052.754328	12771.716084
2054.440937	12751.842657
2056.128916	12733.419580
2057.813135	12699.496503
2059.498724	12676.614685
2061.183974	12675.432867
2062.867176	12661.474126
2064.551747	12639.207692
2066.230856	12627.556643
2067.914750	12626.993007
2069.593184	12618.011189
2071.274694	12606.717483
2072.952454	12610.190909
2074.629876	12618.169231
2076.308668	12626.217483
2077.985418	12627.776224
2079.660126	12641.855944
2081.336203	12652.785315
2083.010240	12637.051748
2084.683941	12631.910490
2086.357307	12634.981818
2088.028635	12621.641259
2089.699628	12615.823776
2091.370287	12594.085315
2093.040611	12595.902797
2094.710602	12603.373427
2096.378557	12608.646853
2098.046179	12604.473427
2099.711766	12634.694406
2101.378723	12669.412587
2103.043645	12695.846154
2104.708236	12751.728671
2106.370795	12788.618182
2108.034722	12821.608392
2109.696619	12850.078322
2111.358184	12868.769231
2113.019418	12899.497902
2114.678624	12915.344755
2116.337499	12921.523776
2117.996045	12930.055944
2119.654261	12945.413287
2121.308753	12937.220979
2122.966310	12948.110490
2124.623538	12952.684615
2126.277044	12940.972727
2127.931918	12941.506294
2129.583074	12901.944755
2131.237291	12887.962238
2132.887792	12887.867133
2134.539659	12897.997203
2136.186118	12903.255944
2137.837332	12926.848252
2139.484832	12926.563636
2141.133699	12934.095804
2142.780548	12943.940559
2144.427070	12951.450350
2146.073267	12959.406294
2147.715756	12963.502098
2149.361303	12943.350350
2151.003143	12947.066434
2152.648040	12949.495105
2154.289232	12953.029371
2155.930100	12952.888811
2157.570644	12955.750350
2159.209176	12934.003497
2160.849074	12902.551049
2162.485272	12878.215385
2164.122837	12865.095105
2165.760078	12850.367133
2167.395310	12844.325175
2169.030221	12833.644056
2170.664810	12827.804895
2172.299077	12838.802098
2173.929651	12864.539161
2175.563277	12887.886014
2177.193211	12906.867832
2178.824510	12914.130769
2180.453804	12917.097902
2182.082779	12916.972727
2183.711434	12917.469231
2185.339770	12907.237762
2186.966104	12894.678322
2188.592119	12881.708392
2190.216133	12880.820280
2191.841511	12878.199301
2193.464890	12865.217483
2195.089632	12856.626573
2196.710694	12847.684615
2198.331439	12826.323077
2199.953549	12804.364336
2201.573661	12771.786014
2203.191776	12766.197902
2204.809576	12762.942657
2206.427061	12755.425175
2208.044230	12785.065035
2209.661084	12819.488112
2211.277623	12834.290210
2212.892168	12859.110490
2214.504721	12894.824476
2216.118638	12919.618881
2217.730564	12937.239860
2219.343853	12958.169231
2220.955152	12974.062238
2222.564461	12992.062238
2224.175134	13013.028671
2225.783818	13024.118182
2227.392190	13050.583217
2228.998574	13055.359441
2230.606322	13059.784615
2232.212083	13077.549650
2233.817533	13088.714685
2235.420998	13115.374126
2237.025826	13154.216783
2238.628670	13171.220280
2240.229532	13202.618182
2241.831755	13228.667133
2243.431997	13253.644056
2245.033601	13270.314685
2246.631553	13287.716084
2248.230867	13307.758741
2249.828201	13331.523077
2251.425226	13352.176224
2253.023614	13361.710490
2254.618353	13399.772727
2256.211115	13411.165734
2257.805240	13394.786014
2259.400726	13389.222378
2260.992568	13377.134266
2262.584103	13365.341259
2264.176999	13369.262238
2265.764586	13389.071329
2267.356870	13406.248951
2268.943846	13394.519580
2270.533851	13411.115385
2272.118551	13402.258042
2273.707944	13410.574126
2275.292036	13378.784615
2276.877489	13338.669930
2278.460972	13308.473427
2280.047482	13298.471329
2281.630358	13284.070629
2283.212930	13278.441608
2284.795199	13280.134965
2286.373839	13271.037413
2287.955502	13256.930070
2289.533537	13269.664685
2291.114595	13247.577622
2292.692026	13243.429021
2294.267494	13221.569231
2295.845984	13210.583566
2297.420850	13217.620280
2298.995415	13211.291259
2300.569680	13197.263636
2302.143644	13183.012238
2303.717308	13169.785315
2305.290671	13158.000699
2306.860416	13155.930070
2308.429862	13156.405594
2310.002326	13163.600000
2311.569516	13169.232867
2313.139724	13162.968531
2314.706317	13172.043357
2316.274270	13179.194406
2317.840267	13190.498601
2319.405967	13209.127273
2320.971370	13221.548951
2322.534818	13249.111189
2324.099626	13305.197203
2325.660826	13343.557343
2327.225040	13389.398601
2328.783992	13433.181818
2330.345959	13454.620280
2331.905975	13483.772028
2333.465695	13503.074825
2335.023466	13514.494406
2336.580942	13545.129371
2338.138124	13571.424476
2339.693358	13592.190210
2341.248299	13621.350350
2342.802946	13640.013287
2344.357299	13636.097902
2345.911358	13640.367133
2347.465123	13647.745455
2349.016945	13655.383217
2350.566823	13663.881119
2352.119709	13662.746853
2353.667353	13659.853846
2355.218004	13665.330769
2356.765064	13677.337762
2358.313483	13671.938462
2359.861609	13682.481818
2361.406147	13668.583916
2362.952043	13670.831469
2364.496001	13682.290909
2366.041316	13705.530769
2367.583046	13726.691608
2369.126133	13735.506993
2370.667285	13764.039860
2372.208147	13768.673427
2373.748719	13785.400699
2375.289003	13802.695804
2376.828998	13819.172028
2378.365415	13838.007692
2379.904833	13835.942657
2381.440674	13833.486713
2382.977871	13837.882517
2384.511493	13842.174825
2386.048116	13862.786014
2387.582807	13877.110490
2389.115569	13909.073427
2390.648044	13927.716084
2392.178591	13955.266434
2393.712136	13993.438462
2395.240470	14019.583217
2396.770161	14064.455944
2398.299566	14096.905594
2399.828685	14116.500000
2401.357520	14121.253147
2402.881149	14134.406993
2404.409415	14146.044755
2405.932477	14132.638462
2407.460173	14142.709091
2408.981030	14138.477622
2410.506520	14150.754545
2412.028449	14176.588112
2413.551734	14202.371329
2415.073098	14247.543357
2416.592542	14273.263636
2418.113341	14294.031469
2419.632221	14317.186014
2421.150819	14328.441259
2422.667500	14331.863636
2424.185535	14346.964336
2425.703289	14374.727972
2427.217492	14377.866434
2428.731414	14406.608392
2430.245056	14416.514685
2431.760053	14427.146853
2433.271501	14439.474126
2434.784304	14447.946853
2436.295193	14455.262937
2437.805804	14476.525175
2439.314503	14492.646154
2440.826188	14519.233566
2442.334330	14546.348252
2443.842194	14573.274126
2445.349780	14600.669930
2446.853825	14637.600000
2448.360856	14661.546154
2449.865978	14695.169231
2451.370823	14741.672028
2452.873760	14749.595105
2454.376422	14766.210490
2455.878807	14783.167832
2457.379287	14799.956643
2458.881120	14801.415385
2460.381049	14812.476224
2461.880702	14836.948951
2463.380079	14838.089510
2464.877554	14835.631469
2466.373127	14844.018881
2467.871680	14845.067133
2469.366705	14828.273427
2470.863082	14807.990909
2472.355933	14793.218881
2473.850137	14790.103497
2475.344067	14797.057343
2476.834473	14803.812587
2478.327857	14797.214685
2479.819343	14809.048951
2481.308932	14813.163636
2482.798249	14849.299301
2484.285671	14880.190210
2485.776068	14892.454545
2487.262946	14901.180420
2488.751176	14939.816084
2490.235890	14957.937063
2491.720333	14982.004895
2493.206128	14982.448951
2494.690030	14967.583916
2496.175284	14948.160140
2497.655403	14933.847552
2499.138496	14905.287413
2500.619698	14892.809790
2502.100631	14861.186713
2503.579675	14846.061538
2505.058450	14826.667133
2506.536957	14819.072028
2508.015196	14809.658741
2509.493166	14798.125175
2510.967632	14789.770629
2512.445066	14792.384615
2513.918997	14786.513986
2515.394278	14760.548951
2516.869293	14729.512587
2518.340806	14714.744056
2519.813669	14680.437063
2521.284650	14652.600699
2522.756981	14616.277622
2524.224199	14585.593706
2525.694382	14561.767832
2527.162685	14553.056643
2528.630723	14543.113986
2530.098496	14550.581818
2531.566004	14568.799301
2533.033247	14579.929371
2534.496998	14580.972028
2535.962099	14592.614685
2537.425323	14595.169930
2538.889897	14583.047552
2540.350981	14581.782517
2541.813415	14575.490210
2543.275586	14585.239161
2544.734271	14619.651748
2546.197528	14621.224476
2547.655688	14652.504196
2549.115197	14653.848951
2550.569613	14647.396503
2552.028598	14636.974126
2553.485712	14628.861538
2554.940955	14618.146853
2556.395937	14561.588811
2557.849049	14564.096503
2559.303510	14564.251748
2560.756102	14580.741958
2562.208434	14599.213986
2563.658898	14613.237063
2565.112318	14643.072727
2566.560656	14643.957343
2568.011950	14679.468531
2569.461377	14693.120979
2570.907332	14728.871329
2572.356242	14753.971329
2573.801682	14757.032168
2575.248470	14778.058042
2576.693394	14789.014685
2578.138060	14785.669231
2579.584075	14783.913986
2581.026622	14782.374126
2582.470517	14770.251748
2583.910947	14764.081818
2585.352724	14760.118881
2586.792642	14756.239161
2588.233907	14787.341958
2589.671711	14820.055245
2591.112464	14825.443357
2592.548154	14829.619580
2593.986794	14829.605594
2595.423576	14821.695105
2596.858503	14849.318182
2598.296377	14850.201399
2599.729194	14857.894406
2601.163358	14863.044755
2602.595668	14862.971329
2604.029324	14857.720280
2605.461127	14890.712587
2606.892676	14906.951049
2608.323973	14901.848951
2609.753417	14904.643357
2611.182609	14888.095105
2612.609951	14892.316783
2614.038638	14907.494406
2615.467074	14910.322378
2616.892062	14920.950350
2618.318397	14921.883217
2619.742883	14948.611189
2621.168715	14951.062937
2622.591103	14988.302098
2624.014837	15001.450350
2625.436724	15011.565734
2626.858362	15023.653846
2628.278154	15011.309790
2629.699292	15012.926573
2631.120180	14996.680420
2632.537630	15010.622378
2633.958019	15008.235664
2635.374971	15011.461538
2636.791674	15043.677622
2638.208130	15054.061538
2639.624336	15061.805594
2641.040295	15060.713287
2642.454413	15047.000000
2643.868284	15051.906294
2645.280315	15058.779720
2646.693691	15054.022378
2648.103637	15064.597203
2649.516518	15077.090210
2650.925971	15096.091608
2652.335178	15127.530070
2653.742549	15149.688811
2655.152855	15164.955944
2656.561324	15160.302797
2657.967958	15181.806993
2659.374347	15201.483217
2660.778902	15236.179720
2662.184801	15305.931469
2663.588867	15335.970629
2664.992688	15393.227972
2666.396266	15402.906294
2667.798011	15423.101399
2669.201100	15417.844755
2670.600771	15374.633566
2672.001786	15346.773427
2673.399385	15284.212587
2674.799914	15254.101399
2676.197028	15204.037063
2677.595485	15167.630070
2678.992114	15160.230769
2680.388501	15120.662238
2681.784647	15106.834266
2683.178966	15077.189510
2684.574628	15053.394406
2685.966880	15042.126573
2687.360475	15024.634266
2688.752247	15015.068531
2690.145360	14990.335664
2691.536650	15009.926573
2692.926117	15016.257343
2694.315344	15020.685315
2695.704332	15037.167133
2697.094662	15030.613287
2698.480007	15038.515385
2699.868276	15045.225874
2701.254725	15032.237762
2702.640935	15045.071329
2704.026907	15037.914685
2705.409479	15050.022378
2706.793394	15064.410490
2708.177071	15072.444755
2709.560510	15103.351748
2710.940553	15126.884615
2712.321938	15144.759441
2713.701507	15158.523077
2715.082418	15169.908392
2716.461513	15189.490210
2717.838795	15202.755245
2719.217418	15249.023077
2720.594228	15262.730769
2721.970802	15303.048252
2723.347140	15324.963636
2724.721666	15328.670629
2726.097533	15372.490909
2727.470013	15391.057343
2728.845409	15399.589510
2730.215845	15421.360140
2731.587622	15424.495804
2732.959164	15439.117483
2734.328898	15461.164336
2735.699973	15493.148951
2737.069239	15487.581119
2738.438273	15505.981119
2739.805499	15523.197902
2741.172493	15524.985315
2742.539254	15560.346853
2743.905782	15584.776224
2745.270505	15624.110490
2746.634997	15650.987413
2747.999256	15686.840559
2749.363283	15724.218881
2750.727079	15773.013986
2752.087501	15804.823776
2753.450834	15786.639860
2754.809224	15785.544755
2756.170524	15773.841259
2757.528453	15746.978322
2758.889291	15733.751049
2760.248330	15693.846154
2761.604000	15691.202098
2762.962578	15672.839161
2764.317789	15689.274126
2765.672772	15723.611888
2767.025957	15759.425874
2768.382049	15762.760140
2769.734777	15778.149650
2771.087276	15824.197902
2772.439547	15843.939161
2773.793157	15861.928671
2775.143405	15869.604895
2776.491860	15870.383916
2777.843219	15898.879720
2779.191219	15898.022378
2780.540557	15906.141259
2781.888104	15918.704196
2783.235423	15904.468531
2784.582516	15892.100699
2785.927818	15895.720979
2787.272894	15893.722378
2788.617743	15894.104196
2789.962367	15903.299301
2791.303639	15925.366434
2792.646249	15946.869231
2793.988633	15982.802797
2795.330793	16019.544755
2796.669603	16067.828671
2798.011312	16118.727273
2799.349674	16151.502797
2800.689373	16189.740559
2802.027286	16227.590210
2803.363415	16257.175524
2804.699320	16298.541259
2806.036563	16331.126573
2807.372022	16383.692308
2808.707258	16390.040559
2810.040711	16434.660839
2811.375502	16472.234965
2812.706951	16498.177622
2814.041296	16524.228671
2815.370743	16529.146853
2816.701527	16563.846154
2818.032089	16589.683217
2819.360872	16607.271329
2820.690991	16634.934965
2822.019332	16679.873427
2823.347452	16710.227972
2824.673794	16698.952448
2826.001473	16723.071329
2827.325818	16724.616084
2828.651500	16717.144056
2829.975406	16720.746154
2831.299093	16714.243357
2832.624115	16715.178322
2833.945807	16704.905594
2835.267281	16702.213986
2836.588536	16714.297203
2837.909572	16732.179720
2839.228836	16710.903497
2840.549435	16694.139161
2841.868262	16686.944056
2843.186871	16674.761538
2844.503709	16661.219580
2845.820330	16644.165734
2847.136734	16656.535664
2848.451368	16659.348951
2849.767338	16666.518182
2851.079987	16689.992308
2852.393972	16701.825175
2853.707739	16702.583217
2855.021291	16704.814685
2856.333075	16737.941259
2857.643093	16748.362238
2858.954446	16757.937063
2860.262484	16774.618881
2861.571857	16791.464336
2862.881014	16868.619580
2864.189956	16904.775524
2865.497134	16941.465734
2866.802550	16981.051049
2868.109300	16998.738462
2869.414287	17009.908392
2870.719061	17035.701399
2872.022073	17074.170629
2873.327967	17070.473427
2874.629005	17090.102098
2875.931378	17087.095804
2877.231991	17091.274126
2878.533938	17123.707692
2879.835672	17109.373427
2881.134101	17125.547552
2882.433865	17110.188811
2883.731870	17107.092308
2885.029664	17100.244056
2886.325702	17115.916084
2887.623073	17131.110490
2888.918688	17131.879021
2890.214092	17160.740559
2891.509285	17141.286713
2892.801181	17148.091608
2894.095953	17137.584615
2895.387428	17134.123077
2896.680236	17145.116783
2897.972834	17116.100699
2899.262138	17116.942657
2900.552774	17132.873427
2901.841659	17135.163636
2903.131877	17141.065734
2904.418802	17157.709790
2905.707061	17174.523077
2906.993569	17153.963636
2908.279870	17154.728671
2909.565962	17133.579720
2910.850306	17134.153147
2912.137521	17129.983217
2913.419910	17115.445455
2914.703631	17108.539860
2915.985606	17116.863636
2917.267373	17109.843357
2918.547396	17118.247552
2919.830288	17133.423776
2921.111435	17132.056643
2922.389300	17145.761538
2923.670034	17145.189510
2924.947487	17128.749650
2926.224734	17121.172727
2927.500240	17111.488112
2928.778613	17084.547552
2930.052171	17073.064336
2931.328597	17072.044056
2932.603282	17075.812587
2933.876227	17068.311189
2935.150502	17074.395804
2936.423038	17066.237762
2937.695370	17063.726573
2938.964428	17038.763636
2940.236352	17023.560839
2941.506538	17005.009091
2942.776521	16980.416084
2944.046300	16974.987413
2945.314342	16977.337762
2946.580649	16980.374126
2947.846753	16986.126573
2949.114187	16990.187413
2950.379887	16979.974126
2951.645384	16987.240559
2952.910679	16978.332168
2954.172709	16988.839860
2955.436070	16990.716783
2956.699228	16992.753846
2957.960655	16996.023077
2959.223411	17026.025175
2960.484436	17032.862238
2961.743729	17039.637762
2963.002823	17071.736364
2964.261716	17074.178322
2965.520409	17073.458741
2966.778902	17123.634266
2968.035666	17131.323077
2969.292230	17154.933566
2970.547067	17163.795105
2971.803232	17186.578322
2973.056143	17196.132867
2974.310383	17223.221678
2975.564424	17205.038462
2976.816739	17223.377622
2978.068856	17258.141259
2979.319247	17263.462937
2980.572494	17285.597902
2981.820964	17324.021678
2983.072289	17322.248252
2984.320364	17329.401399
2985.568243	17340.826573
2986.815924	17339.176224
2988.063409	17351.308392
2989.309171	17348.762238
2990.554738	17356.045455
2991.801632	17377.890210
2993.045282	17416.328671
2994.290260	17445.613287
2995.531994	17473.768531
2996.776580	17473.413986
2998.019447	17480.669930
2999.259073	17484.081119
3000.501549	17484.459441
3001.740786	17449.681818
3002.981350	17458.110490
3004.220197	17450.051049
3005.458850	17456.340559
3006.695787	17444.945455
3007.934051	17479.823077
3009.170601	17502.958042
3010.406956	17522.004895
3011.643118	17540.990210
3012.877567	17581.322378
3014.111822	17594.800000
3015.345884	17601.148951
3016.578234	17626.681818
3017.808872	17639.435664
3019.042356	17648.641259
3020.274128	17663.553846
3021.504190	17701.448252
3022.734060	17747.282517
3023.962220	17785.581119
3025.191706	17797.930769
3026.419484	17830.240559
3027.647070	17846.795105
3028.875982	17857.422378
3030.100152	17861.812587
3031.327165	17890.262238
3032.550954	17864.746853
3033.776070	17880.453846
3034.999479	17911.071329
3036.222698	17940.058741
3037.444212	17962.802098
3038.668567	17994.216783
3039.888187	18021.993706
3041.109133	18052.373427
3042.329890	18084.610490
3043.548943	18113.704196
3044.769322	18141.632867
3045.986484	18180.969930
3047.204971	18201.277622
3048.421756	18237.904196
3049.638354	18262.102797
3050.854763	18276.058741
3052.067960	18284.465734
3053.283994	18303.439860
3054.496816	18316.272727
3055.712475	18333.481119
3056.923411	18363.116084
3058.135672	18374.034266
3059.347747	18423.351049
3060.559635	18454.770629
3061.769825	18486.175524
3062.979829	18517.391958
3064.189647	18546.314685
3065.397770	18578.530420
3066.605706	18603.526573
3067.811948	18637.735315
3069.019513	18643.820280
3070.225384	18688.791958
3071.431071	18734.739161
3072.636572	18751.108042
3073.840380	18814.409790
3075.045512	18843.158392
3076.248952	18862.282517
3077.450699	18873.086364
3078.652263	18881.168531
3079.853642	18909.839860
3081.054839	18913.774825
3082.254344	18911.705594
3083.453667	18884.912587
3084.654313	18907.085315
3085.853269	18924.737063
3087.049031	18928.175524
3088.247622	18948.106294
3089.443019	18959.525874
3090.639739	18956.897902
3091.833267	18955.631469
3093.029623	18972.693706
3094.224293	18986.674825
3095.415772	18984.037762
3096.611582	18964.793706
3097.802699	18972.655245
3098.995138	18978.750350
3100.184390	19005.775524
3101.376468	19013.578322
3102.566861	19030.088811
3103.754069	19052.779720
3104.942600	19091.244755
3106.132452	19126.165035
3107.319121	19149.962238
3108.505610	19156.638462
3109.691919	19143.531469
3110.879550	19137.746154
3112.064000	19143.818881
3113.246769	19122.129371
3114.432361	19137.781818
3115.616274	19144.045455
3116.798508	19164.642657
3117.980563	19180.397203
3119.162441	19221.773427
3120.344140	19247.545455
3121.524161	19247.518182
3122.702506	19267.948252
3123.883672	19276.625175
3125.061662	19310.841958
3126.239475	19320.233566
3127.417111	19307.346154
3128.593072	19310.734266
3129.768856	19321.407692
3130.945962	19341.652448
3132.121393	19339.892308
3133.295151	19369.237063
3134.467237	19382.752448
3135.640643	19382.793007
3136.813874	19420.657343
3137.985432	19461.229371
3139.158311	19515.570629
3140.328024	19556.674825
3141.499056	19566.606294
3142.668419	19577.116084
3143.836112	19592.561538
3145.006620	19601.572727
3146.172469	19602.058741
3147.342628	19614.976923
3148.508129	19606.997902
3149.673457	19579.780420
3150.838611	19568.749650
3152.003591	19567.008392
3153.169892	19529.827972
3154.331539	19474.234965
3155.494506	19409.728671
3156.657301	19328.802797
3157.819923	19245.407692
3158.980880	19179.191608
3160.141664	19112.806993
3161.302276	19056.548252
3162.461225	19012.671329
3163.620001	18988.069930
3164.778606	18981.290210
3165.937039	18977.894406
3167.095300	18974.057343
3168.251899	18989.801399
3169.406837	19015.276224
3170.563094	19027.020979
3171.717690	19052.894406
3172.872116	19085.493706
3174.024882	19077.627273
3175.177478	19088.013986
3176.329903	19082.060140
3177.482159	19106.734965
3178.634244	19116.701399
3179.783184	19138.369231
3180.934930	19189.771329
3182.085018	19228.120280
3183.233450	19290.257343
3184.381713	19361.991608
3185.529806	19459.290210
3186.677731	19542.632867
3187.824001	19583.252448
3188.970102	19637.949650
3190.114548	19644.451748
3191.258827	19689.018881
3192.402938	19694.277622
3193.548367	19696.920979
3194.690656	19689.772727
3195.832779	19690.952448
3196.974734	19698.973427
3198.116523	19698.286014
3199.258144	19707.313287
3200.396629	19713.323776
3201.536432	19720.874825
3202.677553	19729.148252
3203.815539	19724.337063
3204.951876	19729.043357
3206.088047	19728.660839
3207.225536	19734.417483
3208.361375	19756.593706
3209.498532	19757.411888
3210.631076	19746.394406
3211.767902	19729.011888
3212.900116	19693.394406
3214.033647	19651.279021
3215.167014	19590.381818
3216.297253	19506.946853
3217.430290	19440.476923
3218.560201	19358.576923
3219.691428	19305.343357
3220.819531	19276.284615
3221.950430	19252.728671
3223.079685	19227.384615
3224.207297	19237.490210
3225.331787	19243.164336
3226.460551	19249.823077
3227.586194	19253.488112
3228.711675	19259.734266
3229.835514	19266.561538
3230.962147	19273.243357
3232.084183	19267.277622
3233.207535	19276.461538
3234.330725	19272.072727
3235.453753	19266.275524
3236.575141	19270.780420
3237.696368	19273.855944
3238.815956	19291.644056
3239.935383	19330.945455
3241.053172	19360.668531
3242.173754	19428.790210
3243.291221	19490.658042
3244.408528	19589.188811
3245.525675	19663.329371
3246.641186	19750.120280
3247.758012	19817.540559
3248.871727	19896.452448
3249.988232	19945.974126
3251.103103	19981.506294
3252.214865	20034.965734
3253.326468	20041.013986
3254.439385	20033.062937
3255.552144	20037.602098
3256.661796	20020.550350
3257.772762	20036.586014
3258.883570	20027.330070
3259.992747	20042.076923
3261.100292	20054.984615
3262.209151	20088.761538
3263.317853	20124.916783
3264.423452	20170.263636
3265.530365	20230.506294
3266.635649	20252.825175
3267.742248	20270.290210
3268.845746	20288.534965
3269.950558	20280.553147
3271.055213	20314.653147
3272.156769	20340.695804
3273.258170	20368.209091
3274.360884	20375.129371
3275.463441	20407.660140
3276.562902	20433.289510
3277.665147	20450.437762
3278.764296	20489.888112
3279.861821	20485.733566
3280.959190	20484.325175
3282.059342	20464.681818
3283.156400	20424.748951
3284.253303	20444.355245
3285.350051	20435.902098
3286.442241	20439.394406
3287.538679	20433.975524
3288.633495	20428.082517
3289.728157	20428.288811
3290.821197	20422.773427
3291.914083	20439.041958
3293.005348	20416.819580
3294.097926	20429.442657
3295.188883	20419.230769
3296.278221	20419.120280
3297.367406	20454.379720
3298.457904	20448.469231
3299.545317	20442.563636
3300.632578	20464.809091
3301.721151	20475.595804
3302.809571	20504.837762
3303.893444	20524.565035
3304.981559	20573.743357
3306.066593	20595.032168
3307.150010	20640.186014
3308.234740	20674.146853
3309.317855	20698.691608
3310.402281	20713.086713
3311.483629	20710.979720
3312.566289	20695.119580
3313.647335	20704.320979
3314.728230	20701.352448
3315.807511	20703.011189
3316.886643	20716.995804
3317.967085	20726.989510
3319.044454	20739.672028
3320.123133	20785.844755
3321.200202	20814.747552
3322.277120	20840.034266
3323.352427	20873.232867
3324.427585	20911.742657
3325.504054	20927.777622
3326.577453	20952.009790
3327.650703	20971.346853
3328.725263	20980.519580
3329.798215	20974.487413
3330.869558	20956.938462
3331.942213	20970.043357
3333.011800	20973.037063
3334.082698	20942.175524
3335.151989	20891.737762
3336.222591	20881.065035
3337.291586	20857.348951
3338.358975	20858.328671
3339.424759	20855.374126
3340.494769	20835.949650
3341.561716	20829.095804
3342.625601	20798.806993
3343.692254	20818.513287
3344.757302	20826.511189
3345.820747	20824.738462
3346.884046	20808.379021
3347.947198	20815.655245
3349.010204	20832.937063
3350.073064	20833.529371
3351.134322	20841.425874
3352.192523	20815.150350
3353.254945	20821.527273
3354.314310	20834.507692
3355.373530	20836.744056
3356.434060	20885.493706
3357.490080	20920.167832
3358.548865	20964.534965
3359.603142	21037.403497
3360.660182	21108.286713
3361.715625	21162.657343
3362.772376	21221.040559
3363.827529	21242.083916
3364.881086	21266.616084
3365.933045	21323.994406
3366.987766	21341.798601
3368.039438	21354.865035
3369.090967	21386.819580
3370.143804	21407.122378
3371.193594	21428.468531
3372.244693	21455.080420
3373.292746	21482.472028
3374.343559	21504.509790
3375.391326	21529.883217
3376.438951	21558.430769
3377.486433	21584.894406
3378.532323	21605.566434
3379.579521	21599.179021
3380.623677	21615.248252
3381.670591	21647.927972
3382.715913	21645.190210
3383.758194	21650.103497
3384.800335	21646.383217
3385.843783	21673.362937
3386.887091	21660.760140
3387.928808	21677.583916
3388.970384	21709.513986
3390.011820	21732.679720
3391.051666	21764.509790
3392.089924	21789.612587
3393.129491	21831.942657
3394.168916	21870.056643
3395.206754	21866.191608
3396.243005	21876.622378
3397.279117	21876.938462
3398.316536	21898.672727
3399.350922	21886.212587
3400.386615	21892.781818
3401.422169	21921.853147
3402.454692	21965.282517
3403.489968	21994.199301
3404.522213	22005.548951
3405.554320	22052.530769
3406.584843	22101.709790
3407.616673	22126.334266
3408.648365	22161.087413
3409.677030	22200.314685
3410.705556	22227.981119
3411.735390	22233.504196
3412.765085	22263.630070
3413.791755	22302.263636
3414.819732	22347.583916
3415.844684	22347.865035
3416.872386	22394.476923
3417.897065	22436.175524
3418.923050	22473.725874
3419.947455	22495.502098
3420.971724	22511.741259
3421.994414	22528.141958
3423.016968	22482.525874
3424.040828	22457.462238
3425.061668	22440.818182
3426.082373	22419.843457
3427.104383	22412.157842
3428.123375	22424.612388
3429.142232	22464.058142
3430.162394	22537.346154
3431.179540	22651.327473
