-118.077073	113.479670
-115.407473	113.060440
-112.740808	112.551049
-110.074895	111.950450
-107.411914	111.257592
-104.747504	110.471429
-102.086024	109.590909
-99.423114	105.746853
-96.765312	107.733566
-94.106079	108.494406
-91.447596	107.197203
-88.792036	108.217483
-86.135048	108.550350
-83.483157	112.359441
-80.829837	115.383217
-78.179437	116.452448
-75.527607	116.212587
-72.880868	114.906294
-70.232699	111.949650
-67.585274	109.556643
-64.940762	111.498601
-62.294822	115.346853
-59.653963	115.891608
-57.011675	117.568531
-54.372295	118.086014
-51.731487	123.930769
-49.091419	126.083217
-46.456423	127.880420
-43.819999	129.043357
-41.186477	128.343357
-38.551527	128.195804
-35.921642	130.323077
-33.288165	132.237762
-30.659750	135.563636
-28.032069	131.193007
-25.402959	120.716084
-22.778906	74.610490
-20.151264	-69.581818
-17.528675	-333.597203
-14.906818	-463.372028
-12.285691	639.978322
-9.665294	2463.160839
-7.047786	4003.859441
-4.428848	5085.232168
-1.812797	5687.018881
0.802526	5810.753846
3.417122	5459.360140
6.028835	4639.688112
8.641977	3379.741259
11.250085	1791.664336
13.861775	209.911189
16.468434	-733.206993
19.076521	-405.297203
21.683884	75.299301
24.286222	156.266434
26.892138	161.233566
29.493032	159.022378
32.095354	157.973427
34.692659	160.955944
37.293539	161.191608
39.889405	161.657343
42.486698	162.083217
45.083272	160.165734
47.674837	162.005594
50.267830	166.460839
52.857962	167.168531
55.449522	168.129371
58.038222	170.700000
60.628349	175.286014
63.213478	180.680420
65.800033	186.346853
68.385875	189.809091
70.968863	195.515385
73.553277	196.099301
76.130563	198.088811
78.711415	203.592308
81.289418	207.459441
83.866711	210.704196
86.445430	215.496503
89.019168	220.849650
91.594332	228.320979
94.166653	235.163636
96.738266	243.579021
99.307039	256.930070
101.877239	273.533566
104.444601	291.995804
107.013388	315.348252
109.579339	348.711888
112.142455	392.648252
114.709127	458.813986
117.266578	563.836364
119.829714	754.601399
122.387891	1078.676224
124.949621	1692.731469
127.506395	2744.205594
130.064596	4458.559441
132.617844	6872.900699
135.170393	10030.588811
137.726493	13766.561538
140.277646	17825.481119
142.828100	21917.802098
145.377857	25722.272727
147.924796	28925.709091
150.471038	31403.152448
153.018706	33032.291608
155.565678	33983.814685
158.107715	34380.779720
160.649058	34489.159441
163.189708	34432.358042
165.731784	34359.911189
168.271048	34315.588112
170.807504	34301.065734
173.343268	34310.208392
175.880458	34306.951748
178.416957	34281.922378
180.950650	34275.581818
183.481540	34219.920280
186.011741	34207.225874
188.543367	34182.106294
191.072192	34158.061538
193.598218	34135.732168
196.123558	34104.502098
198.650324	34092.611888
201.174292	34047.505594
203.697576	33965.717483
206.220175	33874.467832
208.739981	33786.571329
211.259104	33720.476224
213.777544	33625.520979
216.297408	33590.409091
218.810271	33574.030070
221.326665	33531.857343
223.842377	33557.042657
226.353199	33597.476923
228.865447	33655.606294
231.374911	33657.952448
233.883697	33650.428671
236.391805	33658.762238
238.901336	33663.624476
241.405987	33687.220979
243.909962	33679.162238
246.415362	33726.751049
248.915886	33736.788811
251.419933	33720.963636
253.917010	33723.547552
256.417609	33697.332867
258.915437	33653.158042
261.412592	33578.632168
263.909074	33494.412587
266.400693	33415.273427
268.895832	33304.830769
271.388205	33188.822378
273.879907	33083.072727
276.368845	32977.094406
278.859208	32832.751049
281.346808	32742.656643
283.831649	32615.635664
286.320005	32544.968531
288.801421	32478.232867
291.286351	32478.136364
293.766436	32476.481818
296.250033	32482.727972
298.728787	32448.160839
301.208965	32387.869231
303.686390	32292.794406
306.163152	32182.479720
308.639251	32055.086014
311.112601	32013.819580
313.585289	31924.144056
316.057316	31897.967133
318.528682	31886.338462
320.997304	31903.473427
323.465266	31928.050350
325.934650	31923.176224
328.399212	31894.986713
330.867278	31888.662238
333.330524	31851.076923
335.793112	31824.297203
338.255044	31801.903497
340.716319	31825.133566
343.174860	31786.732867
345.634823	31762.227972
348.092053	31726.022378
350.548629	31654.569231
353.004551	31579.813287
355.457744	31468.020979
357.912358	31390.395105
360.362171	31330.493706
362.815480	31234.939860
365.263991	31129.201399
367.711851	31056.643357
370.161132	30985.306294
372.605620	30904.813986
375.051530	30877.460839
377.496791	30847.558741
379.939332	30844.250350
382.381226	30822.567832
384.822473	30800.404895
387.261004	30827.194406
389.700957	30803.946853
392.138196	30760.845455
394.572723	30705.693007
397.010738	30672.940559
399.443976	30619.174825
401.878636	30562.290210
404.308522	30539.976224
406.741894	30511.167133
409.170496	30479.184615
411.598457	30454.479021
414.027838	30442.939161
416.452454	30476.513287
418.878492	30493.712587
421.303889	30532.088112
423.728646	30580.825175
426.148645	30637.295105
428.570065	30670.288811
430.988788	30709.320979
433.408932	30764.600000
435.826381	30770.873427
438.245250	30753.699301
440.661426	30757.241958
443.072855	30747.285315
445.487760	30747.474126
447.899975	30743.686014
450.311556	30721.386713
452.722503	30691.544755
455.130764	30635.265734
457.538392	30587.382517
459.945389	30548.855245
462.351753	30514.611888
464.755435	30455.842657
467.158487	30431.008392
469.560909	30407.453147
471.962701	30409.366434
474.361816	30421.101399
476.762350	30416.588811
479.162255	30381.667832
481.557437	30334.428671
483.956086	30237.411888
486.350015	30151.644755
488.743318	30059.351049
491.135995	29981.589510
493.528047	29890.801399
495.921517	29802.081818
498.310276	29744.325874
500.696368	29714.919580
503.083879	29676.568531
505.470768	29657.804895
507.854993	29618.593706
510.240637	29610.141259
512.623618	29580.022378
515.003939	29591.399301
517.385679	29589.144056
519.764760	29600.908392
522.145260	29590.943357
524.523102	29577.341958
526.898289	29553.459441
529.272858	29520.907692
531.648846	29507.776923
534.022180	29473.860140
536.396932	29432.358741
538.766999	29400.389510
541.136450	29356.174126
543.507319	29340.949650
545.873508	29302.436364
548.241115	29282.690210
550.606076	29263.803497
552.970424	29219.416084
555.334160	29188.541259
557.699312	29208.188112
560.059793	29213.272727
562.421692	29198.063636
564.780950	29206.509790
567.137571	29181.776224
569.497636	29153.888112
571.851011	29096.755944
574.207830	29031.330070
576.562013	28956.718182
578.915589	28858.088112
581.268556	28752.706993
583.618892	28708.600000
585.970644	28645.655245
588.315720	28597.564336
590.666260	28570.327273
593.010126	28534.353147
595.359454	28474.301399
597.704134	28432.842657
600.046188	28366.251748
602.389660	28335.953147
604.730509	28281.624476
607.070756	28215.073427
609.408382	28135.173427
611.749443	28081.389510
614.085866	28015.428671
616.423706	27976.986014
618.758929	27910.629371
621.091536	27868.086014
623.425559	27776.253147
625.756969	27748.791608
628.087780	27701.698601
630.417993	27714.032867
632.747608	27686.424476
635.072601	27662.295804
637.403035	27621.806294
639.728847	27626.455944
642.052053	27618.478322
644.376674	27610.532867
646.698690	27594.212587
649.020113	27587.530769
651.338932	27529.139161
653.659167	27496.229371
655.978809	27479.760839
658.295850	27468.548951
660.612299	27432.311189
662.926150	27443.716084
665.241417	27438.847552
667.554087	27424.272727
669.868172	27395.073427
672.177657	27387.662937
674.488558	27361.246154
676.796866	27319.718881
679.104586	27284.363636
681.413721	27222.830070
683.718263	27204.211888
686.022218	27138.721678
688.325588	27075.836364
690.630372	27032.557343
692.930570	26962.136364
695.232182	26906.706993
697.533210	26859.085315
699.829655	26787.263636
702.127516	26735.988112
704.424793	26698.637762
706.721487	26690.523776
709.013605	26660.448951
711.309134	26655.442657
713.600090	26627.246154
715.892460	26631.055245
718.182254	26649.428671
720.471468	26680.983916
722.760103	26727.707692
725.046166	26735.450350
727.333642	26720.220280
729.618547	26727.620979
731.902875	26720.978322
734.184634	26715.983916
736.467807	26696.718881
738.750403	26673.720979
741.028444	26654.843357
743.307898	26676.873427
745.586777	26655.066434
747.865080	26648.325175
750.138834	26652.981818
752.414002	26629.864336
754.688596	26613.353846
756.960630	26581.426573
759.234078	26543.674825
761.504968	26525.830070
763.773302	26473.088811
766.043049	26433.346154
768.310242	26378.739860
770.576864	26350.679021
772.842916	26283.769930
775.106417	26245.700000
777.371331	26222.637762
779.635675	26200.633566
781.895490	26189.272028
784.156717	26176.993007
786.417377	26155.688112
788.675491	26149.939860
790.931060	26141.488811
793.190020	26127.298601
795.442481	26100.921678
797.700309	26081.175524
799.953617	26034.687413
802.204386	25967.269231
804.456567	25910.204895
806.706210	25864.309091
808.957264	25816.680420
811.203807	25776.506993
813.451762	25741.251049
815.697183	25723.394406
817.944015	25740.769930
820.190286	25714.535664
822.432053	25728.151049
824.677202	25727.760140
826.915879	25720.574126
829.157938	25647.281818
831.395499	25614.802797
833.634472	25586.655944
835.870918	25549.847552
838.108775	25521.105594
840.344107	25499.848252
842.576916	25491.817483
844.811136	25488.685315
847.042834	25497.539860
849.273976	25525.434965
851.504565	25537.653846
853.734598	25533.885315
855.964078	25522.711189
858.189076	25539.008392
860.417449	25536.155245
862.641343	25509.291608
864.866647	25506.094406
867.087476	25516.530070
869.311677	25528.428671
871.531405	25522.825175
873.752544	25530.528671
875.973132	25522.042657
878.191210	25520.511189
880.410698	25503.880420
882.625720	25459.260839
884.840195	25417.193706
887.054121	25351.070629
889.267501	25265.130769
891.480333	25215.817483
893.692619	25163.888811
895.902402	25098.609091
898.111640	25037.132168
900.320333	25003.644056
902.526527	24982.005594
904.734130	24959.835664
906.939235	24917.725175
909.143797	24878.986014
911.345864	24870.234965
913.549340	24857.529371
915.750322	24856.969231
917.950763	24849.337063
920.152611	24812.838462
922.348069	24786.113287
924.546886	24764.321678
926.741264	24746.985315
928.939000	24704.340559
931.132300	24658.867133
933.327009	24645.518881
935.519232	24640.416783
937.710917	24647.369231
939.902064	24685.348252
942.090728	24739.002797
944.278855	24761.019580
946.464502	24818.651748
948.653501	24883.660140
950.838077	24919.458042
953.022118	24936.103497
955.209509	24944.393007
957.388596	24937.850350
959.571034	24968.667832
961.752938	24971.551049
963.932368	24984.731469
966.109324	24996.450350
968.287689	25022.969231
970.467461	25022.931469
972.640884	25049.415385
974.817653	25059.191608
976.990015	25043.834266
979.163785	25016.916084
981.333151	24986.565734
983.505861	24963.477622
985.676106	24954.285315
987.845822	24937.009790
990.015009	24944.351049
992.179799	24922.860140
994.347930	24958.932867
996.511667	24964.429371
998.676810	24979.353147
1000.839495	24991.934266
1003.001653	24996.016783
1005.161355	24950.781119
1007.320533	24887.291608
1009.481117	24830.334266
1011.639246	24749.299301
1013.796851	24674.860839
1015.953933	24627.079720
1018.110492	24576.151049
1020.262671	24575.958042
1022.416256	24558.744056
1024.569320	24552.894406
1026.719936	24524.527273
1028.871957	24528.944755
1031.019605	24489.633566
1033.170585	24469.158042
1035.317194	24439.978322
1037.463285	24415.795105
1039.608856	24416.321678
1041.755833	24394.804196
1043.896521	24390.899301
1046.040539	24388.288811
1048.182116	24388.600000
1050.323177	24388.464336
1052.465642	24375.011189
1054.601828	24393.803497
1056.741340	24378.869930
1058.876496	24387.086014
1061.014977	24407.468531
1063.149104	24421.406993
1065.282718	24444.864336
1067.417737	24437.460839
1069.548406	24456.464336
1071.680480	24464.786713
1073.810125	24489.268531
1075.939258	24503.578322
1078.067879	24500.242657
1080.195989	24509.464336
1082.321673	24509.955245
1084.446847	24509.267832
1086.573425	24528.767832
1088.695666	24515.645455
1090.819310	24534.785315
1092.938621	24523.913986
1095.063160	24508.152448
1097.181454	24504.625175
1099.301153	24505.341958
1101.418433	24481.480420
1103.535207	24464.535664
1105.651474	24476.665035
1107.765326	24472.294406
1109.880581	24439.620979
1111.991513	24428.859441
1114.105758	24398.161538
1116.215682	24390.418182
1118.327010	24367.080420
1120.437833	24334.923776
1122.544340	24301.378322
1124.654157	24241.616783
1126.759659	24220.254545
1128.866564	24192.081818
1130.967254	24146.155245
1133.073156	24084.921678
1135.174749	24019.565734
1137.277745	23957.408392
1139.380240	23862.913986
1141.476528	23792.940559
1143.578024	23724.660839
1145.675216	23630.709091
1147.771911	23560.568531
1149.868107	23502.524476
1151.963806	23493.910490
1154.059006	23469.200000
1156.151811	23414.048951
1158.246017	23398.854545
1160.334032	23387.033566
1162.427245	23366.679720
1164.514270	23329.760839
1166.604594	23304.092308
1168.690631	23277.753147
1170.779965	23229.673427
1172.863118	23199.920979
1174.947673	23188.864336
1177.033630	23181.180420
1179.115305	23171.646154
1181.198382	23173.471329
1183.279073	23217.986014
1185.359272	23264.515385
1187.438980	23283.858741
1189.518197	23321.606294
1191.595032	23355.423077
1193.669486	23372.072727
1195.747231	23389.900000
1197.820707	23386.697902
1199.895583	23421.839860
1201.966192	23420.467133
1204.038203	23424.991608
1206.107837	23446.304895
1208.178872	23451.886713
1210.249419	23467.598601
1212.315705	23470.062937
1214.383392	23501.168531
1216.448707	23511.409091
1218.515422	23542.123776
1220.577881	23582.572727
1222.643625	23590.136364
1224.705116	23621.905594
1226.768006	23652.155245
1228.828529	23669.216783
1230.888568	23686.287413
1232.948125	23701.662937
1235.005316	23721.814685
1237.062026	23737.760839
1239.116373	23741.321678
1241.174000	23743.913287
1243.229265	23771.974126
1245.280289	23803.169930
1247.332713	23824.132168
1249.384657	23854.321678
1251.434243	23931.427273
1253.483350	23965.580420
1255.531979	23998.637762
1257.580129	24031.430769
1259.627800	24040.329371
1261.671242	24043.477622
1263.717958	24020.845455
1265.762321	24010.113287
1267.806208	24016.289510
1269.847743	24037.885315
1271.886929	24052.406294
1273.929388	24097.855245
1275.967624	24167.601399
1278.007259	24220.323077
1280.046419	24289.758741
1282.081360	24373.961538
1284.117700	24470.689510
1286.151696	24570.767133
1288.187090	24687.381119
1290.218270	24826.624476
1292.250848	24989.919580
1294.282955	25154.558741
1296.312721	25362.110490
1298.343885	25596.568531
1300.370841	25872.395804
1302.399195	26194.025874
1304.423345	26578.023077
1306.450759	26986.379720
1308.473971	27468.284615
1310.498581	28097.886014
1312.520857	30223.451049
1314.544530	33880.579720
1316.565870	38596.043357
1318.586742	43888.237762
1320.607147	49320.569930
1322.623359	54432.966434
1324.640968	58869.032168
1326.656249	62284.434965
1328.674789	64797.258741
1330.689140	66869.848252
1332.701165	66741.418182
1334.716447	64530.527273
1336.727544	61437.609790
1338.740038	57254.165734
1340.748349	52055.764336
1342.759916	46284.739161
1344.765443	40361.212587
1346.774226	34747.989510
1348.778831	29963.041259
1350.786690	26500.533566
1352.794087	24898.071329
1354.795453	24910.942657
1356.798216	24544.584615
1358.800518	24166.187413
1360.802361	23814.956643
1362.803744	23497.365035
1364.802814	23254.176923
1366.801425	23071.569231
1368.799578	22910.680420
1370.797272	22771.164336
1372.790804	22664.940559
1374.785732	22561.868531
1376.780202	22478.037063
1378.774217	22388.992308
1380.765923	22325.801399
1382.757175	22264.672727
1384.746121	22208.897902
1386.736462	22148.268531
1388.726348	22108.865035
1390.713931	22067.516084
1392.701059	22049.022378
1394.685886	22036.257343
1396.672108	22039.758741
1398.656030	22053.668531
1400.639499	22045.028671
1402.622515	22036.353846
1404.603234	22041.187413
1406.585347	22035.151049
1408.565164	22047.895804
1410.544529	22073.160839
1412.519756	22083.223077
1414.498222	22133.945455
1416.474393	22181.038462
1418.450116	22222.176923
1420.425389	22256.176224
1422.398371	22300.619580
1424.370905	22327.283916
1426.342992	22378.098601
1428.314630	22403.051049
1430.282140	22447.412587
1432.254724	22492.063636
1434.219503	22516.815385
1436.189353	22522.367832
1438.155080	22529.004895
1440.122199	22520.192308
1442.087035	22497.770629
1444.047751	22455.666434
1446.013536	22411.207692
1447.973365	22385.167832
1449.934587	22356.165734
1451.897202	22309.132168
1453.855702	22290.380420
1455.813759	22248.017483
1457.771375	22199.010490
1459.728549	22155.817483
1461.683447	22125.521678
1463.639737	22100.138462
1465.593753	22055.430070
1467.547329	22005.820280
1469.498632	21979.758741
1471.451327	21952.162937
1473.401751	21913.500699
1475.351735	21860.552448
1477.301281	21843.125175
1479.248558	21789.709091
1481.193568	21767.622378
1483.139969	21746.807692
1485.085933	21723.509091
1487.031460	21713.981818
1488.974722	21702.641958
1490.917547	21697.247552
1492.858109	21702.629371
1494.800062	21701.570629
1496.739753	21717.000000
1498.679010	21742.443357
1500.617831	21757.703497
1502.554393	21737.789510
1504.492346	21763.757343
1506.428040	21759.207692
1508.363301	21754.188811
1510.296306	21770.932168
1512.228878	21741.983916
1514.161018	21720.832168
1516.092726	21720.583916
1518.022180	21752.736364
1519.953025	21767.187413
1521.883438	21801.609790
1523.809779	21795.420979
1525.737511	21797.793007
1527.662992	21814.254545
1529.588044	21819.047552
1531.512667	21813.518182
1533.436861	21816.914685
1535.358807	21794.699301
1537.282144	21783.293706
1539.203235	21784.647552
1541.122081	21792.808392
1543.042316	21772.963636
1544.960309	21751.718182
1546.877875	21722.283217
1548.793199	21703.287413
1550.709913	21658.778322
1552.622572	21595.746853
1554.538435	21547.509091
1556.452058	21499.123077
1558.363444	21442.860140
1560.276218	21367.949650
1562.184943	21308.819580
1564.095058	21258.228671
1566.004748	21211.886014
1567.914016	21177.111888
1569.821050	21141.390210
1571.725851	21139.530070
1573.632041	21107.035664
1575.535999	21075.079720
1577.439537	21097.772028
1579.342653	21079.323776
1581.243540	21077.240559
1583.145816	21049.282517
1585.045864	21017.462937
1586.947299	20988.985315
1588.844701	20944.673427
1590.741684	20900.311189
1592.638249	20829.204196
1594.536202	20809.091608
1596.428320	20757.498601
1598.323631	20720.783916
1600.218525	20672.457343
1602.111197	20626.488112
1604.003453	20580.616783
1605.893488	20547.009091
1607.783109	20509.727972
1609.672313	20478.813986
1611.561103	20468.625874
1613.447675	20476.940559
1615.335635	20461.249650
1617.219578	20469.569231
1619.104909	20479.787413
1620.989825	20456.535664
1622.872528	20427.917483
1624.756618	20428.495105
1626.636697	20403.602098
1628.518162	20373.506993
1630.397417	20333.245455
1632.278058	20304.231469
1634.152895	20296.891608
1636.032714	20277.544056
1637.908527	20257.874126
1639.783930	20264.027273
1641.660719	20279.916783
1643.531712	20247.649650
1645.405886	20271.609091
1647.276062	20273.642657
1649.149418	20275.726573
1651.020571	20257.970629
1652.889522	20241.345455
1654.759859	20228.411189
1656.626202	20170.141958
1658.493931	20158.332168
1660.359461	20143.258042
1662.226377	20113.564336
1664.089304	20081.784615
1665.953616	20036.523077
1667.815732	20010.520979
1669.677444	19998.632867
1671.540540	19994.376923
1673.401442	19986.383217
1675.260150	19998.420979
1677.118455	19999.216084
1678.978145	19958.164336
1680.832068	19979.786014
1682.689163	19983.607692
1684.545856	19964.006294
1686.398573	19940.516084
1688.254460	19916.079720
1690.106374	19901.924476
1691.957887	19887.603497
1693.808999	19855.534965
1695.659711	19825.220280
1697.510022	19802.927972
1699.358148	19754.902797
1701.207659	19713.659441
1703.051421	19702.938462
1704.900132	19691.389510
1706.743098	19669.074825
1708.589229	19660.960839
1710.431399	19654.232867
1712.276733	19669.452448
1714.116327	19665.006294
1715.957305	19663.146154
1717.799666	19646.801399
1719.638071	19636.445455
1721.477859	19613.956643
1723.315472	19597.482517
1725.152689	19576.558042
1726.987733	19554.018182
1728.824160	19518.035664
1730.658415	19509.062238
1732.492275	19460.320979
1734.325742	19457.111189
1736.155262	19435.069231
1737.987941	19410.352448
1739.816676	19397.051748
1741.648568	19367.089510
1743.476519	19353.399301
1745.304077	19338.436364
1747.131243	19324.608392
1748.958018	19321.172028
1750.784402	19299.230769
1752.606848	19323.948252
1754.432450	19302.880420
1756.254117	19280.959441
1758.077166	19270.656643
1759.898053	19247.362238
1761.718552	19222.188112
1763.540432	19183.518881
1765.356612	19199.930769
1767.175944	19181.318881
1768.991349	19170.660839
1770.809904	19182.832867
1772.624534	19176.221678
1774.438778	19203.413986
1776.252634	19187.844755
1778.066104	19166.246853
1779.877421	19174.493007
1781.690119	19128.063636
1783.502430	19098.747552
1785.310824	19082.553846
1787.120598	19075.107692
1788.926458	19053.218881
1790.735463	19032.278322
1792.540555	19025.342657
1794.347028	19020.223077
1796.153117	19022.253147
1797.955296	19028.687413
1799.760618	19026.379720
1801.562032	19040.375524
1803.364826	19031.344755
1805.163714	19036.315385
1806.963983	19029.967133
1808.763870	19033.396503
1810.561616	19017.546853
1812.358980	18984.216084
1814.155965	18965.887413
1815.952569	18949.123776
1817.747034	18932.514685
1819.542878	18926.494406
1821.333068	18893.915385
1823.128153	18895.560839
1824.917587	18882.315385
1826.710157	18868.669231
1828.500592	18852.646154
1830.288893	18854.209790
1832.080329	18825.941259
1833.866119	18811.388811
1835.653289	18803.590210
1837.438327	18792.526573
1839.226499	18777.142657
1841.010785	18771.455245
1842.792942	18742.914685
1844.576477	18730.454545
1846.357884	18704.962238
1848.140670	18681.844755
1849.919575	18656.245455
1851.699860	18661.325874
1853.478018	18658.867133
1855.257555	18661.469231
1857.034967	18657.648252
1858.810255	18670.269930
1860.586922	18682.613986
1862.361465	18711.346853
1864.137387	18721.843357
1865.907688	18740.525874
1867.681117	18756.851748
1869.452426	18765.063636
1871.223365	18786.720979
1872.995680	18825.090909
1874.762382	18837.651748
1876.532210	18841.115385
1878.298174	18851.048951
1880.067262	18852.504196
1881.832488	18852.130769
1883.597345	18844.692308
1885.363580	18828.127972
1887.125956	18799.661538
1888.887965	18815.555944
1890.649606	18790.376224
1892.410881	18768.934266
1894.171788	18757.639161
1895.932329	18742.593706
1897.690760	18738.233566
1899.448826	18719.972727
1901.204783	18721.239860
1902.962117	18721.448951
1904.719086	18705.411189
1906.473949	18694.401399
1908.226706	18680.362937
1909.979100	18697.964336
1911.732869	18666.419580
1913.484535	18666.290210
1915.234099	18698.131469
1916.985038	18728.015385
1918.735615	18753.684615
1920.482352	18762.871329
1922.230466	18807.675524
1923.976480	18813.570629
1925.723870	18810.318182
1927.469161	18815.981119
1929.212355	18809.995105
1930.956924	18799.461538
1932.699398	18794.157343
1934.441511	18824.617483
1936.183264	18866.725524
1937.924658	18910.204895
1939.663957	18943.884965
1941.402898	18987.337063
1943.141481	19024.190559
1944.877971	19066.390909
1946.614104	19086.453497
1948.351611	19092.855245
1950.085296	19095.940909
1951.820356	19117.655944
1953.553328	19125.396154
1955.285942	19153.177622
1957.018201	19174.725524
1958.750103	19195.264336
1960.479919	19207.886713
1962.207650	19238.002098
1963.936756	19247.013287
1965.665507	19264.732168
1967.392174	19254.465035
1969.118487	19243.638462
1970.846173	19239.724476
1972.568323	19258.383217
1974.293574	19262.903497
1976.015019	19288.225175
1977.739563	19292.053846
1979.462028	19303.924476
1981.180689	19320.082517
1982.902449	19357.329371
1984.620407	19363.262238
1986.339738	19402.246154
1988.055270	19418.565734
1989.775622	19436.705594
1991.492176	19442.283916
1993.204933	19486.363636
1994.920787	19527.232168
1996.634567	19560.069231
1998.347998	19580.311888
2000.059358	19600.653846
2001.772090	19623.218881
2003.481032	19662.600699
2005.193067	19680.531469
2006.899592	19727.893706
2008.609210	19723.500000
2010.316760	19732.253846
2012.023963	19765.971329
2013.729100	19780.723077
2015.433890	19783.183916
2017.140052	19800.448951
2018.842432	19810.993007
2020.546184	19817.251748
2022.247872	19805.265035
2023.949216	19815.194406
2025.650214	19809.373427
2027.349151	19818.572028
2029.049460	19813.303497
2030.745994	19815.569930
2032.443899	19828.554545
2034.139745	19807.539161
2035.838677	19809.299301
2037.532123	19845.411888
2039.226940	19868.791608
2040.921415	19890.014685
2042.612121	19878.920979
2044.305911	19880.258042
2045.995934	19872.436364
2047.687328	19869.990909
2049.376669	19851.448252
2051.067380	19805.813287
2052.754328	19775.251748
2054.440937	19731.225874
2056.128916	19707.862937
2057.813135	19695.648252
2059.498724	19668.495804
2061.183974	19639.752448
2062.867176	19592.542657
2064.551747	19545.395105
2066.230856	19520.323077
2067.914750	19491.421678
2069.593184	19458.435664
2071.274694	19440.663636
2072.952454	19450.120979
2074.629876	19463.380420
2076.308668	19501.722378
2077.985418	19520.920979
2079.660126	19547.641958
2081.336203	19549.176923
2083.010240	19542.320979
2084.683941	19521.307692
2086.357307	19516.808392
2088.028635	19490.802098
2089.699628	19487.379720
2091.370287	19481.124476
2093.040611	19511.986713
2094.710602	19519.320979
2096.378557	19545.618182
2098.046179	19571.262937
2099.711766	19623.898601
2101.378723	19663.669930
2103.043645	19715.580420
2104.708236	19765.197902
2106.370795	19821.337063
2108.034722	19872.814685
2109.696619	19923.882517
2111.358184	19956.599301
2113.019418	20007.626573
2114.678624	19992.619580
2116.337499	20001.246154
2117.996045	20001.023776
2119.654261	20000.051748
2121.308753	20000.065734
2122.966310	20010.944755
2124.623538	19989.320280
2126.277044	20004.343357
2127.931918	20000.323077
2129.583074	19974.974825
2131.237291	19982.434965
2132.887792	19980.702098
2134.539659	19963.837063
2136.186118	19957.132867
2137.837332	19976.342657
2139.484832	19999.907692
2141.133699	20027.615385
2142.780548	20040.962238
2144.427070	20035.273427
2146.073267	20073.996503
2147.715756	20062.207692
2149.361303	20046.975524
2151.003143	20043.546853
2152.648040	20032.340559
2154.289232	20018.997203
2155.930100	19995.510490
2157.570644	20014.531469
2159.209176	20007.810490
2160.849074	19979.432168
2162.485272	19953.069231
2164.122837	19943.494406
2165.760078	19934.777622
2167.395310	19902.693007
2169.030221	19909.895105
2170.664810	19910.411888
2172.299077	19935.420979
2173.929651	19969.692308
2175.563277	19993.179720
2177.193211	20045.804196
2178.824510	20073.938462
2180.453804	20082.530769
2182.082779	20078.539161
2183.711434	20076.230070
2185.339770	20037.415385
2186.966104	19989.216084
2188.592119	19965.481119
2190.216133	19932.793706
2191.841511	19911.152448
2193.464890	19896.140559
2195.089632	19854.743357
2196.710694	19849.848951
2198.331439	19815.318182
2199.953549	19802.139860
2201.573661	19800.206993
2203.191776	19788.152448
2204.809576	19793.504196
2206.427061	19800.459441
2208.044230	19833.729371
2209.661084	19898.359441
2211.277623	19934.868531
2212.892168	19989.598601
2214.504721	20014.328671
2216.118638	20048.723077
2217.730564	20077.190909
2219.343853	20109.221678
2220.955152	20126.383916
2222.564461	20118.990210
2224.175134	20136.839860
2225.783818	20164.304196
2227.392190	20195.479021
2228.998574	20242.672028
2230.606322	20264.572028
2232.212083	20323.439161
2233.817533	20351.107692
2235.420998	20395.091608
2237.025826	20451.458741
2238.628670	20465.589510
2240.229532	20490.090210
2241.831755	20512.000699
2243.431997	20546.105594
2245.033601	20592.073427
2246.631553	20598.123776
2248.230867	20651.667832
2249.828201	20676.678322
2251.425226	20741.779021
2253.023614	20787.607692
2254.618353	20833.052448
2256.211115	20862.518182
2257.805240	20868.788112
2259.400726	20889.633566
2260.992568	20885.885315
2262.584103	20885.785315
2264.176999	20850.090909
2265.764586	20817.439860
2267.356870	20803.424476
2268.943846	20770.725175
2270.533851	20796.986713
2272.118551	20783.341259
2273.707944	20775.667832
2275.292036	20735.558042
2276.877489	20692.035664
2278.460972	20691.565035
2280.047482	20671.409790
2281.630358	20667.176224
2283.212930	20642.676224
2284.795199	20637.940559
2286.373839	20639.822378
2287.955502	20642.296503
2289.533537	20669.117483
2291.114595	20656.088811
2292.692026	20657.077622
2294.267494	20633.606294
2295.845984	20612.634965
2297.420850	20605.363636
2298.995415	20553.901399
2300.569680	20520.474825
2302.143644	20483.255245
2303.717308	20456.995105
2305.290671	20430.088112
2306.860416	20422.169930
2308.429862	20421.474126
2310.002326	20452.246853
2311.569516	20470.741958
2313.139724	20527.796503
2314.706317	20540.106294
2316.274270	20569.527972
2317.840267	20603.037762
2319.405967	20639.265035
2320.971370	20646.539161
2322.534818	20681.906294
2324.099626	20721.774825
2325.660826	20775.518881
2327.225040	20808.664336
2328.783992	20863.611189
2330.345959	20906.160839
2331.905975	20970.836364
2333.465695	21010.318182
2335.023466	21070.959441
2336.580942	21137.802797
2338.138124	21149.074825
2339.693358	21169.818881
2341.248299	21218.115385
2342.802946	21229.936364
2344.357299	21234.410490
2345.911358	21253.758042
2347.465123	21258.125175
2349.016945	21266.641259
2350.566823	21249.085315
2352.119709	21252.853846
2353.667353	21246.746154
2355.218004	21268.418182
2356.765064	21261.324476
2358.313483	21270.849650
2359.861609	21277.639860
2361.406147	21289.236364
2362.952043	21322.191608
2364.496001	21339.510490
2366.041316	21363.695105
2367.583046	21366.561538
2369.126133	21378.455944
2370.667285	21417.276923
2372.208147	21427.155245
2373.748719	21475.842657
2375.289003	21468.108392
2376.828998	21461.016783
2378.365415	21462.643357
2379.904833	21480.954545
2381.440674	21482.341259
2382.977871	21479.822378
2384.511493	21528.916084
2386.048116	21550.029371
2387.582807	21609.278322
2389.115569	21682.299301
2390.648044	21746.884615
2392.178591	21796.738462
2393.712136	21817.569930
2395.240470	21839.486713
2396.770161	21875.915385
2398.299566	21901.558741
2399.828685	21931.103497
2401.357520	21930.547552
2402.881149	21970.862937
2404.409415	21997.076923
2405.932477	22025.835664
2407.460173	22073.302797
2408.981030	22095.153147
2410.506520	22119.222378
2412.028449	22159.937762
2413.551734	22195.476923
2415.073098	22224.478322
2416.592542	22245.686713
2418.113341	22284.113986
2419.632221	22304.128671
2421.150819	22325.973427
2422.667500	22328.802797
2424.185535	22340.603497
2425.703289	22358.700699
2427.217492	22354.239860
2428.731414	22402.063636
2430.245056	22424.919580
2431.760053	22463.689510
2433.271501	22476.134266
2434.784304	22519.993007
2436.295193	22571.449650
2437.805804	22606.174825
2439.314503	22624.786014
2440.826188	22643.154545
2442.334330	22678.053846
2443.842194	22706.537762
2445.349780	22750.398601
2446.853825	22807.541958
2448.360856	22870.220979
2449.865978	22943.639860
2451.370823	22993.265035
2452.873760	23056.788811
2454.376422	23097.320280
2455.878807	23109.199301
2457.379287	23124.141958
2458.881120	23107.938462
2460.381049	23111.218881
2461.880702	23101.994406
2463.380079	23095.778322
2464.877554	23089.126573
2466.373127	23101.849650
2467.871680	23099.437063
2469.366705	23073.346154
2470.863082	23094.408392
2472.355933	23064.953846
2473.850137	23047.008392
2475.344067	23016.997902
2476.834473	22996.357343
2478.327857	22983.276224
2479.819343	22984.188811
2481.308932	23000.232867
2482.798249	23059.932168
2484.285671	23107.697902
2485.776068	23151.776224
2487.262946	23182.536364
2488.751176	23243.191608
2490.235890	23236.606294
2491.720333	23260.925874
2493.206128	23226.770629
2494.690030	23216.821678
2496.175284	23195.551748
2497.655403	23193.220979
2499.138496	23186.308392
2500.619698	23198.106294
2502.100631	23184.205594
2503.579675	23179.874825
2505.058450	23159.666434
2506.536957	23169.309790
2508.015196	23141.235664
2509.493166	23128.037063
2510.967632	23084.848252
2512.445066	23068.553147
2513.918997	23032.179021
2515.394278	22977.808392
2516.869293	22952.969231
2518.340806	22919.119580
2519.813669	22877.139860
2521.284650	22847.577622
2522.756981	22813.951748
2524.224199	22785.123776
2525.694382	22738.707692
2527.162685	22718.521678
2528.630723	22691.100000
2530.098496	22670.390210
2531.566004	22647.426573
2533.033247	22637.028671
2534.496998	22655.527273
2535.962099	22673.260140
2537.425323	22679.459441
2538.889897	22685.533566
2540.350981	22712.001399
2541.813415	22730.427972
2543.275586	22757.703497
2544.734271	22781.469930
2546.197528	22791.519580
2547.655688	22795.281818
2549.115197	22796.741958
2550.569613	22787.979720
2552.028598	22772.481119
2553.485712	22771.145455
2554.940955	22728.737063
2556.395937	22690.395105
2557.849049	22717.434965
2559.303510	22702.070629
2560.756102	22697.855944
2562.208434	22698.179021
2563.658898	22699.075524
2565.112318	22714.608392
2566.560656	22746.145455
2568.011950	22810.959441
2569.461377	22845.608392
2570.907332	22896.133566
2572.356242	22915.972028
2573.801682	22943.042657
2575.248470	23004.407692
2576.693394	23005.216783
2578.138060	22997.093007
2579.584075	22975.627273
2581.026622	22955.399301
2582.470517	22940.847552
2583.910947	22937.256643
2585.352724	22947.726573
2586.792642	22920.955944
2588.233907	22938.077622
2589.671711	22954.241958
2591.112464	22978.239860
2592.548154	23046.855245
2593.986794	23052.356643
2595.423576	23076.720979
2596.858503	23122.097902
2598.296377	23147.553846
2599.729194	23170.751049
2601.163358	23159.043357
2602.595668	23170.639860
2604.029324	23171.625175
2605.461127	23209.108392
2606.892676	23225.784615
2608.323973	23223.018182
2609.753417	23256.535664
2611.182609	23241.425175
2612.609951	23287.989510
2614.038638	23287.119580
2615.467074	23293.383217
2616.892062	23303.644755
2618.318397	23284.260839
2619.742883	23326.911888
2621.168715	23330.016084
2622.591103	23359.576224
2624.014837	23365.123077
2625.436724	23367.327273
2626.858362	23389.288112
2628.278154	23388.631469
2629.699292	23412.219580
2631.120180	23386.774126
2632.537630	23431.058741
2633.958019	23425.915385
2635.374971	23427.632168
2636.791674	23465.484615
2638.208130	23475.681818
2639.624336	23491.528671
2641.040295	23493.733566
2642.454413	23477.064336
2643.868284	23472.743357
2645.280315	23482.421678
2646.693691	23502.288112
2648.103637	23536.669231
2649.516518	23577.290909
2650.925971	23598.286713
2652.335178	23619.279021
2653.742549	23676.701399
2655.152855	23714.187413
2656.561324	23730.358741
2657.967958	23772.165035
2659.374347	23794.565734
2660.778902	23841.446154
2662.184801	23907.788112
2663.588867	23964.354545
2664.992688	24029.270629
2666.396266	24045.920979
2667.798011	24047.679021
2669.201100	24013.186014
2670.600771	23968.848951
2672.001786	23910.243357
2673.399385	23823.795105
2674.799914	23770.397902
2676.197028	23680.748252
2677.595485	23611.808392
2678.992114	23577.195804
2680.388501	23517.729371
2681.784647	23494.721678
2683.178966	23479.026573
2684.574628	23447.407692
2685.966880	23452.888112
2687.360475	23438.234965
2688.752247	23436.221678
2690.145360	23425.409091
2691.536650	23450.500000
2692.926117	23443.157343
2694.315344	23436.664336
2695.704332	23438.255245
2697.094662	23410.979021
2698.480007	23433.411189
2699.868276	23450.097203
2701.254725	23430.540559
2702.640935	23462.993706
2704.026907	23458.035664
2705.409479	23485.063636
2706.793394	23525.262937
2708.177071	23545.158741
2709.560510	23565.287413
2710.940553	23578.449650
2712.321938	23588.724476
2713.701507	23599.925874
2715.082418	23621.756643
2716.461513	23647.107692
2717.838795	23665.612587
2719.217418	23717.373427
2720.594228	23755.488811
2721.970802	23826.506993
2723.347140	23891.342657
2724.721666	23941.644056
2726.097533	23989.616783
2727.470013	24015.755944
2728.845409	24044.158042
2730.215845	24074.882517
2731.587622	24083.081818
2732.959164	24098.063636
2734.328898	24134.412587
2735.699973	24158.422378
2737.069239	24181.641259
2738.438273	24205.223776
2739.805499	24261.520280
2741.172493	24272.305594
2742.539254	24292.136364
2743.905782	24326.058042
2745.270505	24377.774126
2746.634997	24429.643357
2747.999256	24453.692308
2749.363283	24506.159441
2750.727079	24562.957343
2752.087501	24592.262238
2753.450834	24586.413986
2754.809224	24582.723077
2756.170524	24590.632867
2757.528453	24565.224476
2758.889291	24557.968531
2760.248330	24534.386014
2761.604000	24525.626573
2762.962578	24520.242657
2764.317789	24532.700699
2765.672772	24579.769930
2767.025957	24605.539860
2768.382049	24617.962238
2769.734777	24634.927273
2771.087276	24652.408392
2772.439547	24664.487413
2773.793157	24693.192308
2775.143405	24718.209790
2776.491860	24729.251049
2777.843219	24759.076224
2779.191219	24757.431469
2780.540557	24768.754545
2781.888104	24774.690210
2783.235423	24778.925874
2784.582516	24747.933566
2785.927818	24763.848951
2787.272894	24741.641259
2788.617743	24755.925175
2789.962367	24787.637063
2791.303639	24827.941958
2792.646249	24887.131469
2793.988633	24955.504895
2795.330793	25013.540559
2796.669603	25081.004895
2798.011312	25157.593007
2799.349674	25207.779720
2800.689373	25240.991608
2802.027286	25303.007692
2803.363415	25329.706993
2804.699320	25381.016783
2806.036563	25415.160839
2807.372022	25470.118881
2808.707258	25518.525175
2810.040711	25615.551049
2811.375502	25704.925874
2812.706951	25760.283217
2814.041296	25793.545455
2815.370743	25804.853846
2816.701527	25855.825874
2818.032089	25886.865734
2819.360872	25914.634266
2820.690991	25955.683916
2822.019332	25998.631469
2823.347452	26017.948951
2824.673794	26027.201399
2826.001473	26086.245455
2827.325818	26090.944056
2828.651500	26074.602797
2829.975406	26055.241259
2831.299093	26066.522378
2832.624115	26061.545455
2833.945807	26078.297902
2835.267281	26081.683217
2836.588536	26099.204895
2837.909572	26102.505594
2839.228836	26070.464336
2840.549435	26056.384615
2841.868262	26039.848951
2843.186871	26013.732867
2844.503709	25997.337762
2845.820330	25996.044755
2847.136734	26024.290909
2848.451368	26023.566434
2849.767338	26059.225874
2851.079987	26069.614685
2852.393972	26084.276923
2853.707739	26069.979021
2855.021291	26070.562238
2856.333075	26111.501399
2857.643093	26125.955245
2858.954446	26149.674126
2860.262484	26185.667832
2861.571857	26252.690909
2862.881014	26349.506993
2864.189956	26424.979021
2865.497134	26495.336364
2866.802550	26539.779720
2868.109300	26564.695804
2869.414287	26574.144755
2870.719061	26624.837063
2872.022073	26688.285315
2873.327967	26680.947552
2874.629005	26717.372028
2875.931378	26707.051748
2877.231991	26715.311189
2878.533938	26722.828671
2879.835672	26735.381119
2881.134101	26747.801399
2882.433865	26734.816084
2883.731870	26734.494406
2885.029664	26727.425874
2886.325702	26752.755245
2887.623073	26760.226573
2888.918688	26757.766434
2890.214092	26790.247552
2891.509285	26752.122378
2892.801181	26754.392308
2894.095953	26738.879021
2895.387428	26760.739860
2896.680236	26756.477622
2897.972834	26747.528671
2899.262138	26745.330070
2900.552774	26738.411888
2901.841659	26733.728671
2903.131877	26729.876224
2904.418802	26742.055944
2905.707061	26765.949650
2906.993569	26771.290210
2908.279870	26807.035664
2909.565962	26798.132168
2910.850306	26807.942657
2912.137521	26782.229371
2913.419910	26794.098601
2914.703631	26787.122378
2915.985606	26763.175524
2917.267373	26773.904196
2918.547396	26758.559441
2919.830288	26749.172727
2921.111435	26745.526573
2922.389300	26751.080420
2923.670034	26734.848252
2924.947487	26698.995804
2926.224734	26677.336364
2927.500240	26646.883916
2928.778613	26651.721678
2930.052171	26625.264336
2931.328597	26607.284615
2932.603282	26632.431469
2933.876227	26606.861538
2935.150502	26617.436364
2936.423038	26623.493007
2937.695370	26629.785315
2938.964428	26617.835664
2940.236352	26600.540559
2941.506538	26568.209790
2942.776521	26541.526573
2944.046300	26535.841259
2945.314342	26519.383217
2946.580649	26538.313986
2947.846753	26533.265734
2949.114187	26540.920280
2950.379887	26553.458042
2951.645384	26583.488112
2952.910679	26579.049650
2954.172709	26571.655944
2955.436070	26546.354545
2956.699228	26533.850350
2957.960655	26532.354545
2959.223411	26564.467832
2960.484436	26591.762937
2961.743729	26618.924476
2963.002823	26625.276224
2964.261716	26643.651748
2965.520409	26647.930769
2966.778902	26680.852448
2968.035666	26678.016783
2969.292230	26703.421678
2970.547067	26710.528671
2971.803232	26733.626573
2973.056143	26733.644755
2974.310383	26791.486713
2975.564424	26803.397902
2976.816739	26839.089510
2978.068856	26896.846154
2979.319247	26929.918881
2980.572494	26965.448252
2981.820964	27012.562937
2983.072289	27051.379720
2984.320364	27073.674825
2985.568243	27083.284615
2986.815924	27071.650350
2988.063409	27048.367133
2989.309171	27066.132168
2990.554738	27081.506294
2991.801632	27119.463636
2993.045282	27162.790909
2994.290260	27180.861538
2995.531994	27189.261538
2996.776580	27178.121678
2998.019447	27194.378322
2999.259073	27208.911888
3000.501549	27229.933566
3001.740786	27199.173427
3002.981350	27234.225874
3004.220197	27264.499301
3005.458850	27308.517483
3006.695787	27343.418881
3007.934051	27346.541958
3009.170601	27380.593706
3010.406956	27411.810490
3011.643118	27433.826573
3012.877567	27475.295105
3014.111822	27518.898601
3015.345884	27552.281119
3016.578234	27593.377622
3017.808872	27629.041958
3019.042356	27634.758042
3020.274128	27655.015385
3021.504190	27692.981818
3022.734060	27695.713986
3023.962220	27737.985315
3025.191706	27765.490210
3026.419484	27779.079720
3027.647070	27790.477622
3028.875982	27815.223077
3030.100152	27842.294406
3031.327165	27881.176923
3032.550954	27874.650350
3033.776070	27896.016783
3034.999479	27928.081818
3036.222698	27966.943357
3037.444212	27998.972028
3038.668567	28049.635664
3039.888187	28113.729371
3041.109133	28144.212587
3042.329890	28177.942657
3043.548943	28235.611189
3044.769322	28287.734965
3045.986484	28342.482517
3047.204971	28401.377622
3048.421756	28414.135664
3049.638354	28438.649650
3050.854763	28472.298601
3052.067960	28523.750350
3053.283994	28588.063636
3054.496816	28625.545455
3055.712475	28617.165035
3056.923411	28659.181119
3058.135672	28714.279720
3059.347747	28761.658042
3060.559635	28785.922378
3061.769825	28817.583217
3062.979829	28814.202797
3064.189647	28856.404196
3065.397770	28907.376923
3066.605706	28984.262937
3067.811948	29060.960140
3069.019513	29081.606294
3070.225384	29155.604196
3071.431071	29258.463636
3072.636572	29304.518182
3073.840380	29357.871329
3075.045512	29357.341259
3076.248952	29378.627273
3077.450699	29409.426573
3078.652263	29438.234266
3079.853642	29473.606993
3081.054839	29499.772727
3082.254344	29521.211888
3083.453667	29535.000000
3084.654313	29582.005594
3085.853269	29595.940559
3087.049031	29585.141259
3088.247622	29595.229371
3089.443019	29602.883916
3090.639739	29623.181119
3091.833267	29643.275524
3093.029623	29659.790909
3094.224293	29663.882517
3095.415772	29670.523776
3096.611582	29657.867832
3097.802699	29663.555944
3098.995138	29650.865035
3100.184390	29683.603497
3101.376468	29705.211189
3102.566861	29732.550350
3103.754069	29779.013287
3104.942600	29806.267133
3106.132452	29859.705594
3107.319121	29887.897902
3108.505610	29897.019580
3109.691919	29894.170629
3110.879550	29869.971329
3112.064000	29869.281119
3113.246769	29863.574825
3114.432361	29898.827972
3115.616274	29910.511189
3116.798508	29927.462238
3117.980563	29970.723077
3119.162441	30020.188112
3120.344140	30058.255245
3121.524161	30058.908392
3122.702506	30091.758042
3123.883672	30105.126573
3125.061662	30139.032168
3126.239475	30169.281119
3127.417111	30179.442657
3128.593072	30198.265734
3129.768856	30192.001399
3130.945962	30223.297902
3132.121393	30242.500699
3133.295151	30291.288811
3134.467237	30291.195804
3135.640643	30293.002098
3136.813874	30372.526573
3137.985432	30440.135664
3139.158311	30510.651748
3140.328024	30594.593706
3141.499056	30601.238462
3142.668419	30601.920979
3143.836112	30605.885315
3145.006620	30608.734266
3146.172469	30608.876923
3147.342628	30629.527972
3148.508129	30605.311189
3149.673457	30574.727273
3150.838611	30569.783916
3152.003591	30558.016783
3153.169892	30493.493706
3154.331539	30421.720280
3155.494506	30308.317483
3156.657301	30188.469231
3157.819923	30046.177622
3158.980880	29923.104196
3160.141664	29822.788811
3161.302276	29733.140559
3162.461225	29696.784615
3163.620001	29665.437762
3164.778606	29638.267832
3165.937039	29645.563636
3167.095300	29648.444056
3168.251899	29677.435664
3169.406837	29700.831469
3170.563094	29697.431469
3171.717690	29692.203497
3172.872116	29723.709790
3174.024882	29708.413287
3175.177478	29760.737063
3176.329903	29804.327273
3177.482159	29843.076224
3178.634244	29871.160839
3179.783184	29940.958741
3180.934930	30020.023776
3182.085018	30082.056643
3183.233450	30170.261538
3184.381713	30262.561538
3185.529806	30371.330769
3186.677731	30496.810490
3187.824001	30574.986713
3188.970102	30663.349650
3190.114548	30703.732867
3191.258827	30758.397203
3192.402938	30776.760140
3193.548367	30796.739860
3194.690656	30796.951748
3195.832779	30793.910490
3196.974734	30818.033566
3198.116523	30809.358042
3199.258144	30812.482517
3200.396629	30825.343357
3201.536432	30822.705594
3202.677553	30823.752448
3203.815539	30855.893706
3204.951876	30854.779720
3206.088047	30893.186713
3207.225536	30921.512587
3208.361375	30967.024476
3209.498532	30946.348951
3210.631076	30932.457343
3211.767902	30887.838462
3212.900116	30820.739860
3214.033647	30723.479021
3215.167014	30608.540559
3216.297253	30468.206294
3217.430290	30368.674825
3218.560201	30239.781818
3219.691428	30161.263636
3220.819531	30097.438462
3221.950430	30067.590210
3223.079685	30009.332168
3224.207297	30025.667133
3225.331787	30027.628671
3226.460551	30048.495804
3227.586194	30066.393007
3228.711675	30096.301399
3229.835514	30123.162238
3230.962147	30160.245455
3232.084183	30140.684615
3233.207535	30155.107692
3234.330725	30157.107692
3235.453753	30173.459441
3236.575141	30148.662937
3237.696368	30140.175524
3238.815956	30165.753147
3239.935383	30241.988811
3241.053172	30299.497203
3242.173754	30422.772028
3243.291221	30530.765734
3244.408528	30664.615385
3245.525675	30774.013986
3246.641186	30910.061538
3247.758012	31020.373427
3248.871727	31131.613287
3249.988232	31178.255245
3251.103103	31217.558042
3252.214865	31275.240559
3253.326468	31299.258741
3254.439385	31265.900000
3255.552144	31302.350350
3256.661796	31309.808392
3257.772762	31345.411189
3258.883570	31348.505594
3259.992747	31392.791608
3261.100292	31438.662937
3262.209151	31495.918182
3263.317853	31542.745455
3264.423452	31601.075524
3265.530365	31649.643357
3266.635649	31668.151748
3267.742248	31668.295804
3268.845746	31733.469231
3269.950558	31740.615385
3271.055213	31776.652448
3272.156769	31790.867133
3273.258170	31828.653846
3274.360884	31833.768531
3275.463441	31886.239161
3276.562902	31907.196503
3277.665147	31929.367133
3278.764296	31934.834266
3279.861821	31918.906993
3280.959190	31910.965035
3282.059342	31905.444056
3283.156400	31843.293706
3284.253303	31864.888112
3285.350051	31820.530070
3286.442241	31820.717483
3287.538679	31810.485315
3288.633495	31808.272727
3289.728157	31823.553147
3290.821197	31871.571329
3291.914083	31918.891608
3293.005348	31930.574126
3294.097926	31947.320979
3295.188883	31949.363636
3296.278221	31935.592308
3297.367406	31982.693007
3298.457904	31954.416783
3299.545317	31957.351049
3300.632578	31960.896503
3301.721151	32002.862937
3302.809571	32035.502797
3303.893444	32076.551049
3304.981559	32138.293007
3306.066593	32155.815385
3307.150010	32235.230070
3308.234740	32256.254545
3309.317855	32301.586713
3310.402281	32340.090909
3311.483629	32356.836364
3312.566289	32354.107692
3313.647335	32377.060839
3314.728230	32417.325175
3315.807511	32397.045455
3316.886643	32457.648951
3317.967085	32513.682517
3319.044454	32541.813287
3320.123133	32609.074126
3321.200202	32611.268531
3322.277120	32652.914685
3323.352427	32676.051049
3324.427585	32711.513986
3325.504054	32708.651748
3326.577453	32742.351748
3327.650703	32772.002797
3328.725263	32792.683217
3329.798215	32831.362937
3330.869558	32794.950350
3331.942213	32801.060839
3333.011800	32785.968531
3334.082698	32784.234266
3335.151989	32753.440559
3336.222591	32710.487413
3337.291586	32684.883217
3338.358975	32679.290210
3339.424759	32671.077622
3340.494769	32634.302797
3341.561716	32614.560140
3342.625601	32572.274126
3343.692254	32558.804196
3344.757302	32578.507692
3345.820747	32569.474825
3346.884046	32578.894406
3347.947198	32581.196503
3349.010204	32545.986014
3350.073064	32599.026573
3351.134322	32613.848252
3352.192523	32595.200699
3353.254945	32615.076923
3354.314310	32652.495804
3355.373530	32667.930070
3356.434060	32737.139860
3357.490080	32824.332867
3358.548865	32880.673427
3359.603142	32950.213986
3360.660182	33026.850350
3361.715625	33088.859441
3362.772376	33208.439161
3363.827529	33223.661538
3364.881086	33254.206993
3365.933045	33345.101399
3366.987766	33392.304196
3368.039438	33423.828671
3369.090967	33478.969930
3370.143804	33524.501399
3371.193594	33546.069231
3372.244693	33577.765734
3373.292746	33627.154545
3374.343559	33670.759441
3375.391326	33712.016084
3376.438951	33724.695105
3377.486433	33757.146853
3378.532323	33813.353147
3379.579521	33824.904895
3380.623677	33881.435664
3381.670591	33893.134965
3382.715913	33875.393007
3383.758194	33912.194406
3384.800335	33900.612587
3385.843783	33901.732867
3386.887091	33875.191608
3387.928808	33888.776923
3388.970384	33919.795105
3390.011820	33954.883217
3391.051666	34017.920979
3392.089924	34089.721678
3393.129491	34207.446154
3394.168916	34243.546853
3395.206754	34268.429371
3396.243005	34313.229371
3397.279117	34301.353147
3398.316536	34345.366434
3399.350922	34326.754545
3400.386615	34332.127273
3401.422169	34347.377622
3402.454692	34388.170629
3403.489968	34447.753147
3404.522213	34490.820979
3405.554320	34561.881119
3406.584843	34603.690210
3407.616673	34628.743357
3408.648365	34660.986014
3409.677030	34715.290909
3410.705556	34761.346154
3411.735390	34733.479021
3412.765085	34754.716783
3413.791755	34801.002797
3414.819732	34893.592308
3415.844684	34942.041259
3416.872386	35017.827273
3417.897065	35071.612587
3418.923050	35121.594406
3419.947455	35176.607692
3420.971724	35199.916084
3421.994414	35258.873427
3423.016968	35222.867832
3424.040828	35197.917483
3425.061668	35172.704196
3426.082373	35160.415285
3427.104383	35158.024301
3428.123375	35170.404496
3429.142232	35202.429121
3430.162394	35258.971429
3431.179540	35344.904670
