-118.077073	2.024176
-115.407473	4.941758
-112.740808	6.940160
-110.074895	8.143856
-107.411914	8.677323
-104.747504	8.665035
-102.086024	8.231469
-99.423114	7.999301
-96.765312	6.581119
-94.106079	6.684615
-91.447596	3.777622
-88.792036	4.531469
-86.135048	3.527972
-83.483157	4.012587
-80.829837	5.223776
-78.179437	7.092308
-75.527607	6.179720
-72.880868	6.200000
-70.232699	5.952448
-67.585274	7.260839
-64.940762	7.388112
-62.294822	5.548252
-59.653963	4.806993
-57.011675	6.297203
-54.372295	4.557343
-51.731487	5.595804
-49.091419	7.464336
-46.456423	8.320979
-43.819999	7.863636
-41.186477	10.125175
-38.551527	9.151049
-35.921642	11.337063
-33.288165	10.879021
-30.659750	10.989510
-28.032069	13.195804
-25.402959	13.467133
-22.778906	7.667133
-20.151264	-8.220280
-17.528675	-41.554545
-14.906818	-51.222378
-12.285691	84.858741
-9.665294	294.576224
-7.047786	466.495804
-4.428848	587.560839
-1.812797	651.967133
0.802526	664.092308
3.417122	622.730769
6.028835	525.672727
8.641977	380.225874
11.250085	195.953846
13.861775	13.287413
16.468434	-85.206294
19.076521	-41.533566
21.683884	9.206294
24.286222	14.462937
26.892138	12.134965
29.493032	8.128671
32.095354	6.905594
34.692659	7.660839
37.293539	6.683217
39.889405	7.544755
42.486698	9.186014
45.083272	10.202098
47.674837	13.586713
50.267830	16.630070
52.857962	17.376224
55.449522	16.123776
58.038222	14.873427
60.628349	14.881818
63.213478	15.251049
65.800033	15.003497
68.385875	14.442657
70.968863	16.360140
73.553277	19.730070
76.130563	17.702797
78.711415	20.689510
81.289418	20.557343
83.866711	18.647552
86.445430	16.143357
89.019168	13.814685
91.594332	12.156643
94.166653	15.242657
96.738266	15.079720
99.307039	20.663636
101.877239	24.774825
104.444601	28.690909
107.013388	28.713986
109.579339	33.879021
112.142455	35.893706
114.709127	41.619580
117.266578	51.551748
119.829714	69.558042
122.387891	101.579021
124.949621	167.181818
127.506395	276.800000
130.064596	457.146154
132.617844	701.567832
135.170393	1020.395105
137.726493	1396.053846
140.277646	1802.280420
142.828100	2208.017483
145.377857	2579.634965
147.924796	2892.032168
150.471038	3135.082517
153.018706	3293.509790
155.565678	3386.839860
158.107715	3427.904196
160.649058	3441.100699
163.189708	3434.188811
165.731784	3431.265035
168.271048	3428.002797
170.807504	3422.996503
173.343268	3423.412587
175.880458	3417.601399
178.416957	3415.847552
180.950650	3418.206294
183.481540	3414.520280
186.011741	3417.614685
188.543367	3412.959441
191.072192	3413.010490
193.598218	3410.279720
196.123558	3401.561538
198.650324	3389.457343
201.174292	3382.081818
203.697576	3369.877622
206.220175	3355.369930
208.739981	3347.658042
211.259104	3347.070629
213.777544	3343.859441
216.297408	3347.739161
218.810271	3347.852448
221.326665	3351.559441
223.842377	3350.595804
226.353199	3354.049650
228.865447	3352.958741
231.374911	3352.902098
233.883697	3346.053846
236.391805	3341.070629
238.901336	3349.709091
241.405987	3357.546154
243.909962	3359.557343
246.415362	3365.999301
248.915886	3368.512587
251.419933	3369.260839
253.917010	3366.348951
256.417609	3372.218881
258.915437	3362.486713
261.412592	3357.007692
263.909074	3347.346853
266.400693	3333.689510
268.895832	3326.121678
271.388205	3315.204196
273.879907	3299.299301
276.368845	3284.024476
278.859208	3266.295804
281.346808	3257.623776
283.831649	3249.072028
286.320005	3244.781818
288.801421	3241.840559
291.286351	3247.479720
293.766436	3248.841958
296.250033	3250.671329
298.728787	3249.632168
301.208965	3253.630070
303.686390	3243.608392
306.163152	3232.925874
308.639251	3222.279720
311.112601	3216.598601
313.585289	3204.018881
316.057316	3196.328671
318.528682	3193.567133
320.997304	3190.658741
323.465266	3188.106993
325.934650	3190.218182
328.399212	3192.731469
330.867278	3204.497203
333.330524	3207.399301
335.793112	3210.488112
338.255044	3214.001399
340.716319	3210.562937
343.174860	3204.262937
345.634823	3196.937762
348.092053	3186.784615
350.548629	3170.441958
353.004551	3159.816783
355.457744	3146.396503
357.912358	3135.836364
360.362171	3127.097902
362.815480	3109.769930
365.263991	3103.355245
367.711851	3096.500000
370.161132	3089.868531
372.605620	3089.588112
375.051530	3090.630070
377.496791	3094.720979
379.939332	3096.793706
382.381226	3097.710490
384.822473	3090.376224
387.261004	3085.985315
389.700957	3080.237762
392.138196	3072.323776
394.572723	3071.967832
397.010738	3072.732867
399.443976	3067.034266
401.878636	3065.739161
404.308522	3062.156643
406.741894	3057.527972
409.170496	3060.879021
411.598457	3056.188811
414.027838	3052.920280
416.452454	3054.805594
418.878492	3061.475524
421.303889	3068.167133
423.728646	3075.852448
426.148645	3085.551748
428.570065	3081.804196
430.988788	3080.816084
433.408932	3082.453147
435.826381	3088.522378
438.245250	3091.986713
440.661426	3092.952448
443.072855	3094.246154
445.487760	3095.778322
447.899975	3097.613287
450.311556	3099.255944
452.722503	3089.669930
455.130764	3085.361538
457.538392	3077.762238
459.945389	3071.612587
462.351753	3075.697902
464.755435	3070.071329
467.158487	3064.202098
469.560909	3066.081818
471.962701	3063.820979
474.361816	3065.574126
476.762350	3065.309790
479.162255	3060.006294
481.557437	3052.519580
483.956086	3044.297902
486.350015	3036.122378
488.743318	3028.027273
491.135995	3024.209790
493.528047	3013.510490
495.921517	3007.490210
498.310276	3001.420979
500.696368	3000.169930
503.083879	2998.795804
505.470768	2998.923776
507.854993	2992.634965
510.240637	2992.441958
512.623618	2978.737063
515.003939	2983.838462
517.385679	2983.770629
519.764760	2986.862238
522.145260	2985.309790
524.523102	2981.977622
526.898289	2981.752448
529.272858	2984.513287
531.648846	2983.712587
534.022180	2979.479720
536.396932	2968.778322
538.766999	2963.332867
541.136450	2954.478322
543.507319	2953.381818
545.873508	2943.985315
548.241115	2940.507692
550.606076	2936.520280
552.970424	2934.129371
555.334160	2935.804895
557.699312	2939.669231
560.059793	2945.120979
562.421692	2943.345455
564.780950	2946.439860
567.137571	2949.922378
569.497636	2953.446154
571.851011	2953.904196
574.207830	2953.551049
576.562013	2951.002797
578.915589	2942.161538
581.268556	2933.476224
583.618892	2921.870629
585.970644	2911.489510
588.315720	2904.620280
590.666260	2894.487413
593.010126	2889.338462
595.359454	2882.350350
597.704134	2887.080420
600.046188	2884.148252
602.389660	2886.488112
604.730509	2881.293706
607.070756	2876.224476
609.408382	2867.558741
611.749443	2855.434965
614.085866	2847.660839
616.423706	2842.711888
618.758929	2831.225175
621.091536	2821.951049
623.425559	2818.888112
625.756969	2816.551748
628.087780	2811.827972
630.417993	2816.935664
632.747608	2810.701399
635.072601	2811.392308
637.403035	2797.934965
639.728847	2795.085315
642.052053	2789.650350
644.376674	2788.577622
646.698690	2783.022378
649.020113	2780.668531
651.338932	2783.453147
653.659167	2781.467832
655.978809	2792.585315
658.295850	2795.628671
660.612299	2794.782517
662.926150	2800.069930
665.241417	2792.304895
667.554087	2800.340559
669.868172	2793.408392
672.177657	2795.437063
674.488558	2792.205594
676.796866	2786.368531
679.104586	2781.944056
681.413721	2776.993007
683.718263	2778.815385
686.022218	2766.395105
688.325588	2757.202098
690.630372	2751.828671
692.930570	2741.418881
695.232182	2740.602098
697.533210	2732.404196
699.829655	2727.697902
702.127516	2724.353846
704.424793	2722.211888
706.721487	2724.804895
709.013605	2720.821678
711.309134	2723.678322
713.600090	2719.211888
715.892460	2717.498601
718.182254	2720.580420
720.471468	2718.674126
722.760103	2719.809091
725.046166	2719.432867
727.333642	2716.109790
729.618547	2719.090210
731.902875	2718.662937
734.184634	2719.790909
736.467807	2718.409091
738.750403	2725.248252
741.028444	2725.088811
743.307898	2727.022378
745.586777	2726.820979
747.865080	2726.739161
750.138834	2725.244056
752.414002	2724.417483
754.688596	2716.058042
756.960630	2705.361538
759.234078	2691.319580
761.504968	2683.809091
763.773302	2676.749650
766.043049	2678.079720
768.310242	2675.041958
770.576864	2675.754545
772.842916	2674.107692
775.106417	2677.511189
777.371331	2680.348951
779.635675	2682.089510
781.895490	2680.967133
784.156717	2681.801399
786.417377	2678.138462
788.675491	2675.090210
790.931060	2677.023776
793.190020	2683.785315
795.442481	2680.704196
797.700309	2674.644755
799.953617	2664.386713
802.204386	2654.993706
804.456567	2653.033566
806.706210	2647.639161
808.957264	2652.156643
811.203807	2652.260140
813.451762	2650.181119
815.697183	2653.360140
817.944015	2659.655245
820.190286	2656.400699
822.432053	2649.924476
824.677202	2641.481818
826.915879	2634.651748
829.157938	2626.594406
831.395499	2627.900699
833.634472	2619.119580
835.870918	2620.285315
838.108775	2618.454545
840.344107	2615.267133
842.576916	2615.220280
844.811136	2612.251748
847.042834	2607.937063
849.273976	2607.121678
851.504565	2604.376224
853.734598	2603.239161
855.964078	2603.202098
858.189076	2603.445455
860.417449	2609.402797
862.641343	2612.456643
864.866647	2608.406294
867.087476	2601.705594
869.311677	2608.423776
871.531405	2606.318182
873.752544	2610.130070
875.973132	2608.582517
878.191210	2607.685315
880.410698	2609.572727
882.625720	2608.374126
884.840195	2600.997203
887.054121	2604.774825
889.267501	2597.300000
891.480333	2586.571329
893.692619	2580.976224
895.902402	2584.841958
898.111640	2580.936364
900.320333	2588.475524
902.526527	2584.686713
904.734130	2586.034266
906.939235	2583.144755
909.143797	2580.634965
911.345864	2568.230769
913.549340	2568.993007
915.750322	2566.604895
917.950763	2555.667832
920.152611	2540.177622
922.348069	2534.915385
924.546886	2530.520979
926.741264	2527.753147
928.939000	2525.757343
931.132300	2526.806993
933.327009	2528.331469
935.519232	2539.856643
937.710917	2540.213986
939.902064	2554.330769
942.090728	2560.086713
944.278855	2563.586713
946.464502	2564.791608
948.653501	2572.216783
950.838077	2572.197203
953.022118	2571.833566
955.209509	2574.397902
957.388596	2573.709091
959.571034	2569.997902
961.752938	2576.739161
963.932368	2570.988112
966.109324	2570.625874
968.287689	2568.071329
970.467461	2568.892308
972.640884	2572.250350
974.817653	2573.734965
976.990015	2571.152448
979.163785	2571.611888
981.333151	2574.284615
983.505861	2581.506294
985.676106	2582.802797
987.845822	2585.295804
990.015009	2577.318182
992.179799	2577.686014
994.347930	2574.686014
996.511667	2573.556643
998.676810	2573.217483
1000.839495	2576.355245
1003.001653	2576.860839
1005.161355	2579.278322
1007.320533	2577.066434
1009.481117	2582.413986
1011.639246	2574.902797
1013.796851	2566.855944
1015.953933	2555.241259
1018.110492	2554.460839
1020.262671	2545.007692
1022.416256	2538.802098
1024.569320	2532.604196
1026.719936	2536.246853
1028.871957	2539.454545
1031.019605	2535.495105
1033.170585	2529.768531
1035.317194	2532.953846
1037.463285	2529.623077
1039.608856	2527.470629
1041.755833	2522.191608
1043.896521	2526.520979
1046.040539	2519.002797
1048.182116	2519.225874
1050.323177	2520.564336
1052.465642	2524.449650
1054.601828	2530.712587
1056.741340	2526.081818
1058.876496	2528.182517
1061.014977	2532.189510
1063.149104	2523.414685
1065.282718	2521.648951
1067.417737	2529.930769
1069.548406	2532.013986
1071.680480	2526.326573
1073.810125	2526.972028
1075.939258	2528.312587
1078.067879	2527.616783
1080.195989	2526.797203
1082.321673	2524.755245
1084.446847	2528.160140
1086.573425	2525.514685
1088.695666	2518.265734
1090.819310	2527.506294
1092.938621	2539.586713
1095.063160	2538.153147
1097.181454	2533.005594
1099.301153	2533.961538
1101.418433	2538.616783
1103.535207	2537.600000
1105.651474	2535.903497
1107.765326	2534.934266
1109.880581	2537.026573
1111.991513	2533.638462
1114.105758	2529.218182
1116.215682	2532.330769
1118.327010	2534.849650
1120.437833	2525.488811
1122.544340	2512.670629
1124.654157	2509.045455
1126.759659	2511.117483
1128.866564	2508.825874
1130.967254	2503.929371
1133.073156	2492.921678
1135.174749	2486.844755
1137.277745	2477.259441
1139.380240	2470.340559
1141.476528	2468.989510
1143.578024	2464.629371
1145.675216	2454.489510
1147.771911	2447.813287
1149.868107	2450.481119
1151.963806	2450.898601
1154.059006	2452.811189
1156.151811	2445.921678
1158.246017	2435.348951
1160.334032	2432.440559
1162.427245	2426.927972
1164.514270	2427.990210
1166.604594	2423.888811
1168.690631	2422.369231
1170.779965	2423.441958
1172.863118	2421.832867
1174.947673	2421.650350
1177.033630	2420.276923
1179.115305	2423.823776
1181.198382	2421.032867
1183.279073	2427.516084
1185.359272	2437.220280
1187.438980	2440.825874
1189.518197	2443.196503
1191.595032	2441.132168
1193.669486	2443.584615
1195.747231	2448.597203
1197.820707	2447.294406
1199.895583	2449.874825
1201.966192	2448.688112
1204.038203	2452.615385
1206.107837	2457.653147
1208.178872	2464.842657
1210.249419	2465.458042
1212.315705	2467.700000
1214.383392	2467.462238
1216.448707	2471.949650
1218.515422	2476.769231
1220.577881	2483.071329
1222.643625	2479.851748
1224.705116	2479.992308
1226.768006	2482.136364
1228.828529	2483.503497
1230.888568	2488.072028
1232.948125	2487.826573
1235.005316	2488.637063
1237.062026	2492.135664
1239.116373	2492.790909
1241.174000	2494.168531
1243.229265	2500.481119
1245.280289	2501.446853
1247.332713	2500.801399
1249.384657	2506.343357
1251.434243	2516.635664
1253.483350	2521.181119
1255.531979	2532.746154
1257.580129	2537.644056
1259.627800	2539.425175
1261.671242	2538.904196
1263.717958	2535.506993
1265.762321	2536.659441
1267.806208	2542.801399
1269.847743	2538.656643
1271.886929	2544.723776
1273.929388	2544.745455
1275.967624	2553.944056
1278.007259	2559.947552
1280.046419	2567.262238
1282.081360	2575.165734
1284.117700	2581.060839
1286.151696	2596.972028
1288.187090	2611.283916
1290.218270	2628.583217
1292.250848	2649.059441
1294.282955	2668.982517
1296.312721	2695.651748
1298.343885	2720.628671
1300.370841	2753.676923
1302.399195	2792.871329
1304.423345	2838.258042
1306.450759	2881.871329
1308.473971	2933.847552
1310.498581	2964.683217
1312.520857	2905.493007
1314.544530	2450.850350
1316.565870	1141.676923
1318.586742	2025.919580
1320.607147	6412.773427
1322.623359	13457.932168
1324.640968	25118.303497
1326.656249	36224.002797
1328.674789	44208.736364
1330.689140	48440.206993
1332.701165	48766.483916
1334.716447	45193.374825
1336.727544	37954.328671
1338.740038	27643.574825
1340.748349	16015.939161
1342.759916	7162.137762
1344.765443	1742.692308
1346.774226	-376.069930
1348.778831	1659.327273
1350.786690	2568.465734
1352.794087	2688.359441
1354.795453	2677.723077
1356.798216	2644.853846
1358.800518	2604.506294
1360.802361	2567.442657
1362.803744	2536.648252
1364.802814	2511.182517
1366.801425	2498.644755
1368.799578	2473.639860
1370.797272	2455.745455
1372.790804	2443.595804
1374.785732	2435.079720
1376.780202	2418.886713
1378.774217	2414.937762
1380.765923	2405.069930
1382.757175	2395.563636
1384.746121	2381.809091
1386.736462	2373.674825
1388.726348	2370.317483
1390.713931	2367.523077
1392.701059	2360.861538
1394.685886	2365.326573
1396.672108	2363.180420
1398.656030	2365.471329
1400.639499	2362.277622
1402.622515	2370.542657
1404.603234	2375.609091
1406.585347	2380.760839
1408.565164	2379.932168
1410.544529	2385.754545
1412.519756	2390.579021
1414.498222	2394.886014
1416.474393	2402.509091
1418.450116	2410.581119
1420.425389	2414.981818
1422.398371	2423.242657
1424.370905	2429.469930
1426.342992	2439.510490
1428.314630	2446.271329
1430.282140	2451.354545
1432.254724	2451.401399
1434.219503	2456.140559
1436.189353	2458.438462
1438.155080	2458.072028
1440.122199	2455.615385
1442.087035	2451.244755
1444.047751	2444.686713
1446.013536	2439.325874
1447.973365	2431.154545
1449.934587	2428.322378
1451.897202	2419.273427
1453.855702	2417.514685
1455.813759	2412.759441
1457.771375	2415.902098
1459.728549	2415.000699
1461.683447	2409.182517
1463.639737	2405.634266
1465.593753	2399.379720
1467.547329	2396.306993
1469.498632	2392.379021
1471.451327	2388.182517
1473.401751	2385.961538
1475.351735	2381.330070
1477.301281	2384.111189
1479.248558	2375.349650
1481.193568	2374.297203
1483.139969	2364.754545
1485.085933	2360.319580
1487.031460	2360.726573
1488.974722	2359.558042
1490.917547	2362.127972
1492.858109	2355.293007
1494.800062	2360.399301
1496.739753	2358.157343
1498.679010	2363.350350
1500.617831	2364.242657
1502.554393	2359.455245
1504.492346	2362.374126
1506.428040	2360.017483
1508.363301	2369.370629
1510.296306	2378.134266
1512.228878	2382.437063
1514.161018	2389.686713
1516.092726	2386.829371
1518.022180	2391.012587
1519.953025	2386.765035
1521.883438	2388.154545
1523.809779	2382.439860
1525.737511	2379.093706
1527.662992	2378.329371
1529.588044	2373.367832
1531.512667	2374.849650
1533.436861	2375.373427
1535.358807	2376.527273
1537.282144	2380.610490
1539.203235	2378.390210
1541.122081	2382.145455
1543.042316	2380.732867
1544.960309	2373.153846
1546.877875	2370.945455
1548.793199	2366.293706
1550.709913	2362.418881
1552.622572	2350.003497
1554.538435	2343.381818
1556.452058	2334.229371
1558.363444	2330.142657
1560.276218	2323.214685
1562.184943	2320.946853
1564.095058	2324.042657
1566.004748	2318.337762
1567.914016	2312.376224
1569.821050	2310.425175
1571.725851	2306.276224
1573.632041	2307.683217
1575.535999	2295.188112
1577.439537	2291.634965
1579.342653	2282.233566
1581.243540	2278.932867
1583.145816	2270.548252
1585.045864	2269.610490
1586.947299	2267.261538
1588.844701	2259.948252
1590.741684	2262.046154
1592.638249	2264.049650
1594.536202	2269.021678
1596.428320	2271.051748
1598.323631	2267.500000
1600.218525	2267.976923
1602.111197	2257.852448
1604.003453	2252.300699
1605.893488	2244.414685
1607.783109	2233.879720
1609.672313	2222.002797
1611.561103	2219.505594
1613.447675	2226.237762
1615.335635	2230.623077
1617.219578	2232.364336
1619.104909	2229.281818
1620.989825	2229.041259
1622.872528	2221.785315
1624.756618	2219.339860
1626.636697	2217.950350
1628.518162	2216.848951
1630.397417	2206.370629
1632.278058	2202.417483
1634.152895	2201.567133
1636.032714	2201.894406
1637.908527	2203.857343
1639.783930	2201.510490
1641.660719	2197.812587
1643.531712	2195.927972
1645.405886	2196.607692
1647.276062	2195.825175
1649.149418	2201.803497
1651.020571	2201.089510
1652.889522	2201.213986
1654.759859	2204.878322
1656.626202	2191.453846
1658.493931	2180.100699
1660.359461	2178.070629
1662.226377	2168.872727
1664.089304	2169.286713
1665.953616	2169.104196
1667.815732	2171.009790
1669.677444	2168.272028
1671.540540	2175.995804
1673.401442	2173.117483
1675.260150	2178.347552
1677.118455	2177.500000
1678.978145	2166.277622
1680.832068	2156.032867
1682.689163	2159.880420
1684.545856	2157.031469
1686.398573	2163.576923
1688.254460	2160.290909
1690.106374	2159.939860
1691.957887	2158.933566
1693.808999	2160.853147
1695.659711	2159.046853
1697.510022	2159.206294
1699.358148	2157.177622
1701.207659	2147.832867
1703.051421	2135.505594
1704.900132	2138.260140
1706.743098	2129.500699
1708.589229	2122.433566
1710.431399	2118.702797
1712.276733	2120.459441
1714.116327	2128.896503
1715.957305	2138.633566
1717.799666	2142.600699
1719.638071	2144.168531
1721.477859	2142.657343
1723.315472	2138.795804
1725.152689	2133.293706
1726.987733	2128.130070
1728.824160	2115.995105
1730.658415	2110.072028
1732.492275	2105.560839
1734.325742	2099.714685
1736.155262	2105.486014
1737.987941	2101.376224
1739.816676	2099.643357
1741.648568	2092.016783
1743.476519	2088.892308
1745.304077	2086.583217
1747.131243	2078.306993
1748.958018	2076.656643
1750.784402	2079.515385
1752.606848	2081.621678
1754.432450	2079.991608
1756.254117	2081.287413
1758.077166	2095.651748
1759.898053	2090.811888
1761.718552	2095.146853
1763.540432	2091.568531
1765.356612	2091.926573
1767.175944	2090.117483
1768.991349	2086.360140
1770.809904	2089.741958
1772.624534	2091.770629
1774.438778	2093.624476
1776.252634	2091.331469
1778.066104	2094.227972
1779.877421	2095.282517
1781.690119	2084.659441
1783.502430	2082.134266
1785.310824	2075.868531
1787.120598	2071.732168
1788.926458	2070.500000
1790.735463	2066.432867
1792.540555	2068.932867
1794.347028	2070.599301
1796.153117	2071.121678
1797.955296	2068.196503
1799.760618	2067.960140
1801.562032	2058.908392
1803.364826	2056.134965
1805.163714	2055.853147
1806.963983	2057.836364
1808.763870	2059.504895
1810.561616	2069.349650
1812.358980	2072.264336
1814.155965	2069.770629
1815.952569	2067.253846
1817.747034	2060.451748
1819.542878	2061.348951
1821.333068	2060.225874
1823.128153	2057.316084
1824.917587	2059.546853
1826.710157	2062.433566
1828.500592	2063.232867
1830.288893	2066.589510
1832.080329	2071.297203
1833.866119	2070.328671
1835.653289	2067.053846
1837.438327	2062.832867
1839.226499	2055.261538
1841.010785	2060.901399
1842.792942	2060.467133
1844.576477	2063.174126
1846.357884	2061.916783
1848.140670	2061.933566
1849.919575	2059.960839
1851.699860	2064.899301
1853.478018	2066.216783
1855.257555	2070.313986
1857.034967	2070.688112
1858.810255	2060.287413
1860.586922	2057.587413
1862.361465	2065.109091
1864.137387	2064.270629
1865.907688	2068.515385
1867.681117	2069.431469
1869.452426	2071.894406
1871.223365	2071.116783
1872.995680	2079.937762
1874.762382	2082.815385
1876.532210	2085.953846
1878.298174	2086.942657
1880.067262	2080.211189
1881.832488	2080.021678
1883.597345	2081.493007
1885.363580	2078.120280
1887.125956	2074.183916
1888.887965	2073.199301
1890.649606	2069.900000
1892.410881	2072.893007
1894.171788	2077.446853
1895.932329	2080.997203
1897.690760	2081.951748
1899.448826	2083.277622
1901.204783	2083.437762
1902.962117	2079.737063
1904.719086	2082.863636
1906.473949	2086.655245
1908.226706	2084.581818
1909.979100	2083.606993
1911.732869	2083.471329
1913.484535	2089.490210
1915.234099	2088.651049
1916.985038	2096.368531
1918.735615	2095.745455
1920.482352	2096.242657
1922.230466	2095.877622
1923.976480	2092.602797
1925.723870	2098.725874
1927.469161	2105.492308
1929.212355	2100.988112
1930.956924	2100.176224
1932.699398	2097.513287
1934.441511	2105.912587
1936.183264	2114.487413
1937.924658	2127.702098
1939.663957	2135.572727
1941.402898	2148.101399
1943.141481	2150.196503
1944.877971	2158.484615
1946.614104	2160.325175
1948.351611	2161.416084
1950.085296	2155.006993
1951.820356	2156.368531
1953.553328	2147.372028
1955.285942	2150.396503
1957.018201	2151.765035
1958.750103	2153.822378
1960.479919	2159.890909
1962.207650	2163.247552
1963.936756	2162.523776
1965.665507	2167.396503
1967.392174	2166.123776
1969.118487	2169.411189
1970.846173	2170.134266
1972.568323	2172.068531
1974.293574	2172.766434
1976.015019	2173.987413
1977.739563	2175.516783
1979.462028	2173.079021
1981.180689	2172.400000
1982.902449	2171.839860
1984.620407	2178.162937
1986.339738	2180.458042
1988.055270	2185.657343
1989.775622	2190.279021
1991.492176	2192.279720
1993.204933	2197.627972
1994.920787	2200.900699
1996.634567	2202.904196
1998.347998	2206.438462
2000.059358	2208.334965
2001.772090	2213.379720
2003.481032	2217.595105
2005.193067	2220.139161
2006.899592	2225.708392
2008.609210	2223.600699
2010.316760	2226.242657
2012.023963	2226.184615
2013.729100	2230.078322
2015.433890	2228.203497
2017.140052	2232.009091
2018.842432	2236.422378
2020.546184	2241.786014
2022.247872	2241.630769
2023.949216	2244.136364
2025.650214	2240.434266
2027.349151	2242.551049
2029.049460	2242.809091
2030.745994	2251.506294
2032.443899	2249.196503
2034.139745	2251.206294
2035.838677	2252.537762
2037.532123	2249.010490
2039.226940	2252.798601
2040.921415	2253.400000
2042.612121	2251.425175
2044.305911	2257.068531
2045.995934	2254.317483
2047.687328	2256.313287
2049.376669	2259.151748
2051.067380	2258.525175
2052.754328	2251.236364
2054.440937	2244.785315
2056.128916	2244.191608
2057.813135	2228.509790
2059.498724	2231.070629
2061.183974	2222.217483
2062.867176	2218.961538
2064.551747	2215.580420
2066.230856	2211.966434
2067.914750	2213.153147
2069.593184	2215.732168
2071.274694	2222.615385
2072.952454	2223.979720
2074.629876	2224.560839
2076.308668	2233.748951
2077.985418	2233.652448
2079.660126	2244.227273
2081.336203	2242.187413
2083.010240	2241.321678
2084.683941	2234.587413
2086.357307	2232.379720
2088.028635	2234.620280
2089.699628	2233.034965
2091.370287	2233.044755
2093.040611	2227.238462
2094.710602	2226.079021
2096.378557	2234.696503
2098.046179	2237.497203
2099.711766	2241.386014
2101.378723	2247.579720
2103.043645	2250.734965
2104.708236	2253.402797
2106.370795	2258.937762
2108.034722	2266.739860
2109.696619	2268.847552
2111.358184	2277.908392
2113.019418	2281.176923
2114.678624	2286.078322
2116.337499	2288.123776
2117.996045	2286.844056
2119.654261	2290.501399
2121.308753	2293.602098
2122.966310	2294.597902
2124.623538	2292.932168
2126.277044	2290.883916
2127.931918	2290.479021
2129.583074	2287.988811
2131.237291	2289.035664
2132.887792	2281.558042
2134.539659	2275.040559
2136.186118	2271.255245
2137.837332	2273.972727
2139.484832	2277.909091
2141.133699	2275.339860
2142.780548	2279.132867
2144.427070	2282.069231
2146.073267	2284.025175
2147.715756	2284.848951
2149.361303	2285.231469
2151.003143	2287.265734
2152.648040	2289.002797
2154.289232	2289.974825
2155.930100	2297.816084
2157.570644	2298.425175
2159.209176	2294.580420
2160.849074	2289.739860
2162.485272	2289.491608
2164.122837	2283.183217
2165.760078	2272.716783
2167.395310	2267.751748
2169.030221	2267.242657
2170.664810	2272.623776
2172.299077	2272.432168
2173.929651	2274.747552
2175.563277	2283.278322
2177.193211	2285.645455
2178.824510	2289.239860
2180.453804	2289.761538
2182.082779	2288.876923
2183.711434	2288.716084
2185.339770	2286.678322
2186.966104	2289.541259
2188.592119	2293.613986
2190.216133	2293.585315
2191.841511	2291.437063
2193.464890	2288.345455
2195.089632	2287.552448
2196.710694	2283.160140
2198.331439	2279.509790
2199.953549	2268.897902
2201.573661	2264.564336
2203.191776	2267.219580
2204.809576	2266.427273
2206.427061	2266.817483
2208.044230	2271.768531
2209.661084	2276.447552
2211.277623	2282.924476
2212.892168	2281.628671
2214.504721	2284.153846
2216.118638	2285.133566
2217.730564	2286.712587
2219.343853	2288.178322
2220.955152	2289.797902
2222.564461	2290.704895
2224.175134	2293.139860
2225.783818	2296.161538
2227.392190	2302.934965
2228.998574	2311.934266
2230.606322	2321.553147
2232.212083	2328.640559
2233.817533	2334.053846
2235.420998	2341.496503
2237.025826	2345.641958
2238.628670	2350.667832
2240.229532	2352.237063
2241.831755	2351.847552
2243.431997	2356.266434
2245.033601	2356.660839
2246.631553	2357.322378
2248.230867	2360.802797
2249.828201	2366.653147
2251.425226	2372.449650
2253.023614	2382.255944
2254.618353	2385.044056
2256.211115	2387.759441
2257.805240	2391.122378
2259.400726	2393.376923
2260.992568	2391.832168
2262.584103	2389.298601
2264.176999	2382.205594
2265.764586	2377.440559
2267.356870	2370.202098
2268.943846	2364.583916
2270.533851	2366.428671
2272.118551	2369.142657
2273.707944	2364.613986
2275.292036	2362.690210
2276.877489	2358.215385
2278.460972	2360.956643
2280.047482	2365.777622
2281.630358	2367.119580
2283.212930	2368.774476
2284.795199	2370.148951
2286.373839	2363.124825
2287.955502	2360.587413
2289.533537	2367.298951
2291.114595	2369.204895
2292.692026	2365.043007
2294.267494	2358.758042
2295.845984	2355.780769
2297.420850	2358.411189
2298.995415	2357.210839
2300.569680	2356.450350
2302.143644	2352.905245
2303.717308	2345.265035
2305.290671	2336.279021
2306.860416	2338.086014
2308.429862	2343.266434
2310.002326	2344.416783
2311.569516	2341.605594
2313.139724	2343.513287
2314.706317	2348.814685
2316.274270	2353.589510
2317.840267	2355.379720
2319.405967	2362.860839
2320.971370	2365.185315
2322.534818	2369.396503
2324.099626	2383.064336
2325.660826	2394.221678
2327.225040	2404.515385
2328.783992	2412.779720
2330.345959	2418.725175
2331.905975	2423.939161
2333.465695	2430.872028
2335.023466	2430.186014
2336.580942	2428.629371
2338.138124	2430.855944
2339.693358	2431.589510
2341.248299	2430.616084
2342.802946	2438.165035
2344.357299	2437.209091
2345.911358	2442.702797
2347.465123	2440.693007
2349.016945	2446.644056
2350.566823	2446.277622
2352.119709	2448.585315
2353.667353	2447.316084
2355.218004	2449.437762
2356.765064	2451.717483
2358.313483	2451.258042
2359.861609	2449.020979
2361.406147	2454.039161
2362.952043	2453.013287
2364.496001	2453.523077
2366.041316	2447.931469
2367.583046	2454.579021
2369.126133	2458.790909
2370.667285	2463.449650
2372.208147	2469.582517
2373.748719	2477.954545
2375.289003	2483.831469
2376.828998	2484.465734
2378.365415	2488.826573
2379.904833	2491.251748
2381.440674	2493.196503
2382.977871	2489.488112
2384.511493	2486.476923
2386.048116	2486.953846
2387.582807	2488.684615
2389.115569	2486.985315
2390.648044	2493.644056
2392.178591	2499.453846
2393.712136	2496.727273
2395.240470	2503.874126
2396.770161	2512.636364
2398.299566	2519.932867
2399.828685	2532.288112
2401.357520	2533.597902
2402.881149	2539.955944
2404.409415	2547.705594
2405.932477	2556.134965
2407.460173	2563.861538
2408.981030	2568.156643
2410.506520	2571.906993
2412.028449	2576.518182
2413.551734	2581.362937
2415.073098	2579.067832
2416.592542	2580.682517
2418.113341	2585.279720
2419.632221	2586.302797
2421.150819	2582.546154
2422.667500	2586.500000
2424.185535	2596.666434
2425.703289	2604.657343
2427.217492	2604.116783
2428.731414	2605.912587
2430.245056	2606.273427
2431.760053	2605.314685
2433.271501	2602.180420
2434.784304	2607.723776
2436.295193	2609.886014
2437.805804	2614.041259
2439.314503	2609.872727
2440.826188	2623.357343
2442.334330	2640.611888
2443.842194	2648.760839
2445.349780	2647.762937
2446.853825	2647.498601
2448.360856	2658.102098
2449.865978	2666.474825
2451.370823	2669.610490
2452.873760	2676.704895
2454.376422	2679.725175
2455.878807	2685.327972
2457.379287	2684.373427
2458.881120	2690.693007
2460.381049	2691.065734
2461.880702	2693.573427
2463.380079	2689.213287
2464.877554	2690.014685
2466.373127	2696.227273
2467.871680	2696.593007
2469.366705	2699.874825
2470.863082	2702.511189
2472.355933	2701.265035
2473.850137	2703.478322
2475.344067	2700.009790
2476.834473	2703.362238
2478.327857	2706.306294
2479.819343	2712.615385
2481.308932	2713.820979
2482.798249	2719.976224
2484.285671	2724.869930
2485.776068	2731.113287
2487.262946	2735.591608
2488.751176	2743.047552
2490.235890	2740.254545
2491.720333	2745.380420
2493.206128	2740.960140
2494.690030	2740.713287
2496.175284	2741.408392
2497.655403	2735.760140
2499.138496	2734.067832
2500.619698	2730.554545
2502.100631	2724.830769
2503.579675	2715.882517
2505.058450	2710.277622
2506.536957	2706.119580
2508.015196	2705.126573
2509.493166	2698.965734
2510.967632	2693.800000
2512.445066	2692.711888
2513.918997	2686.026573
2515.394278	2679.566434
2516.869293	2676.448951
2518.340806	2670.027972
2519.813669	2660.808392
2521.284650	2655.583217
2522.756981	2655.790210
2524.224199	2658.739860
2525.694382	2664.543357
2527.162685	2659.279720
2528.630723	2664.337063
2530.098496	2659.292308
2531.566004	2654.680420
2533.033247	2656.023077
2534.496998	2654.653846
2535.962099	2653.666434
2537.425323	2651.107692
2538.889897	2657.441259
2540.350981	2660.525175
2541.813415	2668.545455
2543.275586	2666.686014
2544.734271	2670.025874
2546.197528	2670.887413
2547.655688	2664.166434
2549.115197	2659.440559
2550.569613	2654.910490
2552.028598	2652.184615
2553.485712	2650.671329
2554.940955	2646.088112
2556.395937	2651.518881
2557.849049	2654.469231
2559.303510	2660.816783
2560.756102	2659.415385
2562.208434	2664.923776
2563.658898	2667.427273
2565.112318	2673.585315
2566.560656	2674.851049
2568.011950	2690.065734
2569.461377	2697.550350
2570.907332	2702.808392
2572.356242	2708.902098
2573.801682	2716.160839
2575.248470	2710.832168
2576.693394	2708.401399
2578.138060	2705.613287
2579.584075	2709.270629
2581.026622	2707.802098
2582.470517	2707.505594
2583.910947	2708.201399
2585.352724	2717.555245
2586.792642	2710.131469
2588.233907	2716.296503
2589.671711	2725.446853
2591.112464	2718.097902
2592.548154	2715.850350
2593.986794	2721.825175
2595.423576	2725.494406
2596.858503	2733.806294
2598.296377	2734.707692
2599.729194	2731.460839
2601.163358	2732.353846
2602.595668	2734.493007
2604.029324	2732.216783
2605.461127	2739.599301
2606.892676	2740.183217
2608.323973	2734.780420
2609.753417	2741.546154
2611.182609	2742.679021
2612.609951	2741.027273
2614.038638	2746.935664
2615.467074	2750.863636
2616.892062	2749.472028
2618.318397	2754.318182
2619.742883	2766.823776
2621.168715	2762.146154
2622.591103	2767.285315
2624.014837	2767.130070
2625.436724	2765.978322
2626.858362	2769.234266
2628.278154	2767.704196
2629.699292	2770.801399
2631.120180	2769.552448
2632.537630	2771.304196
2633.958019	2772.312587
2635.374971	2779.424476
2636.791674	2787.430070
2638.208130	2786.423077
2639.624336	2795.162238
2641.040295	2799.174825
2642.454413	2801.961538
2643.868284	2805.393706
2645.280315	2801.225874
2646.693691	2794.714685
2648.103637	2793.794406
2649.516518	2791.557343
2650.925971	2789.943357
2652.335178	2793.602797
2653.742549	2797.803497
2655.152855	2805.395804
2656.561324	2807.892308
2657.967958	2818.614685
2659.374347	2825.663636
2660.778902	2827.251049
2662.184801	2829.100000
2663.588867	2836.139860
2664.992688	2853.206294
2666.396266	2852.192308
2667.798011	2851.846154
2669.201100	2847.469930
2670.600771	2835.154545
2672.001786	2829.396503
2673.399385	2811.558042
2674.799914	2804.646853
2676.197028	2799.748951
2677.595485	2790.228671
2678.992114	2786.547552
2680.388501	2789.433566
2681.784647	2793.929371
2683.178966	2793.241958
2684.574628	2789.805594
2685.966880	2788.821678
2687.360475	2791.334266
2688.752247	2789.818182
2690.145360	2787.653846
2691.536650	2791.031469
2692.926117	2792.661538
2694.315344	2779.519580
2695.704332	2779.755245
2697.094662	2774.265734
2698.480007	2772.977622
2699.868276	2769.688811
2701.254725	2767.488112
2702.640935	2770.879021
2704.026907	2770.104895
2705.409479	2760.600000
2706.793394	2770.321678
2708.177071	2770.700000
2709.560510	2777.813986
2710.940553	2778.290210
2712.321938	2793.352448
2713.701507	2794.624476
2715.082418	2800.462937
2716.461513	2807.068531
2717.838795	2813.935664
2719.217418	2822.565035
2720.594228	2820.825175
2721.970802	2831.011888
2723.347140	2840.132867
2724.721666	2847.234965
2726.097533	2859.311189
2727.470013	2864.972028
2728.845409	2870.315385
2730.215845	2872.367133
2731.587622	2871.829371
2732.959164	2873.402098
2734.328898	2876.487413
2735.699973	2880.300699
2737.069239	2877.127972
2738.438273	2878.155944
2739.805499	2883.566434
2741.172493	2887.484615
2742.539254	2890.397902
2743.905782	2893.653846
2745.270505	2897.989510
2746.634997	2907.437762
2747.999256	2917.480420
2749.363283	2923.601399
2750.727079	2929.124476
2752.087501	2937.059441
2753.450834	2940.044755
2754.809224	2944.395804
2756.170524	2953.012587
2757.528453	2951.004196
2758.889291	2948.388112
2760.248330	2947.110490
2761.604000	2939.784615
2762.962578	2935.960839
2764.317789	2931.613986
2765.672772	2927.206993
2767.025957	2925.756643
2768.382049	2925.100699
2769.734777	2928.816783
2771.087276	2935.758042
2772.439547	2940.622378
2773.793157	2946.414685
2775.143405	2950.731469
2776.491860	2959.045455
2777.843219	2963.152448
2779.191219	2969.385315
2780.540557	2973.258741
2781.888104	2974.924476
2783.235423	2978.065734
2784.582516	2967.271329
2785.927818	2968.434266
2787.272894	2973.293706
2788.617743	2974.617483
2789.962367	2980.876923
2791.303639	2984.692308
2792.646249	2994.106993
2793.988633	3008.082517
2795.330793	3018.230769
2796.669603	3026.647552
2798.011312	3031.854545
2799.349674	3044.738462
2800.689373	3039.362238
2802.027286	3050.721678
2803.363415	3054.795105
2804.699320	3056.118881
2806.036563	3072.287413
2807.372022	3074.502797
2808.707258	3077.895804
2810.040711	3086.014685
2811.375502	3095.165035
2812.706951	3104.283217
2814.041296	3109.402797
2815.370743	3116.983916
2816.701527	3118.923077
2818.032089	3126.932168
2819.360872	3129.709790
2820.690991	3141.183217
2822.019332	3154.295105
2823.347452	3150.443357
2824.673794	3146.180420
2826.001473	3151.722378
2827.325818	3151.816783
2828.651500	3151.163636
2829.975406	3143.493706
2831.299093	3143.160839
2832.624115	3148.277622
2833.945807	3153.871329
2835.267281	3155.918182
2836.588536	3156.994406
2837.909572	3155.407692
2839.228836	3148.739860
2840.549435	3146.410490
2841.868262	3145.114685
2843.186871	3136.423077
2844.503709	3136.230070
2845.820330	3129.206294
2847.136734	3133.778322
2848.451368	3141.083916
2849.767338	3144.248951
2851.079987	3145.971329
2852.393972	3148.772727
2853.707739	3149.937063
2855.021291	3151.761538
2856.333075	3161.478322
2857.643093	3164.830769
2858.954446	3168.428671
2860.262484	3180.689510
2861.571857	3184.589510
2862.881014	3194.530070
2864.189956	3203.597902
2865.497134	3211.712587
2866.802550	3215.865035
2868.109300	3219.621678
2869.414287	3215.701399
2870.719061	3217.964336
2872.022073	3225.667832
2873.327967	3222.338462
2874.629005	3226.811888
2875.931378	3242.706294
2877.231991	3244.294406
2878.533938	3245.151748
2879.835672	3252.485315
2881.134101	3249.623077
2882.433865	3244.461538
2883.731870	3244.829371
2885.029664	3233.014685
2886.325702	3231.078322
2887.623073	3230.026573
2888.918688	3224.800000
2890.214092	3228.830070
2891.509285	3235.624476
2892.801181	3235.480420
2894.095953	3240.566434
2895.387428	3247.374126
2896.680236	3242.535664
2897.972834	3247.190210
2899.262138	3257.882517
2900.552774	3255.909091
2901.841659	3262.718182
2903.131877	3264.054545
2904.418802	3265.434266
2905.707061	3262.655245
2906.993569	3261.278322
2908.279870	3262.784615
2909.565962	3255.457343
2910.850306	3241.430070
2912.137521	3242.303497
2913.419910	3241.032168
2914.703631	3238.159441
2915.985606	3234.773427
2917.267373	3236.737762
2918.547396	3238.176923
2919.830288	3240.364336
2921.111435	3238.414685
2922.389300	3238.925175
2923.670034	3238.125874
2924.947487	3231.620280
2926.224734	3227.244755
2927.500240	3233.255245
2928.778613	3226.572028
2930.052171	3225.090210
2931.328597	3229.790210
2932.603282	3231.737762
2933.876227	3239.994406
2935.150502	3241.461538
2936.423038	3242.452448
2937.695370	3240.747552
2938.964428	3239.048252
2940.236352	3236.251748
2941.506538	3227.655944
2942.776521	3224.804895
2944.046300	3219.699301
2945.314342	3220.793706
2946.580649	3224.796503
2947.846753	3225.420280
2949.114187	3233.516084
2950.379887	3236.490909
2951.645384	3239.964336
2952.910679	3238.819580
2954.172709	3235.818881
2955.436070	3232.197902
2956.699228	3220.498601
2957.960655	3216.441259
2959.223411	3217.497203
2960.484436	3214.455245
2961.743729	3215.077622
2963.002823	3221.131469
2964.261716	3232.425175
2965.520409	3239.418881
2966.778902	3249.150350
2968.035666	3247.790909
2969.292230	3251.697203
2970.547067	3252.516084
2971.803232	3249.085315
2973.056143	3250.849650
2974.310383	3256.283916
2975.564424	3251.423077
2976.816739	3255.190909
2978.068856	3264.894406
2979.319247	3266.048951
2980.572494	3274.387413
2981.820964	3282.221678
2983.072289	3283.993007
2984.320364	3295.495804
2985.568243	3304.158042
2986.815924	3311.040559
2988.063409	3312.948252
2989.309171	3313.441958
2990.554738	3314.411888
2991.801632	3316.873427
2993.045282	3315.890909
2994.290260	3316.333566
2995.531994	3314.983916
2996.776580	3316.829371
2998.019447	3320.505594
2999.259073	3326.628671
3000.501549	3327.611189
3001.740786	3333.082517
3002.981350	3334.711189
3004.220197	3338.043357
3005.458850	3340.397902
3006.695787	3350.890210
3007.934051	3357.576923
3009.170601	3370.269930
3010.406956	3370.321678
3011.643118	3378.112587
3012.877567	3384.648252
3014.111822	3384.179021
3015.345884	3378.628671
3016.578234	3376.272727
3017.808872	3374.178322
3019.042356	3373.134965
3020.274128	3367.346853
3021.504190	3379.048951
3022.734060	3381.781818
3023.962220	3387.397203
3025.191706	3394.795804
3026.419484	3402.745455
3027.647070	3411.004196
3028.875982	3421.291608
3030.100152	3426.958042
3031.327165	3431.506294
3032.550954	3439.130769
3033.776070	3438.545455
3034.999479	3437.288811
3036.222698	3440.726573
3037.444212	3436.595105
3038.668567	3443.441958
3039.888187	3452.477622
3041.109133	3459.707692
3042.329890	3462.274126
3043.548943	3477.095804
3044.769322	3487.709790
3045.986484	3490.843357
3047.204971	3501.935664
3048.421756	3502.652448
3049.638354	3506.779720
3050.854763	3506.895105
3052.067960	3513.004196
3053.283994	3517.819580
3054.496816	3522.234965
3055.712475	3520.534965
3056.923411	3518.637762
3058.135672	3523.672727
3059.347747	3530.879720
3060.559635	3534.530070
3061.769825	3550.245455
3062.979829	3554.601399
3064.189647	3562.772727
3065.397770	3573.472028
3066.605706	3586.738462
3067.811948	3590.362937
3069.019513	3598.422378
3070.225384	3606.531469
3071.431071	3617.894406
3072.636572	3620.702098
3073.840380	3628.695804
3075.045512	3632.306294
3076.248952	3632.553147
3077.450699	3637.332867
3078.652263	3637.539161
3079.853642	3647.059441
3081.054839	3648.132867
3082.254344	3648.979720
3083.453667	3654.601399
3084.654313	3664.181818
3085.853269	3657.458042
3087.049031	3657.539860
3088.247622	3665.793706
3089.443019	3661.711888
3090.639739	3658.463636
3091.833267	3655.342657
3093.029623	3659.251748
3094.224293	3665.278322
3095.415772	3668.916783
3096.611582	3666.812587
3097.802699	3670.299301
3098.995138	3670.693706
3100.184390	3673.313986
3101.376468	3683.645455
3102.566861	3699.802098
3103.754069	3704.221678
3104.942600	3710.526573
3106.132452	3714.415385
3107.319121	3716.116084
3108.505610	3705.453147
3109.691919	3701.080420
3110.879550	3694.890909
3112.064000	3691.773427
3113.246769	3687.874126
3114.432361	3695.083217
3115.616274	3696.525175
3116.798508	3705.796503
3117.980563	3714.711189
3119.162441	3718.808392
3120.344140	3727.544755
3121.524161	3721.509790
3122.702506	3718.920280
3123.883672	3722.846154
3125.061662	3731.137762
3126.239475	3731.986713
3127.417111	3726.295804
3128.593072	3728.997902
3129.768856	3731.158042
3130.945962	3734.225175
3132.121393	3736.588112
3133.295151	3740.224476
3134.467237	3751.444056
3135.640643	3755.930769
3136.813874	3764.206993
3137.985432	3771.811189
3139.158311	3784.227273
3140.328024	3790.202098
3141.499056	3784.700000
3142.668419	3787.237063
3143.836112	3794.204196
3145.006620	3785.118182
3146.172469	3788.300699
3147.342628	3792.165035
3148.508129	3800.928671
3149.673457	3803.561538
3150.838611	3807.131469
3152.003591	3807.311189
3153.169892	3805.802098
3154.331539	3796.169231
3155.494506	3774.504196
3156.657301	3759.522378
3157.819923	3740.330070
3158.980880	3719.083217
3160.141664	3710.860839
3161.302276	3698.170629
3162.461225	3689.506993
3163.620001	3683.576923
3164.778606	3681.039161
3165.937039	3677.667832
3167.095300	3682.409091
3168.251899	3692.034965
3169.406837	3689.469231
3170.563094	3686.588811
3171.717690	3689.361538
3172.872116	3691.864336
3174.024882	3689.172727
3175.177478	3692.532168
3176.329903	3691.718881
3177.482159	3701.272028
3178.634244	3706.051748
3179.783184	3711.369231
3180.934930	3723.773427
3182.085018	3738.485315
3183.233450	3746.394406
3184.381713	3747.665734
3185.529806	3763.932867
3186.677731	3773.697902
3187.824001	3780.517483
3188.970102	3790.900699
3190.114548	3801.737063
3191.258827	3812.532867
3192.402938	3816.895105
3193.548367	3814.401399
3194.690656	3814.805594
3195.832779	3824.673427
3196.974734	3825.382517
3198.116523	3819.127972
3199.258144	3819.382517
3200.396629	3820.793007
3201.536432	3819.595804
3202.677553	3817.932867
3203.815539	3823.030070
3204.951876	3818.335664
3206.088047	3823.200699
3207.225536	3820.276923
3208.361375	3829.594406
3209.498532	3832.451748
3210.631076	3827.888112
3211.767902	3829.020979
3212.900116	3823.398601
3214.033647	3813.759441
3215.167014	3806.173427
3216.297253	3786.941259
3217.430290	3771.959441
3218.560201	3751.374825
3219.691428	3743.050350
3220.819531	3739.529371
3221.950430	3733.644056
3223.079685	3733.148951
3224.207297	3731.367832
3225.331787	3737.411888
3226.460551	3731.807692
3227.586194	3727.486014
3228.711675	3729.954545
3229.835514	3726.393007
3230.962147	3722.388112
3232.084183	3717.203497
3233.207535	3726.107692
3234.330725	3736.246853
3235.453753	3733.640559
3236.575141	3748.128671
3237.696368	3752.440559
3238.815956	3769.279720
3239.935383	3775.906294
3241.053172	3784.345455
3242.173754	3795.153846
3243.291221	3802.379021
3244.408528	3813.812587
3245.525675	3823.185315
3246.641186	3839.848252
3247.758012	3851.639860
3248.871727	3863.402098
3249.988232	3875.225175
3251.103103	3886.612587
3252.214865	3901.785315
3253.326468	3902.358042
3254.439385	3898.902797
3255.552144	3902.262937
3256.661796	3907.507692
3257.772762	3916.363636
3258.883570	3910.928671
3259.992747	3912.817483
3261.100292	3915.864336
3262.209151	3917.753147
3263.317853	3920.725874
3264.423452	3925.534266
3265.530365	3932.383217
3266.635649	3928.325874
3267.742248	3926.930070
3268.845746	3937.944056
3269.950558	3947.681818
3271.055213	3950.435664
3272.156769	3952.134965
3273.258170	3961.741259
3274.360884	3967.231469
3275.463441	3973.244056
3276.562902	3976.890909
3277.665147	3979.162238
3278.764296	3984.832867
3279.861821	3978.354545
3280.959190	3978.542657
3282.059342	3979.606294
3283.156400	3973.387413
3284.253303	3962.493007
3285.350051	3966.577622
3286.442241	3965.547552
3287.538679	3967.427273
3288.633495	3956.148252
3289.728157	3963.154545
3290.821197	3968.500699
3291.914083	3976.036364
3293.005348	3980.324476
3294.097926	3989.353147
3295.188883	3987.378322
3296.278221	3986.744755
3297.367406	3989.031469
3298.457904	3991.395804
3299.545317	3990.745455
3300.632578	3992.388811
3301.721151	3988.245455
3302.809571	3998.720280
3303.893444	4002.872028
3304.981559	4006.800000
3306.066593	4012.493706
3307.150010	4020.874825
3308.234740	4017.181119
3309.317855	4030.402098
3310.402281	4035.469231
3311.483629	4036.144056
3312.566289	4043.897902
3313.647335	4052.504895
3314.728230	4056.870629
3315.807511	4055.539860
3316.886643	4068.922378
3317.967085	4071.562937
3319.044454	4076.680420
3320.123133	4081.094406
3321.200202	4075.400000
3322.277120	4074.511189
3323.352427	4068.578322
3324.427585	4063.381119
3325.504054	4054.888811
3326.577453	4055.730070
3327.650703	4059.474825
3328.725263	4064.325175
3329.798215	4082.113287
3330.869558	4092.174825
3331.942213	4107.797902
3333.011800	4113.688811
3334.082698	4118.871329
3335.151989	4107.666434
3336.222591	4108.400699
3337.291586	4100.164336
3338.358975	4090.477622
3339.424759	4085.151049
3340.494769	4080.032867
3341.561716	4073.426573
3342.625601	4063.778322
3343.692254	4064.654545
3344.757302	4061.880420
3345.820747	4055.244755
3346.884046	4053.955245
3347.947198	4048.960140
3349.010204	4058.106294
3350.073064	4065.388112
3351.134322	4072.458741
3352.192523	4076.131469
3353.254945	4082.166434
3354.314310	4089.816084
3355.373530	4088.019580
3356.434060	4104.129371
3357.490080	4114.973427
3358.548865	4122.276923
3359.603142	4133.296503
3360.660182	4140.504196
3361.715625	4146.331469
3362.772376	4158.326573
3363.827529	4162.201399
3364.881086	4168.053846
3365.933045	4174.614685
3366.987766	4179.320979
3368.039438	4174.189510
3369.090967	4190.371329
3370.143804	4197.374825
3371.193594	4197.358042
3372.244693	4213.461538
3373.292746	4221.101399
3374.343559	4225.525175
3375.391326	4229.139860
3376.438951	4233.200699
3377.486433	4240.827273
3378.532323	4243.843357
3379.579521	4235.269231
3380.623677	4238.028671
3381.670591	4244.120280
3382.715913	4235.606294
3383.758194	4241.688811
3384.800335	4257.393007
3385.843783	4262.968531
3386.887091	4258.779720
3387.928808	4259.602098
3388.970384	4263.945455
3390.011820	4267.947552
3391.051666	4269.460140
3392.089924	4259.590210
3393.129491	4272.848252
3394.168916	4272.178322
3395.206754	4271.920979
3396.243005	4277.079021
3397.279117	4285.266434
3398.316536	4292.078322
3399.350922	4293.615385
3400.386615	4302.611189
3401.422169	4306.633566
3402.454692	4325.412587
3403.489968	4332.567832
3404.522213	4335.191608
3405.554320	4351.774825
3406.584843	4353.311888
3407.616673	4358.881119
3408.648365	4361.058741
3409.677030	4365.746853
3410.705556	4373.248252
3411.735390	4370.651049
3412.765085	4374.222378
3413.791755	4375.479021
3414.819732	4391.525874
3415.844684	4394.296503
3416.872386	4407.509790
3417.897065	4412.990909
3418.923050	4418.213986
3419.947455	4432.148252
3420.971724	4435.597902
3421.994414	4440.883217
3423.016968	4441.816084
3424.040828	4439.774825
3425.061668	4432.502098
3426.082373	4427.130669
3427.104383	4423.324426
3428.123375	4422.400500
3429.142232	4425.676024
3430.162394	4434.468132
3431.179540	4450.093956
