-118.077073	125.020330
-115.407473	125.752747
-112.740808	125.735365
-110.074895	125.176224
-107.411914	124.283367
-104.747504	123.264835
-102.086024	122.328671
-99.423114	123.486713
-96.765312	123.816084
-94.106079	122.196503
-91.447596	123.506294
-88.792036	123.250350
-86.135048	126.539161
-83.483157	124.990210
-80.829837	127.587413
-78.179437	127.788811
-75.527607	131.106993
-72.880868	131.259441
-70.232699	131.851049
-67.585274	134.199301
-64.940762	135.959441
-62.294822	135.084615
-59.653963	136.730070
-57.011675	137.902098
-54.372295	139.713986
-51.731487	137.488811
-49.091419	139.829371
-46.456423	140.648951
-43.819999	142.986014
-41.186477	142.698601
-38.551527	144.981119
-35.921642	146.979720
-33.288165	150.216783
-30.659750	150.568531
-28.032069	154.770629
-25.402959	144.390210
-22.778906	100.198601
-20.151264	-50.881818
-17.528675	-350.790909
-14.906818	-514.923776
-12.285691	743.567133
-9.665294	2724.928671
-7.047786	4392.929371
-4.428848	5556.588811
-1.812797	6203.203497
0.802526	6330.897902
3.417122	5942.879720
6.028835	5039.690210
8.641977	3670.402797
11.250085	1938.687413
13.861775	203.231469
16.468434	-817.574126
19.076521	-406.192308
21.683884	90.137762
24.286222	174.996503
26.892138	179.303497
29.493032	179.947552
32.095354	181.100699
34.692659	183.007692
37.293539	183.737762
39.889405	188.147552
42.486698	190.126573
45.083272	195.402797
47.674837	193.830070
50.267830	198.184615
52.857962	200.230070
55.449522	201.933566
58.038222	203.964336
60.628349	206.022378
63.213478	209.837762
65.800033	214.608392
68.385875	218.067832
70.968863	221.402797
73.553277	227.486014
76.130563	235.379021
78.711415	234.897902
81.289418	243.381818
83.866711	245.011888
86.445430	249.868531
89.019168	254.637063
91.594332	261.453846
94.166653	271.890909
96.738266	285.908392
99.307039	299.825175
101.877239	319.273427
104.444601	344.854545
107.013388	370.484615
109.579339	405.932168
112.142455	462.069930
114.709127	529.600699
117.266578	652.677622
119.829714	862.771329
122.387891	1251.809091
124.949621	1961.830070
127.506395	3184.379021
130.064596	5168.382517
132.617844	7986.722378
135.170393	11686.234965
137.726493	16027.259441
140.277646	20744.165734
142.828100	25502.276923
145.377857	29936.491608
147.924796	33657.191608
150.471038	36529.879720
153.018706	38452.674126
155.565678	39545.357343
158.107715	40019.701399
160.649058	40138.399301
163.189708	40059.308392
165.731784	39954.342657
168.271048	39882.106294
170.807504	39843.204196
173.343268	39846.246154
175.880458	39852.726573
178.416957	39814.386014
180.950650	39831.225175
183.481540	39796.548951
186.011741	39773.317483
188.543367	39758.834965
191.072192	39725.016783
193.598218	39699.257343
196.123558	39660.956643
198.650324	39665.472727
201.174292	39596.869930
203.697576	39512.244056
206.220175	39402.481119
208.739981	39300.750350
211.259104	39232.627273
213.777544	39120.604895
216.297408	39069.725175
218.810271	39037.451748
221.326665	39023.947552
223.842377	39055.739161
226.353199	39089.978322
228.865447	39150.549650
231.374911	39150.300000
233.883697	39163.241958
236.391805	39163.176224
238.901336	39182.420979
241.405987	39227.281119
243.909962	39232.748252
246.415362	39293.604895
248.915886	39297.772028
251.419933	39289.538462
253.917010	39285.655944
256.417609	39254.630769
258.915437	39200.620280
261.412592	39087.885315
263.909074	39018.399301
266.400693	38935.467133
268.895832	38805.455245
271.388205	38685.275524
273.879907	38560.455245
276.368845	38438.216783
278.859208	38282.514685
281.346808	38163.171329
283.831649	38040.118182
286.320005	37925.359441
288.801421	37842.520979
291.286351	37814.580420
293.766436	37807.943357
296.250033	37798.123077
298.728787	37743.436364
301.208965	37694.927972
303.686390	37604.665734
306.163152	37483.864336
308.639251	37363.062238
311.112601	37291.013986
313.585289	37193.870629
316.057316	37139.903497
318.528682	37119.803497
320.997304	37117.378322
323.465266	37116.611888
325.934650	37109.663636
328.399212	37093.265035
330.867278	37093.076224
333.330524	37076.251748
335.793112	37053.015385
338.255044	37037.906993
340.716319	37071.962238
343.174860	37055.436364
345.634823	37035.497203
348.092053	36975.607692
350.548629	36905.553147
353.004551	36817.457343
355.457744	36676.942657
357.912358	36546.909091
360.362171	36450.763636
362.815480	36350.693706
365.263991	36238.735664
367.711851	36149.519580
370.161132	36087.326573
372.605620	36021.646853
375.051530	36008.467133
377.496791	35985.442657
379.939332	35988.188811
382.381226	35959.890909
384.822473	35920.854545
387.261004	35898.002098
389.700957	35877.167133
392.138196	35830.798601
394.572723	35743.562238
397.010738	35694.097902
399.443976	35643.190210
401.878636	35569.827273
404.308522	35555.283217
406.741894	35537.171329
409.170496	35527.585315
411.598457	35521.118182
414.027838	35500.956643
416.452454	35523.573427
418.878492	35539.302098
421.303889	35560.105594
423.728646	35590.604895
426.148645	35658.014685
428.570065	35705.048252
430.988788	35739.797203
433.408932	35829.525175
435.826381	35857.149650
438.245250	35872.165734
440.661426	35891.017483
443.072855	35883.925175
445.487760	35886.853147
447.899975	35873.600699
450.311556	35823.456643
452.722503	35784.518881
455.130764	35718.497203
457.538392	35680.599301
459.945389	35619.274825
462.351753	35562.702098
464.755435	35480.594406
467.158487	35442.919580
469.560909	35398.467832
471.962701	35396.553147
474.361816	35364.937762
476.762350	35350.709790
479.162255	35277.439860
481.557437	35241.160839
483.956086	35158.578322
486.350015	35075.300699
488.743318	34987.196503
491.135995	34903.290210
493.528047	34832.732867
495.921517	34763.876224
498.310276	34707.139161
500.696368	34676.816783
503.083879	34606.114685
505.470768	34579.928671
507.854993	34514.102098
510.240637	34506.502098
512.623618	34471.332168
515.003939	34449.867832
517.385679	34435.865035
519.764760	34435.286713
522.145260	34437.997902
524.523102	34426.230070
526.898289	34420.200000
529.272858	34379.509091
531.648846	34358.275524
534.022180	34314.333566
536.396932	34279.418182
538.766999	34250.718182
541.136450	34213.726573
543.507319	34168.227972
545.873508	34124.787413
548.241115	34086.356643
550.606076	34052.462937
552.970424	34026.377622
555.334160	33992.862238
557.699312	33994.487413
560.059793	33980.921678
562.421692	33940.537063
564.780950	33929.704196
567.137571	33913.913986
569.497636	33898.748951
571.851011	33820.971329
574.207830	33768.493706
576.562013	33701.481119
578.915589	33637.938462
581.268556	33548.852448
583.618892	33473.916783
585.970644	33415.764336
588.315720	33348.756643
590.666260	33287.151748
593.010126	33228.983217
595.359454	33177.141259
597.704134	33151.133566
600.046188	33075.104196
602.389660	33030.226573
604.730509	32968.580420
607.070756	32878.529371
609.408382	32777.473427
611.749443	32707.110490
614.085866	32616.266434
616.423706	32566.264336
618.758929	32483.049650
621.091536	32410.382517
623.425559	32345.986014
625.756969	32330.841259
628.087780	32276.753147
630.417993	32262.911189
632.747608	32275.740559
635.072601	32242.585315
637.403035	32197.360140
639.728847	32187.437063
642.052053	32165.349650
644.376674	32169.055245
646.698690	32122.219580
649.020113	32080.499301
651.338932	32019.638462
653.659167	31966.569231
655.978809	31955.800699
658.295850	31937.746853
660.612299	31930.326573
662.926150	31926.669930
665.241417	31933.018182
667.554087	31945.350350
669.868172	31931.996503
672.177657	31954.773427
674.488558	31925.850350
676.796866	31881.765035
679.104586	31819.605594
681.413721	31741.694406
683.718263	31688.938462
686.022218	31587.786014
688.325588	31513.963636
690.630372	31483.626573
692.930570	31410.491608
695.232182	31344.383217
697.533210	31272.578322
699.829655	31219.895105
702.127516	31169.525874
704.424793	31121.478322
706.721487	31095.486014
709.013605	31054.169930
711.309134	31027.325175
713.600090	31009.486014
715.892460	31023.177622
718.182254	31044.128671
720.471468	31049.383916
722.760103	31083.520280
725.046166	31081.658042
727.333642	31074.915385
729.618547	31099.327273
731.902875	31074.095804
734.184634	31058.415385
736.467807	31049.260140
738.750403	31029.651049
741.028444	31026.720280
743.307898	31030.476224
745.586777	31011.367832
747.865080	30998.582517
750.138834	30997.548951
752.414002	30967.436364
754.688596	30943.116783
756.960630	30920.239860
759.234078	30843.259441
761.504968	30822.593706
763.773302	30800.427972
766.043049	30757.323776
768.310242	30717.512587
770.576864	30668.151049
772.842916	30615.071329
775.106417	30569.709790
777.371331	30551.850350
779.635675	30533.640559
781.895490	30529.902098
784.156717	30542.274825
786.417377	30499.787413
788.675491	30498.437762
790.931060	30476.448951
793.190020	30425.603497
795.442481	30386.895804
797.700309	30337.493007
799.953617	30276.000000
802.204386	30188.640559
804.456567	30162.991608
806.706210	30117.791608
808.957264	30082.126573
811.203807	30061.138462
813.451762	30020.813287
815.697183	30004.075524
817.944015	29993.854545
820.190286	29959.493706
822.432053	29976.086014
824.677202	29962.909091
826.915879	29933.425175
829.157938	29854.418182
831.395499	29837.965734
833.634472	29786.693007
835.870918	29732.053147
838.108775	29693.760839
840.344107	29649.774126
842.576916	29625.880420
844.811136	29630.334965
847.042834	29639.276224
849.273976	29681.877622
851.504565	29692.765734
853.734598	29695.894406
855.964078	29713.833566
858.189076	29765.169930
860.417449	29762.234965
862.641343	29737.845455
864.866647	29718.118182
867.087476	29666.762238
869.311677	29676.838462
871.531405	29668.561538
873.752544	29637.662937
875.973132	29642.219580
878.191210	29624.385315
880.410698	29601.434266
882.625720	29576.581119
884.840195	29558.626573
887.054121	29481.981119
889.267501	29414.257343
891.480333	29356.881818
893.692619	29286.330769
895.902402	29246.464336
898.111640	29162.124476
900.320333	29110.779021
902.526527	29100.681119
904.734130	29072.632867
906.939235	29031.765035
909.143797	28962.564336
911.345864	28938.424476
913.549340	28879.337063
915.750322	28854.591608
917.950763	28830.351049
920.152611	28775.829371
922.348069	28757.511888
924.546886	28717.084615
926.741264	28721.650350
928.939000	28732.971329
931.132300	28739.659441
933.327009	28756.427273
935.519232	28769.597203
937.710917	28793.838462
939.902064	28812.481818
942.090728	28853.184615
944.278855	28853.237762
946.464502	28858.965734
948.653501	28911.256643
950.838077	28920.671329
953.022118	28940.978322
955.209509	28951.275524
957.388596	28969.505594
959.571034	29017.020979
961.752938	29040.471329
963.932368	29062.560140
966.109324	29088.846853
968.287689	29113.678322
970.467461	29080.381818
972.640884	29086.618881
974.817653	29084.928671
976.990015	29063.737762
979.163785	29021.071329
981.333151	28985.560140
983.505861	28969.702797
985.676106	28975.524476
987.845822	28934.820979
990.015009	28939.696503
992.179799	28928.529371
994.347930	28944.102098
996.511667	28930.213287
998.676810	28968.988811
1000.839495	28972.970629
1003.001653	28975.909790
1005.161355	28947.120979
1007.320533	28877.972727
1009.481117	28821.125874
1011.639246	28748.531469
1013.796851	28636.666434
1015.953933	28552.496503
1018.110492	28433.009091
1020.262671	28412.173427
1022.416256	28384.657343
1024.569320	28393.506993
1026.719936	28393.460839
1028.871957	28409.086014
1031.019605	28411.587413
1033.170585	28396.145455
1035.317194	28378.893007
1037.463285	28347.168531
1039.608856	28304.879021
1041.755833	28258.011189
1043.896521	28238.093007
1046.040539	28278.508392
1048.182116	28279.490909
1050.323177	28298.246154
1052.465642	28310.845455
1054.601828	28329.165734
1056.741340	28339.112587
1058.876496	28335.046853
1061.014977	28300.223776
1063.149104	28294.441958
1065.282718	28296.986713
1067.417737	28295.834266
1069.548406	28326.925874
1071.680480	28351.096503
1073.810125	28357.207692
1075.939258	28374.740559
1078.067879	28358.684615
1080.195989	28374.098601
1082.321673	28393.984615
1084.446847	28385.339161
1086.573425	28371.144755
1088.695666	28380.053846
1090.819310	28411.734266
1092.938621	28415.752448
1095.063160	28422.625175
1097.181454	28450.055245
1099.301153	28442.251748
1101.418433	28425.132168
1103.535207	28380.719580
1105.651474	28389.288112
1107.765326	28376.238462
1109.880581	28348.504196
1111.991513	28292.904895
1114.105758	28273.034266
1116.215682	28282.485315
1118.327010	28268.867832
1120.437833	28263.167832
1122.544340	28261.227273
1124.654157	28194.183916
1126.759659	28146.391608
1128.866564	28079.378322
1130.967254	28027.672727
1133.073156	27923.827972
1135.174749	27863.034266
1137.277745	27737.715385
1139.380240	27666.007692
1141.476528	27585.055245
1143.578024	27522.962937
1145.675216	27441.241958
1147.771911	27385.211888
1149.868107	27310.535664
1151.963806	27282.748252
1154.059006	27237.718881
1156.151811	27176.644755
1158.246017	27105.132867
1160.334032	27082.832168
1162.427245	27023.663636
1164.514270	27009.231469
1166.604594	26968.667832
1168.690631	26955.375524
1170.779965	26905.857343
1172.863118	26912.699301
1174.947673	26897.055944
1177.033630	26902.697203
1179.115305	26884.193007
1181.198382	26879.314685
1183.279073	26895.435664
1185.359272	26954.287413
1187.438980	26984.583217
1189.518197	27049.441958
1191.595032	27088.655245
1193.669486	27115.640559
1195.747231	27167.927972
1197.820707	27189.379021
1199.895583	27212.923776
1201.966192	27224.960839
1204.038203	27227.882517
1206.107837	27250.121678
1208.178872	27260.561538
1210.249419	27300.846853
1212.315705	27300.090210
1214.383392	27334.990210
1216.448707	27365.011888
1218.515422	27401.599301
1220.577881	27440.293007
1222.643625	27430.513986
1224.705116	27454.184615
1226.768006	27470.850350
1228.828529	27483.861538
1230.888568	27486.041259
1232.948125	27504.674126
1235.005316	27526.048252
1237.062026	27531.834965
1239.116373	27561.113287
1241.174000	27623.681818
1243.229265	27675.189510
1245.280289	27714.946154
1247.332713	27743.894406
1249.384657	27775.135664
1251.434243	27819.004895
1253.483350	27830.660839
1255.531979	27825.137762
1257.580129	27825.293007
1259.627800	27810.996503
1261.671242	27807.840559
1263.717958	27806.875524
1265.762321	27841.214685
1267.806208	27870.335664
1269.847743	27893.831469
1271.886929	27921.007692
1273.929388	27972.237063
1275.967624	28035.018881
1278.007259	28087.331469
1280.046419	28154.553147
1282.081360	28226.060839
1284.117700	28341.412587
1286.151696	28468.046154
1288.187090	28595.988112
1290.218270	28765.102797
1292.250848	28934.669930
1294.282955	29098.902797
1296.312721	29333.850350
1298.343885	29586.608392
1300.370841	29878.527972
1302.399195	30240.791608
1304.423345	30681.762238
1306.450759	31164.523776
1308.473971	31786.104196
1310.498581	32860.193007
1312.520857	35438.770629
1314.544530	39168.806993
1316.565870	43609.295804
1318.586742	48360.330070
1320.607147	53061.271329
1322.623359	57307.686713
1324.640968	60814.976224
1326.656249	63341.816084
1328.674789	64721.986014
1330.689140	66159.475524
1332.701165	66170.331469
1334.716447	64835.730070
1336.727544	62764.655944
1338.740038	59470.472028
1340.748349	55144.383916
1342.759916	50157.039161
1344.765443	44853.267832
1346.774226	39632.046154
1348.778831	34951.400000
1350.786690	31274.257343
1352.794087	29051.895804
1354.795453	28800.205594
1356.798216	28345.460839
1358.800518	27925.682517
1360.802361	27563.269930
1362.803744	27242.774126
1364.802814	26969.874825
1366.801425	26755.305594
1368.799578	26551.781119
1370.797272	26382.152448
1372.790804	26237.701399
1374.785732	26109.816084
1376.780202	25999.876923
1378.774217	25895.392308
1380.765923	25815.581119
1382.757175	25744.395804
1384.746121	25706.384615
1386.736462	25645.671329
1388.726348	25580.502098
1390.713931	25519.139161
1392.701059	25490.690909
1394.685886	25499.000000
1396.672108	25498.130769
1398.656030	25530.409790
1400.639499	25535.828671
1402.622515	25539.513986
1404.603234	25536.474126
1406.585347	25515.746853
1408.565164	25544.190909
1410.544529	25548.572727
1412.519756	25523.783217
1414.498222	25561.733566
1416.474393	25609.904895
1418.450116	25669.846154
1420.425389	25734.324476
1422.398371	25812.967832
1424.370905	25824.184615
1426.342992	25871.426573
1428.314630	25896.960140
1430.282140	25949.911189
1432.254724	25979.525874
1434.219503	25974.109790
1436.189353	25966.054545
1438.155080	25975.552448
1440.122199	25955.910490
1442.087035	25946.036364
1444.047751	25928.034266
1446.013536	25891.851748
1447.973365	25856.573427
1449.934587	25828.424476
1451.897202	25813.009790
1453.855702	25793.420280
1455.813759	25745.872727
1457.771375	25669.584615
1459.728549	25629.252448
1461.683447	25599.558042
1463.639737	25569.140559
1465.593753	25518.290909
1467.547329	25472.776224
1469.498632	25437.924476
1471.451327	25392.013287
1473.401751	25330.666434
1475.351735	25265.365035
1477.301281	25228.116084
1479.248558	25164.358741
1481.193568	25114.685315
1483.139969	25098.007692
1485.085933	25080.247552
1487.031460	25074.501399
1488.974722	25057.822378
1490.917547	25085.980420
1492.858109	25090.236364
1494.800062	25087.984615
1496.739753	25114.280420
1498.679010	25151.357343
1500.617831	25187.170629
1502.554393	25172.798601
1504.492346	25197.212587
1506.428040	25149.200699
1508.363301	25130.744755
1510.296306	25135.351049
1512.228878	25100.148951
1514.161018	25102.704196
1516.092726	25100.704196
1518.022180	25126.728671
1519.953025	25166.585315
1521.883438	25227.566434
1523.809779	25242.888112
1525.737511	25258.028671
1527.662992	25270.588112
1529.588044	25241.823077
1531.512667	25237.989510
1533.436861	25237.085315
1535.358807	25194.474825
1537.282144	25171.735664
1539.203235	25173.032867
1541.122081	25180.116783
1543.042316	25160.678322
1544.960309	25144.427273
1546.877875	25105.481818
1548.793199	25060.028671
1550.709913	25004.504196
1552.622572	24920.048951
1554.538435	24868.193007
1556.452058	24815.020979
1558.363444	24747.389510
1560.276218	24697.775524
1562.184943	24645.440559
1564.095058	24610.444056
1566.004748	24557.911888
1567.914016	24521.798601
1569.821050	24474.265035
1571.725851	24448.768531
1573.632041	24414.777622
1575.535999	24368.541958
1577.439537	24383.135664
1579.342653	24345.449650
1581.243540	24351.034266
1583.145816	24322.630769
1585.045864	24261.584615
1586.947299	24223.490909
1588.844701	24166.227972
1590.741684	24111.281818
1592.638249	24043.551049
1594.536202	24019.578322
1596.428320	23985.291608
1598.323631	23948.511189
1600.218525	23916.569930
1602.111197	23863.134965
1604.003453	23830.604196
1605.893488	23793.576224
1607.783109	23740.021678
1609.672313	23695.521678
1611.561103	23674.634965
1613.447675	23659.462238
1615.335635	23609.773427
1617.219578	23602.092308
1619.104909	23610.701399
1620.989825	23574.659441
1622.872528	23531.826573
1624.756618	23513.795804
1626.636697	23502.498601
1628.518162	23496.140559
1630.397417	23472.353846
1632.278058	23487.119580
1634.152895	23508.076923
1636.032714	23496.435664
1637.908527	23480.662937
1639.783930	23484.395105
1641.660719	23483.005594
1643.531712	23445.955245
1645.405886	23437.655245
1647.276062	23435.351748
1649.149418	23416.044755
1651.020571	23386.734266
1652.889522	23344.839161
1654.759859	23324.481119
1656.626202	23283.949650
1658.493931	23248.559441
1660.359461	23237.127273
1662.226377	23195.256643
1664.089304	23157.331469
1665.953616	23154.575524
1667.815732	23132.208392
1669.677444	23116.459441
1671.540540	23100.018182
1673.401442	23101.088112
1675.260150	23093.519580
1677.118455	23081.730769
1678.978145	23068.997902
1680.832068	23062.569930
1682.689163	23039.151748
1684.545856	22998.622378
1686.398573	22948.525874
1688.254460	22919.313986
1690.106374	22879.476923
1691.957887	22889.634266
1693.808999	22859.467832
1695.659711	22851.563636
1697.510022	22848.339860
1699.358148	22831.255944
1701.207659	22807.625175
1703.051421	22777.108392
1704.900132	22736.997203
1706.743098	22707.442657
1708.589229	22690.870629
1710.431399	22696.323776
1712.276733	22711.132168
1714.116327	22714.097902
1715.957305	22671.230769
1717.799666	22646.094406
1719.638071	22642.974126
1721.477859	22626.854545
1723.315472	22550.363636
1725.152689	22515.378322
1726.987733	22502.032867
1728.824160	22474.065734
1730.658415	22470.509091
1732.492275	22441.474825
1734.325742	22449.398601
1736.155262	22429.825175
1737.987941	22376.876224
1739.816676	22354.385315
1741.648568	22350.734266
1743.476519	22331.982517
1745.304077	22295.072727
1747.131243	22295.883217
1748.958018	22292.781818
1750.784402	22260.063636
1752.606848	22236.772028
1754.432450	22207.400699
1756.254117	22197.527972
1758.077166	22171.941259
1759.898053	22134.972727
1761.718552	22112.979021
1763.540432	22095.992308
1765.356612	22118.644755
1767.175944	22116.635664
1768.991349	22109.227972
1770.809904	22096.964336
1772.624534	22066.144056
1774.438778	22064.254545
1776.252634	22077.525874
1778.066104	22078.612587
1779.877421	22082.711189
1781.690119	22063.366434
1783.502430	22051.029371
1785.310824	22049.125175
1787.120598	22056.204895
1788.926458	22023.936364
1790.735463	22007.881818
1792.540555	21964.816084
1794.347028	21949.969930
1796.153117	21948.489510
1797.955296	21973.552448
1799.760618	21987.314685
1801.562032	21971.740559
1803.364826	21966.113986
1805.163714	21955.842657
1806.963983	21934.554545
1808.763870	21913.851049
1810.561616	21889.523776
1812.358980	21861.343357
1814.155965	21825.990210
1815.952569	21814.800699
1817.747034	21786.132867
1819.542878	21791.880420
1821.333068	21774.841958
1823.128153	21757.384615
1824.917587	21727.393007
1826.710157	21711.550350
1828.500592	21711.093007
1830.288893	21722.418182
1832.080329	21719.909091
1833.866119	21713.383217
1835.653289	21724.379720
1837.438327	21701.529371
1839.226499	21684.543357
1841.010785	21663.593706
1842.792942	21645.967133
1844.576477	21632.322378
1846.357884	21587.945455
1848.140670	21563.965035
1849.919575	21557.483916
1851.699860	21543.767832
1853.478018	21545.056643
1855.257555	21534.994406
1857.034967	21539.197902
1858.810255	21526.646853
1860.586922	21539.891608
1862.361465	21574.081119
1864.137387	21588.371329
1865.907688	21615.869231
1867.681117	21639.188112
1869.452426	21650.020979
1871.223365	21695.893007
1872.995680	21718.402098
1874.762382	21753.239860
1876.532210	21755.090210
1878.298174	21767.564336
1880.067262	21764.471329
1881.832488	21761.479720
1883.597345	21739.795804
1885.363580	21695.611888
1887.125956	21672.306993
1888.887965	21663.589510
1890.649606	21623.669930
1892.410881	21615.337762
1894.171788	21597.695105
1895.932329	21573.030070
1897.690760	21551.854545
1899.448826	21544.568531
1901.204783	21549.028671
1902.962117	21550.152448
1904.719086	21540.209790
1906.473949	21560.274825
1908.226706	21557.462238
1909.979100	21549.016783
1911.732869	21535.398601
1913.484535	21534.715385
1915.234099	21526.745455
1916.985038	21530.205594
1918.735615	21524.683217
1920.482352	21532.188112
1922.230466	21564.062238
1923.976480	21583.420280
1925.723870	21616.873427
1927.469161	21648.663636
1929.212355	21657.835664
1930.956924	21659.881119
1932.699398	21692.578322
1934.441511	21711.774126
1936.183264	21744.988462
1937.924658	21795.172727
1939.663957	21817.194755
1941.402898	21860.895105
1943.141481	21909.352098
1944.877971	21926.074126
1946.614104	21948.182867
1948.351611	21938.488112
1950.085296	21958.836014
1951.820356	21967.913287
1953.553328	21980.415734
1955.285942	22018.307692
1957.018201	22045.064685
1958.750103	22064.804895
1960.479919	22079.906993
1962.207650	22113.387413
1963.936756	22147.608392
1965.665507	22143.850350
1967.392174	22146.972028
1969.118487	22140.983916
1970.846173	22165.342657
1972.568323	22171.641958
1974.293574	22196.494406
1976.015019	22235.251748
1977.739563	22221.969930
1979.462028	22222.964336
1981.180689	22214.678322
1982.902449	22234.815385
1984.620407	22252.473427
1986.339738	22263.108392
1988.055270	22294.810490
1989.775622	22328.933566
1991.492176	22359.457343
1993.204933	22399.137762
1994.920787	22439.088112
1996.634567	22476.416084
1998.347998	22502.305594
2000.059358	22525.440559
2001.772090	22539.186713
2003.481032	22598.273427
2005.193067	22639.423776
2006.899592	22685.950350
2008.609210	22694.801399
2010.316760	22701.616783
2012.023963	22728.646154
2013.729100	22722.123077
2015.433890	22711.000699
2017.140052	22726.441958
2018.842432	22708.808392
2020.546184	22700.418881
2022.247872	22688.071329
2023.949216	22725.846853
2025.650214	22745.334965
2027.349151	22763.237762
2029.049460	22754.788112
2030.745994	22769.563636
2032.443899	22811.720979
2034.139745	22801.369930
2035.838677	22823.338462
2037.532123	22858.979021
2039.226940	22850.657343
2040.921415	22875.611189
2042.612121	22861.190210
2044.305911	22875.344056
2045.995934	22870.995105
2047.687328	22858.626573
2049.376669	22819.316783
2051.067380	22762.047552
2052.754328	22730.034266
2054.440937	22654.923077
2056.128916	22623.019580
2057.813135	22587.295105
2059.498724	22545.468531
2061.183974	22505.673427
2062.867176	22452.634965
2064.551747	22418.099301
2066.230856	22412.625175
2067.914750	22403.700000
2069.593184	22388.515385
2071.274694	22382.718881
2072.952454	22386.370629
2074.629876	22398.311189
2076.308668	22432.393706
2077.985418	22443.440559
2079.660126	22448.039161
2081.336203	22429.167832
2083.010240	22420.448252
2084.683941	22420.819580
2086.357307	22424.649650
2088.028635	22404.804895
2089.699628	22406.076224
2091.370287	22390.316783
2093.040611	22405.523077
2094.710602	22418.893007
2096.378557	22441.376224
2098.046179	22460.161538
2099.711766	22514.321678
2101.378723	22556.415385
2103.043645	22623.939161
2104.708236	22683.207692
2106.370795	22743.670629
2108.034722	22801.481119
2109.696619	22855.799301
2111.358184	22903.640559
2113.019418	22960.481818
2114.678624	22963.759441
2116.337499	22980.539161
2117.996045	23000.862238
2119.654261	23000.381119
2121.308753	22983.128671
2122.966310	22989.153147
2124.623538	22969.090909
2126.277044	22988.948951
2127.931918	22980.041958
2129.583074	22946.660839
2131.237291	22946.942657
2132.887792	22934.730769
2134.539659	22920.421678
2136.186118	22896.746154
2137.837332	22925.123077
2139.484832	22930.328671
2141.133699	22966.512587
2142.780548	22990.091608
2144.427070	23015.951748
2146.073267	23063.206993
2147.715756	23052.906993
2149.361303	23049.004895
2151.003143	23040.375524
2152.648040	23017.865035
2154.289232	22998.781818
2155.930100	22960.665035
2157.570644	22964.888811
2159.209176	22957.132867
2160.849074	22933.343357
2162.485272	22895.568531
2164.122837	22883.232867
2165.760078	22879.718182
2167.395310	22853.919580
2169.030221	22862.985315
2170.664810	22860.179021
2172.299077	22875.588112
2173.929651	22916.688811
2175.563277	22928.245455
2177.193211	22940.636364
2178.824510	22958.865035
2180.453804	22953.600699
2182.082779	22936.279021
2183.711434	22937.483916
2185.339770	22930.317483
2186.966104	22897.841259
2188.592119	22873.443357
2190.216133	22840.667832
2191.841511	22802.118881
2193.464890	22787.099301
2195.089632	22751.725874
2196.710694	22734.339860
2198.331439	22711.125874
2199.953549	22698.445455
2201.573661	22696.839161
2203.191776	22706.107692
2204.809576	22735.212587
2206.427061	22739.238462
2208.044230	22775.248951
2209.661084	22798.913287
2211.277623	22825.916783
2212.892168	22870.946154
2214.504721	22918.959441
2216.118638	22965.923077
2217.730564	22990.306993
2219.343853	23026.037063
2220.955152	23041.365734
2222.564461	23081.362238
2224.175134	23109.518881
2225.783818	23135.690210
2227.392190	23174.333566
2228.998574	23190.885315
2230.606322	23200.116783
2232.212083	23249.018182
2233.817533	23287.388811
2235.420998	23327.659441
2237.025826	23388.226573
2238.628670	23427.460140
2240.229532	23471.860839
2241.831755	23549.778322
2243.431997	23586.587413
2245.033601	23624.222378
2246.631553	23654.496503
2248.230867	23674.505594
2249.828201	23686.653147
2251.425226	23732.888811
2253.023614	23740.050350
2254.618353	23763.816084
2256.211115	23786.404895
2257.805240	23785.200699
2259.400726	23792.459441
2260.992568	23812.815385
2262.584103	23825.202098
2264.176999	23832.116084
2265.764586	23873.897902
2267.356870	23858.743357
2268.943846	23842.548252
2270.533851	23843.935664
2272.118551	23815.509091
2273.707944	23793.749650
2275.292036	23757.327273
2276.877489	23690.750350
2278.460972	23674.405594
2280.047482	23647.076224
2281.630358	23630.804895
2283.212930	23625.266434
2284.795199	23633.690909
2286.373839	23594.508392
2287.955502	23574.379720
2289.533537	23584.067832
2291.114595	23573.321678
2292.692026	23578.776923
2294.267494	23560.626573
2295.845984	23532.831469
2297.420850	23546.393007
2298.995415	23509.567133
2300.569680	23468.924476
2302.143644	23424.682517
2303.717308	23399.394406
2305.290671	23355.479720
2306.860416	23341.025874
2308.429862	23348.146853
2310.002326	23362.464336
2311.569516	23381.237063
2313.139724	23399.809790
2314.706317	23427.210490
2316.274270	23464.194406
2317.840267	23530.066434
2319.405967	23583.532168
2320.971370	23619.777622
2322.534818	23696.446154
2324.099626	23754.421678
2325.660826	23800.804895
2327.225040	23866.372028
2328.783992	23915.513986
2330.345959	23935.610490
2331.905975	23966.844056
2333.465695	23997.469231
2335.023466	24034.336364
2336.580942	24099.306294
2338.138124	24125.262238
2339.693358	24129.720280
2341.248299	24168.659441
2342.802946	24170.193007
2344.357299	24164.023776
2345.911358	24205.625175
2347.465123	24215.904895
2349.016945	24224.658042
2350.566823	24245.260839
2352.119709	24251.635664
2353.667353	24272.172028
2355.218004	24298.156643
2356.765064	24302.817483
2358.313483	24296.061538
2359.861609	24288.947552
2361.406147	24275.657343
2362.952043	24283.379021
2364.496001	24308.082517
2366.041316	24332.651049
2367.583046	24367.109091
2369.126133	24386.945455
2370.667285	24431.395105
2372.208147	24458.376224
2373.748719	24503.209091
2375.289003	24513.186713
2376.828998	24516.967133
2378.365415	24498.408392
2379.904833	24512.095804
2381.440674	24520.474126
2382.977871	24539.414685
2384.511493	24557.442657
2386.048116	24591.133566
2387.582807	24648.361538
2389.115569	24705.649650
2390.648044	24752.483916
2392.178591	24818.580420
2393.712136	24831.042657
2395.240470	24859.097203
2396.770161	24882.581818
2398.299566	24920.032867
2399.828685	24946.139161
2401.357520	24962.233566
2402.881149	24979.576224
2404.409415	25017.121678
2405.932477	25070.865734
2407.460173	25118.195105
2408.981030	25172.739860
2410.506520	25213.227273
2412.028449	25245.628671
2413.551734	25300.341259
2415.073098	25322.974126
2416.592542	25340.739161
2418.113341	25342.485315
2419.632221	25374.028671
2421.150819	25385.279720
2422.667500	25404.548252
2424.185535	25425.541958
2425.703289	25458.102797
2427.217492	25478.313287
2428.731414	25540.936364
2430.245056	25570.655944
2431.760053	25604.197203
2433.271501	25614.046154
2434.784304	25643.220979
2436.295193	25684.621678
2437.805804	25733.720979
2439.314503	25766.661538
2440.826188	25807.898601
2442.334330	25832.528671
2443.842194	25890.930769
2445.349780	25956.636364
2446.853825	26013.523077
2448.360856	26046.523077
2449.865978	26106.629371
2451.370823	26143.514685
2452.873760	26175.716084
2454.376422	26225.160140
2455.878807	26223.825175
2457.379287	26250.342657
2458.881120	26253.094406
2460.381049	26265.081119
2461.880702	26283.342657
2463.380079	26291.445455
2464.877554	26284.711888
2466.373127	26288.490210
2467.871680	26278.128671
2469.366705	26228.541958
2470.863082	26216.032867
2472.355933	26202.562238
2473.850137	26175.523077
2475.344067	26161.224476
2476.834473	26134.771329
2478.327857	26130.383916
2479.819343	26125.613986
2481.308932	26149.249650
2482.798249	26203.826573
2484.285671	26239.441958
2485.776068	26281.163636
2487.262946	26307.016084
2488.751176	26364.155245
2490.235890	26391.344056
2491.720333	26409.272727
2493.206128	26393.267133
2494.690030	26356.187413
2496.175284	26364.165035
2497.655403	26351.022378
2499.138496	26338.486014
2500.619698	26339.825874
2502.100631	26313.171329
2503.579675	26314.752448
2505.058450	26301.602797
2506.536957	26278.841259
2508.015196	26271.391608
2509.493166	26247.270629
2510.967632	26198.115385
2512.445066	26173.234266
2513.918997	26168.310490
2515.394278	26109.367133
2516.869293	26077.159441
2518.340806	26023.265035
2519.813669	25974.406294
2521.284650	25936.997203
2522.756981	25906.276923
2524.224199	25857.999301
2525.694382	25853.360839
2527.162685	25815.696503
2528.630723	25778.672727
2530.098496	25767.151049
2531.566004	25760.848252
2533.033247	25756.372727
2534.496998	25765.367133
2535.962099	25763.748951
2537.425323	25792.067832
2538.889897	25814.447552
2540.350981	25860.542657
2541.813415	25886.512587
2543.275586	25908.523077
2544.734271	25905.504196
2546.197528	25895.006294
2547.655688	25894.408392
2549.115197	25873.067832
2550.569613	25855.544755
2552.028598	25827.598601
2553.485712	25833.209790
2554.940955	25830.183916
2556.395937	25822.268531
2557.849049	25851.692308
2559.303510	25844.275524
2560.756102	25848.677622
2562.208434	25866.261538
2563.658898	25876.979720
2565.112318	25899.320979
2566.560656	25916.306993
2568.011950	25971.813986
2569.461377	25997.121678
2570.907332	26038.413287
2572.356242	26053.746154
2573.801682	26081.190210
2575.248470	26113.717483
2576.693394	26111.618881
2578.138060	26121.460140
2579.584075	26131.079720
2581.026622	26098.180420
2582.470517	26095.209790
2583.910947	26120.542657
2585.352724	26132.851049
2586.792642	26123.984615
2588.233907	26152.932867
2589.671711	26189.752448
2591.112464	26198.146154
2592.548154	26234.669231
2593.986794	26234.103497
2595.423576	26245.523776
2596.858503	26286.850350
2598.296377	26287.532168
2599.729194	26331.729371
2601.163358	26324.547552
2602.595668	26334.444755
2604.029324	26347.056643
2605.461127	26382.290909
2606.892676	26400.217483
2608.323973	26383.955245
2609.753417	26400.172028
2611.182609	26380.643357
2612.609951	26414.225874
2614.038638	26418.050350
2615.467074	26428.102098
2616.892062	26450.620280
2618.318397	26434.998601
2619.742883	26488.088112
2621.168715	26491.874825
2622.591103	26519.613287
2624.014837	26551.803497
2625.436724	26552.220979
2626.858362	26559.611189
2628.278154	26561.346154
2629.699292	26592.141958
2631.120180	26547.567832
2632.537630	26607.453846
2633.958019	26621.168531
2635.374971	26626.183217
2636.791674	26673.262238
2638.208130	26675.590909
2639.624336	26688.420280
2641.040295	26708.815385
2642.454413	26684.548951
2643.868284	26661.646853
2645.280315	26675.369231
2646.693691	26708.104895
2648.103637	26712.372028
2649.516518	26761.141259
2650.925971	26770.309091
2652.335178	26780.324476
2653.742549	26803.533566
2655.152855	26830.090210
2656.561324	26837.452448
2657.967958	26906.726573
2659.374347	26936.916084
2660.778902	27006.897203
2662.184801	27130.993007
2663.588867	27239.882517
2664.992688	27328.723077
2666.396266	27376.689510
2667.798011	27388.590210
2669.201100	27325.260140
2670.600771	27237.844056
2672.001786	27160.388112
2673.399385	27037.741259
2674.799914	26933.290909
2676.197028	26822.289510
2677.595485	26761.628671
2678.992114	26714.939161
2680.388501	26660.555245
2681.784647	26637.400000
2683.178966	26639.553846
2684.574628	26600.527972
2685.966880	26577.900000
2687.360475	26559.358741
2688.752247	26560.711888
2690.145360	26547.286014
2691.536650	26554.381818
2692.926117	26573.473427
2694.315344	26584.977622
2695.704332	26600.441259
2697.094662	26590.110490
2698.480007	26606.844755
2699.868276	26636.376224
2701.254725	26585.132168
2702.640935	26594.519580
2704.026907	26565.678322
2705.409479	26561.592308
2706.793394	26581.693007
2708.177071	26601.659441
2709.560510	26652.333566
2710.940553	26693.530070
2712.321938	26730.820280
2713.701507	26773.079021
2715.082418	26826.537762
2716.461513	26870.623077
2717.838795	26883.944755
2719.217418	26929.933566
2720.594228	26945.980420
2721.970802	27007.160140
2723.347140	27053.204895
2724.721666	27099.947552
2726.097533	27151.586713
2727.470013	27171.720979
2728.845409	27184.881119
2730.215845	27230.301399
2731.587622	27263.204895
2732.959164	27281.007692
2734.328898	27311.974825
2735.699973	27336.193007
2737.069239	27364.504895
2738.438273	27414.572727
2739.805499	27480.991608
2741.172493	27519.937762
2742.539254	27551.876923
2743.905782	27587.509091
2745.270505	27630.944755
2746.634997	27690.777622
2747.999256	27750.576224
2749.363283	27781.004196
2750.727079	27835.948951
2752.087501	27859.735664
2753.450834	27851.984615
2754.809224	27883.137762
2756.170524	27885.569231
2757.528453	27854.739860
2758.889291	27832.093007
2760.248330	27782.237762
2761.604000	27750.967832
2762.962578	27719.224476
2764.317789	27709.224476
2765.672772	27716.804895
2767.025957	27746.197902
2768.382049	27746.134965
2769.734777	27758.683916
2771.087276	27817.120979
2772.439547	27832.602098
2773.793157	27850.201399
2775.143405	27862.158042
2776.491860	27883.777622
2777.843219	27933.046154
2779.191219	27951.737762
2780.540557	27978.996503
2781.888104	28000.815385
2783.235423	27994.846154
2784.582516	27977.972028
2785.927818	27976.433566
2787.272894	27985.895105
2788.617743	27986.760839
2789.962367	27987.738462
2791.303639	28029.444755
2792.646249	28107.321678
2793.988633	28200.990909
2795.330793	28268.927972
2796.669603	28351.506294
2798.011312	28416.834965
2799.349674	28456.406294
2800.689373	28497.769231
2802.027286	28560.987413
2803.363415	28610.655944
2804.699320	28660.846853
2806.036563	28719.824476
2807.372022	28797.513287
2808.707258	28846.610490
2810.040711	28929.937762
2811.375502	28995.731469
2812.706951	29059.800699
2814.041296	29104.330769
2815.370743	29134.928671
2816.701527	29193.195804
2818.032089	29252.826573
2819.360872	29300.693706
2820.690991	29349.700699
2822.019332	29403.427972
2823.347452	29440.839860
2824.673794	29433.634266
2826.001473	29456.394406
2827.325818	29443.336364
2828.651500	29431.711888
2829.975406	29407.383217
2831.299093	29398.451748
2832.624115	29379.044056
2833.945807	29404.613287
2835.267281	29421.583916
2836.588536	29439.398601
2837.909572	29446.092308
2839.228836	29455.349650
2840.549435	29450.786014
2841.868262	29426.067133
2843.186871	29387.176224
2844.503709	29344.468531
2845.820330	29296.821678
2847.136734	29298.300000
2848.451368	29284.969231
2849.767338	29315.830769
2851.079987	29344.355245
2852.393972	29374.628671
2853.707739	29401.715385
2855.021291	29430.897902
2856.333075	29483.458741
2857.643093	29511.311189
2858.954446	29544.630769
2860.262484	29593.481818
2861.571857	29648.446853
2862.881014	29751.259441
2864.189956	29794.477622
2865.497134	29864.920979
2866.802550	29932.680420
2868.109300	29978.252448
2869.414287	29999.723077
2870.719061	30030.654545
2872.022073	30094.146853
2873.327967	30088.282517
2874.629005	30141.164336
2875.931378	30162.111189
2877.231991	30164.608392
2878.533938	30198.916783
2879.835672	30205.519580
2881.134101	30255.667832
2882.433865	30258.761538
2883.731870	30252.748252
2885.029664	30244.761538
2886.325702	30257.191608
2887.623073	30244.560839
2888.918688	30210.102797
2890.214092	30217.783217
2891.509285	30175.410490
2892.801181	30156.303497
2894.095953	30171.797203
2895.387428	30186.728671
2896.680236	30186.380420
2897.972834	30150.635664
2899.262138	30154.811888
2900.552774	30190.109790
2901.841659	30198.071329
2903.131877	30211.553147
2904.418802	30208.765734
2905.707061	30209.651748
2906.993569	30210.660140
2908.279870	30231.924476
2909.565962	30222.162937
2910.850306	30192.675524
2912.137521	30165.571329
2913.419910	30174.499301
2914.703631	30193.147552
2915.985606	30211.949650
2917.267373	30239.566434
2918.547396	30248.563636
2919.830288	30246.700000
2921.111435	30238.407692
2922.389300	30252.474126
2923.670034	30215.806294
2924.947487	30141.420979
2926.224734	30107.333566
2927.500240	30075.596503
2928.778613	30059.806294
2930.052171	30029.786713
2931.328597	30023.668531
2932.603282	30056.313287
2933.876227	30058.703497
2935.150502	30084.326573
2936.423038	30095.400699
2937.695370	30101.395105
2938.964428	30060.316084
2940.236352	30045.196503
2941.506538	30012.126573
2942.776521	29970.560140
2944.046300	29954.262238
2945.314342	29942.296503
2946.580649	29945.948951
2947.846753	29945.592308
2949.114187	29956.030070
2950.379887	29932.756643
2951.645384	29958.514685
2952.910679	29919.925175
2954.172709	29930.923776
2955.436070	29929.861538
2956.699228	29904.018881
2957.960655	29929.420979
2959.223411	29970.458042
2960.484436	30001.631469
2961.743729	30033.799301
2963.002823	30063.199301
2964.261716	30081.495804
2965.520409	30058.350350
2966.778902	30120.631469
2968.035666	30085.629371
2969.292230	30134.062937
2970.547067	30133.957343
2971.803232	30157.987413
2973.056143	30179.058042
2974.310383	30229.920280
2975.564424	30247.095105
2976.816739	30284.463636
2978.068856	30328.203497
2979.319247	30359.895804
2980.572494	30392.597203
2981.820964	30443.442657
2983.072289	30427.251748
2984.320364	30464.365035
2985.568243	30466.476224
2986.815924	30503.046853
2988.063409	30491.051748
2989.309171	30531.442657
2990.554738	30547.678322
2991.801632	30583.383217
2993.045282	30630.446154
2994.290260	30670.967832
2995.531994	30681.217483
2996.776580	30674.203497
2998.019447	30679.738462
2999.259073	30682.758042
3000.501549	30690.423077
3001.740786	30694.444056
3002.981350	30699.846154
3004.220197	30728.797203
3005.458850	30745.792308
3006.695787	30788.757343
3007.934051	30811.320979
3009.170601	30846.146853
3010.406956	30865.979720
3011.643118	30908.067133
3012.877567	30947.737063
3014.111822	30966.209091
3015.345884	31000.918881
3016.578234	31055.148252
3017.808872	31080.362937
3019.042356	31096.240559
3020.274128	31125.641259
3021.504190	31188.962238
3022.734060	31217.227273
3023.962220	31271.216084
3025.191706	31285.769231
3026.419484	31323.667832
3027.647070	31349.965035
3028.875982	31392.388112
3030.100152	31426.373427
3031.327165	31475.021678
3032.550954	31462.896503
3033.776070	31479.981119
3034.999479	31508.929371
3036.222698	31530.888811
3037.444212	31545.678322
3038.668567	31590.523776
3039.888187	31626.430769
3041.109133	31665.079720
3042.329890	31718.773427
3043.548943	31796.811189
3044.769322	31861.268531
3045.986484	31914.583217
3047.204971	31995.260839
3048.421756	32048.782517
3049.638354	32090.923776
3050.854763	32110.858741
3052.067960	32165.809790
3053.283994	32232.034965
3054.496816	32265.583916
3055.712475	32277.164336
3056.923411	32325.262238
3058.135672	32352.095804
3059.347747	32408.944755
3060.559635	32427.979720
3061.769825	32490.219580
3062.979829	32511.568531
3064.189647	32550.181119
3065.397770	32596.194406
3066.605706	32680.220280
3067.811948	32759.411189
3069.019513	32774.315385
3070.225384	32876.216783
3071.431071	32957.369231
3072.636572	33015.008392
3073.840380	33113.202098
3075.045512	33151.210490
3076.248952	33185.747552
3077.450699	33215.776923
3078.652263	33227.466434
3079.853642	33226.438462
3081.054839	33234.066434
3082.254344	33217.312587
3083.453667	33171.041259
3084.654313	33228.924476
3085.853269	33240.067133
3087.049031	33267.260140
3088.247622	33300.052448
3089.443019	33336.918881
3090.639739	33349.587413
3091.833267	33349.625175
3093.029623	33363.758042
3094.224293	33376.046853
3095.415772	33384.245455
3096.611582	33335.711189
3097.802699	33336.749650
3098.995138	33360.155944
3100.184390	33404.446853
3101.376468	33422.003497
3102.566861	33457.631469
3103.754069	33520.325874
3104.942600	33542.934266
3106.132452	33590.446154
3107.319121	33607.850350
3108.505610	33612.848951
3109.691919	33576.067133
3110.879550	33552.158741
3112.064000	33564.506993
3113.246769	33574.607692
3114.432361	33615.631469
3115.616274	33630.384615
3116.798508	33657.925874
3117.980563	33706.185315
3119.162441	33757.423776
3120.344140	33812.113986
3121.524161	33798.684615
3122.702506	33806.399301
3123.883672	33813.249650
3125.061662	33847.693706
3126.239475	33891.092308
3127.417111	33902.393706
3128.593072	33918.160839
3129.768856	33910.361538
3130.945962	33930.905594
3132.121393	33948.093007
3133.295151	34032.107692
3134.467237	34053.951049
3135.640643	34069.104895
3136.813874	34135.355944
3137.985432	34217.284615
3139.158311	34276.125175
3140.328024	34374.860140
3141.499056	34384.757343
3142.668419	34390.574126
3143.836112	34411.130070
3145.006620	34409.352448
3146.172469	34398.912587
3147.342628	34422.853147
3148.508129	34415.262238
3149.673457	34390.692308
3150.838611	34389.969930
3152.003591	34372.964336
3153.169892	34271.309091
3154.331539	34190.255944
3155.494506	34075.013287
3156.657301	33934.893706
3157.819923	33813.311189
3158.980880	33685.851049
3160.141664	33579.901399
3161.302276	33514.574126
3162.461225	33489.900000
3163.620001	33438.933566
3164.778606	33430.093007
3165.937039	33421.319580
3167.095300	33396.744056
3168.251899	33412.822378
3169.406837	33423.867133
3170.563094	33414.838462
3171.717690	33454.784615
3172.872116	33480.977622
3174.024882	33449.939161
3175.177478	33480.265035
3176.329903	33508.376923
3177.482159	33544.868531
3178.634244	33571.829371
3179.783184	33614.193706
3180.934930	33709.490909
3182.085018	33798.948252
3183.233450	33905.890210
3184.381713	34026.808392
3185.529806	34189.824476
3186.677731	34305.106294
3187.824001	34387.871329
3188.970102	34486.537063
3190.114548	34521.664336
3191.258827	34584.037762
3192.402938	34588.119580
3193.548367	34590.630070
3194.690656	34611.536364
3195.832779	34614.327972
3196.974734	34609.384615
3198.116523	34612.527273
3199.258144	34622.681119
3200.396629	34637.049650
3201.536432	34647.304196
3202.677553	34653.014685
3203.815539	34668.322378
3204.951876	34689.159441
3206.088047	34705.486713
3207.225536	34702.272727
3208.361375	34745.402797
3209.498532	34719.629371
3210.631076	34712.891608
3211.767902	34680.400699
3212.900116	34617.205594
3214.033647	34542.400699
3215.167014	34431.921678
3216.297253	34293.995804
3217.430290	34177.533566
3218.560201	34023.044056
3219.691428	33919.646853
3220.819531	33845.690909
3221.950430	33809.174126
3223.079685	33752.476224
3224.207297	33769.224476
3225.331787	33758.495804
3226.460551	33776.838462
3227.586194	33784.944755
3228.711675	33817.765035
3229.835514	33833.315385
3230.962147	33851.895804
3232.084183	33840.884615
3233.207535	33851.090909
3234.330725	33851.801399
3235.453753	33846.052448
3236.575141	33815.687413
3237.696368	33810.927273
3238.815956	33818.440559
3239.935383	33891.325175
3241.053172	33974.797203
3242.173754	34145.984615
3243.291221	34256.585315
3244.408528	34432.235664
3245.525675	34596.660839
3246.641186	34752.609790
3247.758012	34869.868531
3248.871727	35002.300000
3249.988232	35057.111888
3251.103103	35091.240559
3252.214865	35129.379021
3253.326468	35152.325175
3254.439385	35129.004196
3255.552144	35156.756643
3256.661796	35117.000699
3257.772762	35162.009091
3258.883570	35176.865035
3259.992747	35209.946853
3261.100292	35253.480420
3262.209151	35335.092308
3263.317853	35384.200699
3264.423452	35467.268531
3265.530365	35547.918881
3266.635649	35589.534266
3267.742248	35617.707692
3268.845746	35671.136364
3269.950558	35670.734965
3271.055213	35727.686014
3272.156769	35762.411888
3273.258170	35788.314685
3274.360884	35793.639161
3275.463441	35822.883916
3276.562902	35841.427273
3277.665147	35882.123776
3278.764296	35888.612587
3279.861821	35876.735664
3280.959190	35872.909091
3282.059342	35854.472028
3283.156400	35793.600699
3284.253303	35810.350350
3285.350051	35761.500699
3286.442241	35764.858042
3287.538679	35745.856643
3288.633495	35722.704196
3289.728157	35747.478322
3290.821197	35786.874825
3291.914083	35824.064336
3293.005348	35823.627273
3294.097926	35836.547552
3295.188883	35833.778322
3296.278221	35806.980420
3297.367406	35858.469231
3298.457904	35837.705594
3299.545317	35882.246853
3300.632578	35897.400699
3301.721151	35938.909790
3302.809571	35992.015385
3303.893444	36048.851049
3304.981559	36118.404895
3306.066593	36129.554545
3307.150010	36196.706993
3308.234740	36239.006294
3309.317855	36297.386713
3310.402281	36339.234965
3311.483629	36369.060140
3312.566289	36385.596503
3313.647335	36400.294406
3314.728230	36421.984615
3315.807511	36379.683217
3316.886643	36432.760140
3317.967085	36448.952448
3319.044454	36447.581119
3320.123133	36493.701399
3321.200202	36515.158042
3322.277120	36577.665734
3323.352427	36633.853846
3324.427585	36683.742657
3325.504054	36702.074126
3326.577453	36743.753147
3327.650703	36765.388811
3328.725263	36777.142657
3329.798215	36818.796503
3330.869558	36787.082517
3331.942213	36779.167832
3333.011800	36760.800000
3334.082698	36726.807692
3335.151989	36693.266434
3336.222591	36652.409790
3337.291586	36580.480420
3338.358975	36565.896503
3339.424759	36525.793007
3340.494769	36488.787413
3341.561716	36500.597203
3342.625601	36492.802797
3343.692254	36501.773427
3344.757302	36514.300699
3345.820747	36525.094406
3346.884046	36493.625175
3347.947198	36508.296503
3349.010204	36501.938462
3350.073064	36518.451748
3351.134322	36529.830769
3352.192523	36497.732867
3353.254945	36531.330070
3354.314310	36585.067133
3355.373530	36623.173427
3356.434060	36710.339161
3357.490080	36794.006294
3358.548865	36871.779720
3359.603142	36962.827972
3360.660182	37098.549650
3361.715625	37209.309790
3362.772376	37306.402797
3363.827529	37340.073427
3364.881086	37346.415385
3365.933045	37411.671329
3366.987766	37428.779021
3368.039438	37452.184615
3369.090967	37484.529371
3370.143804	37503.535664
3371.193594	37549.668531
3372.244693	37607.909790
3373.292746	37665.307692
3374.343559	37723.970629
3375.391326	37770.542657
3376.438951	37801.591608
3377.486433	37832.485315
3378.532323	37894.725874
3379.579521	37878.823077
3380.623677	37926.430070
3381.670591	37946.200699
3382.715913	37969.832867
3383.758194	38003.255245
3384.800335	38010.594406
3385.843783	38044.200000
3386.887091	38038.807692
3387.928808	38057.690210
3388.970384	38077.616783
3390.011820	38090.806294
3391.051666	38150.401399
3392.089924	38162.920979
3393.129491	38251.198601
3394.168916	38270.927273
3395.206754	38297.745455
3396.243005	38314.709091
3397.279117	38337.869930
3398.316536	38383.451049
3399.350922	38385.770629
3400.386615	38404.822378
3401.422169	38448.671329
3402.454692	38506.859441
3403.489968	38576.764336
3404.522213	38628.000699
3405.554320	38705.710490
3406.584843	38751.860140
3407.616673	38807.802098
3408.648365	38838.758741
3409.677030	38914.625175
3410.705556	38962.066434
3411.735390	38984.895105
3412.765085	39029.040559
3413.791755	39081.498601
3414.819732	39158.428671
3415.844684	39177.856643
3416.872386	39270.479720
3417.897065	39309.230070
3418.923050	39358.820979
3419.947455	39414.815385
3420.971724	39432.792308
3421.994414	39482.848951
3423.016968	39455.615385
3424.040828	39443.255245
3425.061668	39416.555944
3426.082373	39378.094605
3427.104383	39345.325874
3428.123375	39326.506394
3429.142232	39329.892807
3430.162394	39363.741758
3431.179540	39436.309890
