-116.707459	12.666667
-114.037859	19.666667
-111.371194	-30.000000
-108.705281	-1.666667
-106.042300	-10.666667
-103.377890	-1.666667
-100.716410	-14.333333
-98.053501	-11.666667
-95.395698	-0.333333
-92.736466	25.000000
-90.077982	0.333333
-87.422422	32.333333
-84.765434	-9.000000
-82.113544	3.333333
-79.460224	9.666667
-76.809823	4.333333
-74.157993	-10.666667
-71.511254	26.666667
-68.863086	4.000000
-66.215660	1.666667
-63.571148	9.000000
-60.925208	-21.666667
-58.284349	1.333333
-55.642061	46.666667
-53.002682	1.333333
-50.361873	-17.000000
-47.721805	-12.333333
-45.086809	37.666667
-42.450385	-4.000000
-39.816863	51.666667
-37.181913	31.333333
-34.552028	26.666667
-31.918551	-16.666667
-29.290136	20.666667
-26.662455	32.000000
-24.033345	15.000000
-21.409292	-4.666667
-18.781650	16.666667
-16.159061	36.000000
-13.537204	45.000000
-10.916077	81.000000
-8.295680	191.000000
-5.678172	667.666667
-3.059235	2009.000000
-0.443183	5353.666667
2.172140	9007.000000
4.786736	4039.000000
7.398449	475.666667
10.011591	27.000000
12.619699	19.000000
15.231389	43.666667
17.838048	-30.666667
20.446135	55.000000
23.053498	34.666667
25.655836	-0.333333
28.261752	26.000000
30.862646	36.666667
33.464968	2.333333
36.062273	-12.666667
38.663153	7.333333
41.259018	6.333333
43.856312	13.000000
46.452886	-17.666667
49.044451	21.666667
51.637444	-14.000000
54.227576	6.000000
56.819136	-15.333333
59.407836	3.333333
61.997963	-14.000000
64.583091	6.666667
67.169647	-36.000000
69.755489	28.666667
72.338477	0.000000
74.922891	49.666667
77.500177	22.000000
80.081029	-27.666667
82.659032	47.666667
85.236325	5.666667
87.815044	11.333333
90.388781	-4.666667
92.963946	8.000000
95.536267	32.666667
98.107880	32.000000
100.676653	-23.000000
103.246853	-21.666667
105.814215	8.000000
108.383002	59.666667
110.948953	37.666667
113.512069	-3.666667
116.078741	26.000000
118.636192	12.000000
121.199328	48.666667
123.757504	64.000000
126.319235	88.000000
128.876009	110.666667
131.434210	147.000000
133.987457	192.666667
136.540007	287.000000
139.096107	408.666667
141.647259	597.000000
144.197714	734.333333
146.747471	803.666667
149.294409	930.333333
151.840652	1002.666667
154.388320	987.333333
156.935292	977.666667
159.477329	1000.333333
162.018672	932.000000
164.559322	964.666667
167.101398	960.000000
169.640662	928.333333
172.177118	941.000000
174.712882	1003.666667
177.250072	949.000000
179.786571	976.000000
182.320264	948.666667
184.851153	905.333333
187.381355	931.000000
189.912981	850.000000
192.441806	903.000000
194.967832	907.666667
197.493172	913.666667
200.019937	932.000000
202.543906	942.333333
205.067190	926.666667
207.589789	911.666667
210.109595	893.000000
212.628718	934.666667
215.147158	925.000000
217.667022	935.333333
220.179885	957.666667
222.696279	961.666667
225.211991	1025.000000
227.722813	957.000000
230.235060	1039.000000
232.744525	989.333333
235.253311	993.000000
237.761418	1025.000000
240.270950	991.666667
242.775601	1027.000000
245.279576	968.666667
247.784975	1042.333333
250.285499	982.000000
252.789547	1039.000000
255.286623	1031.000000
257.787223	957.333333
260.285051	955.666667
262.782206	984.333333
265.278688	966.000000
267.770307	968.666667
270.265446	1003.333333
272.757818	982.333333
275.249520	937.000000
277.738459	970.666667
280.228822	986.333333
282.716422	1060.000000
285.201263	1012.666667
287.689619	1022.333333
290.171035	1012.000000
292.655965	1079.333333
295.136050	1087.000000
297.619647	1084.666667
300.098401	1117.000000
302.578579	1175.333333
305.056004	1148.333333
307.532766	1119.666667
310.008865	1072.000000
312.482215	1086.666667
314.954903	1154.666667
317.426930	1028.666667
319.898296	1048.666667
322.366917	1067.000000
324.834880	1082.333333
327.304264	1041.666667
329.768826	1015.666667
332.236892	992.666667
334.700138	976.000000
337.162726	975.666667
339.624658	911.333333
342.085933	914.666667
344.544474	888.000000
347.004437	906.000000
349.461667	883.333333
351.918243	868.666667
354.374165	825.000000
356.827357	839.666667
359.281972	815.000000
361.731785	864.000000
364.185094	780.000000
366.633605	806.333333
369.081464	823.000000
371.530746	808.000000
373.975234	794.000000
376.421144	794.333333
378.866404	808.333333
381.308946	771.000000
383.750840	786.000000
386.192087	768.333333
388.630618	744.333333
391.070571	748.000000
393.507810	738.000000
395.942337	746.000000
398.380352	732.333333
400.813590	707.333333
403.248249	710.000000
405.678136	722.000000
408.111508	728.333333
410.540110	760.333333
412.968070	693.000000
415.397452	713.000000
417.822068	718.333333
420.248106	663.333333
422.673503	666.333333
425.098260	720.666667
427.518259	627.000000
429.939679	659.333333
432.358402	641.666667
434.778546	665.666667
437.195995	630.333333
439.614864	666.000000
442.031040	594.666667
444.442468	539.333333
446.857374	531.000000
449.269589	519.666667
451.681170	522.333333
454.092117	536.000000
456.500378	488.000000
458.908006	508.333333
461.315002	495.666667
463.721367	519.666667
466.125049	459.000000
468.528101	471.333333
470.930523	495.333333
473.332315	505.666667
475.731430	447.333333
478.131964	499.000000
480.531869	537.666667
482.927051	540.333333
485.325700	538.333333
487.719629	584.666667
490.112932	613.666667
492.505609	626.333333
494.897661	713.666667
497.291131	786.333333
499.679889	925.666667
502.065981	1097.666667
504.453493	1461.666667
506.840382	1923.666667
509.224607	2635.666667
511.610250	3812.666667
513.993232	5366.333333
516.373553	7186.333333
518.755293	8157.333333
521.134374	8243.666667
523.514874	7291.666667
525.892716	6109.333333
528.267903	4958.666667
530.642472	4127.666667
533.018459	3527.333333
535.391794	3063.666667
537.766546	2821.333333
540.136613	2459.000000
542.506064	2172.666667
544.876933	1994.666667
547.243122	1791.666667
549.610729	1764.000000
551.975690	1629.333333
554.340038	1484.000000
556.703773	1396.666667
559.068926	1353.333333
561.429407	1336.666667
563.791306	1319.000000
566.150564	1207.333333
568.507185	1238.000000
570.867250	1201.333333
573.220624	1108.000000
575.577443	1078.666667
577.931627	1094.000000
580.285202	1061.000000
582.638170	1048.666667
584.988505	1006.666667
587.340258	967.000000
589.685334	929.000000
592.035874	908.333333
594.379740	871.666667
596.729068	875.333333
599.073747	842.666667
601.415802	833.333333
603.759274	854.000000
606.100123	858.333333
608.440370	860.666667
610.777996	909.333333
613.119057	926.000000
615.455480	998.333333
617.793320	934.666667
620.128543	980.666667
622.461150	907.666667
624.795173	871.333333
627.126582	912.666667
629.457393	847.333333
631.787607	824.333333
634.117222	755.333333
636.442214	774.666667
638.772648	847.333333
641.098461	794.333333
643.421666	831.000000
645.746288	752.000000
648.068304	773.000000
650.389726	776.333333
652.708546	733.000000
655.028781	704.000000
657.348423	734.333333
659.665464	721.333333
661.981913	738.666667
664.295764	707.666667
666.611031	715.000000
668.923701	704.000000
671.237786	682.666667
673.547271	708.666667
675.858172	699.333333
678.166480	680.000000
680.474200	705.000000
682.783334	681.000000
685.087876	695.333333
687.391832	662.000000
689.695202	619.000000
691.999986	664.333333
694.300184	633.666667
696.601796	628.666667
698.902823	591.333333
701.199269	584.000000
703.497130	574.333333
705.794407	560.333333
708.091101	538.000000
710.383219	527.000000
712.678748	562.666667
714.969703	546.666667
717.262073	548.333333
719.551868	534.666667
721.841082	543.666667
724.129717	526.333333
726.415779	550.000000
728.703256	538.000000
730.988161	523.666667
733.272489	537.000000
735.554248	591.333333
737.837421	533.000000
740.120017	540.666667
742.398057	539.666667
744.677512	509.000000
746.956390	533.000000
749.234694	547.666667
751.508448	497.000000
753.783615	546.333333
756.058209	541.666667
758.330244	521.333333
760.603692	518.666667
762.874582	544.333333
765.142916	518.000000
767.412663	557.333333
769.679856	501.333333
771.946478	558.333333
774.212530	550.000000
776.476031	504.000000
778.740945	549.666667
781.005289	520.666667
783.265104	533.666667
785.526331	550.000000
787.786991	507.333333
790.045105	549.000000
792.300674	494.333333
794.559634	550.666667
796.812095	513.000000
799.069922	512.666667
801.323231	516.666667
803.574000	540.666667
805.826181	514.666667
808.075823	526.333333
810.326878	575.666667
812.573421	508.666667
814.821376	482.000000
817.066797	522.666667
819.313629	543.000000
821.559900	538.333333
823.801666	487.333333
826.046816	542.666667
828.285493	518.000000
830.527552	498.000000
832.765113	491.666667
835.004086	494.333333
837.240532	500.000000
839.478389	484.000000
841.713721	537.000000
843.946530	460.666667
846.180750	516.666667
848.412447	507.666667
850.643590	446.000000
852.874178	504.333333
855.104212	424.666667
857.333692	520.333333
859.558690	483.666667
861.787063	497.333333
864.010956	509.666667
866.236261	499.666667
868.457090	466.333333
870.681291	552.333333
872.901019	442.666667
875.122157	473.000000
877.342745	467.000000
879.560824	469.333333
881.780312	533.666667
883.995334	476.333333
886.209808	455.333333
888.423735	529.666667
890.637115	509.333333
892.849947	462.666667
895.062233	453.333333
897.272016	460.000000
899.481254	490.000000
901.689947	480.333333
903.896141	481.000000
906.103744	485.666667
908.308849	474.666667
910.513411	492.666667
912.715478	466.666667
914.918954	484.000000
917.119936	503.000000
919.320376	539.333333
921.522225	531.666667
923.717683	550.666667
925.916500	596.666667
928.110878	704.666667
930.308614	770.666667
932.501914	810.000000
934.696623	928.000000
936.888846	980.666667
939.080530	1069.666667
941.271677	1196.000000
943.460341	1163.666667
945.648469	1136.666667
947.834116	1100.000000
950.023115	1145.000000
952.207691	1059.666667
954.391732	1113.666667
956.579123	1075.666667
958.758210	1094.333333
960.940648	1145.666667
963.122552	1136.000000
965.301981	1152.333333
967.478938	1170.000000
969.657303	1147.000000
971.837075	1169.666667
974.010498	1189.333333
976.187267	1176.333333
978.359629	1174.000000
980.533399	1154.000000
982.702765	1186.000000
984.875475	1042.666667
987.045720	959.666667
989.215436	982.666667
991.384623	846.333333
993.549413	787.000000
995.717544	694.000000
997.881281	698.666667
1000.046424	679.000000
1002.209108	685.000000
1004.371267	567.333333
1006.530969	591.333333
1008.690146	565.333333
1010.850730	568.333333
1013.008859	532.000000
1015.166465	515.666667
1017.323547	508.333333
1019.480105	506.666667
1021.632284	496.666667
1023.785870	499.333333
1025.938934	431.666667
1028.089549	446.000000
1030.241571	443.666667
1032.389219	430.666667
1034.540199	431.666667
1036.686808	404.666667
1038.832898	425.666667
1040.978470	395.333333
1043.125447	402.000000
1045.266135	389.666667
1047.410153	404.000000
1049.551730	431.666667
1051.692791	419.333333
1053.835256	448.333333
1055.971442	397.666667
1058.110953	393.666667
1060.246110	410.666667
1062.384591	460.333333
1064.518718	388.666667
1066.652332	388.666667
1068.787351	397.666667
1070.918020	426.333333
1073.050094	409.000000
1075.179739	421.333333
1077.308872	398.333333
1079.437493	430.333333
1081.565603	394.333333
1083.691287	382.333333
1085.816461	395.000000
1087.943039	412.333333
1090.065279	401.333333
1092.188924	417.333333
1094.308234	363.333333
1096.432774	420.333333
1098.551068	420.333333
1100.670767	415.000000
1102.788047	346.000000
1104.904821	393.000000
1107.021088	397.000000
1109.134939	383.333333
1111.250195	378.333333
1113.361127	401.333333
1115.475372	390.000000
1117.585296	415.000000
1119.696624	377.666667
1121.807447	418.333333
1123.913954	376.000000
1126.023771	370.000000
1128.129273	393.000000
1130.236178	382.666667
1132.336868	354.666667
1134.442770	362.000000
1136.544363	367.666667
1138.647359	354.333333
1140.749854	340.333333
1142.846142	340.333333
1144.947637	365.000000
1147.044830	369.666667
1149.141525	375.000000
1151.237721	372.666667
1153.333420	362.000000
1155.428620	390.666667
1157.521424	373.333333
1159.615631	383.666667
1161.703646	366.000000
1163.796859	370.000000
1165.883884	359.666667
1167.974208	373.000000
1170.060244	386.333333
1172.149579	376.333333
1174.232732	358.000000
1176.317287	360.666667
1178.403244	347.333333
1180.484919	373.000000
1182.567996	341.666667
1184.648687	346.333333
1186.728886	379.000000
1188.808594	362.666667
1190.887811	341.333333
1192.964646	387.333333
1195.039100	352.000000
1197.116845	369.000000
1199.190321	367.666667
1201.265197	343.666667
1203.335806	333.333333
1205.407816	379.666667
1207.477451	324.666667
1209.548486	354.666667
1211.619033	389.333333
1213.685319	365.666667
1215.753006	327.000000
1217.818321	362.000000
1219.885036	344.333333
1221.947495	344.333333
1224.013239	327.666667
1226.074729	407.666667
1228.137620	336.333333
1230.198143	357.666667
1232.258182	358.000000
1234.317739	328.333333
1236.374930	334.333333
1238.431640	361.000000
1240.485986	357.333333
1242.543614	392.333333
1244.598879	356.333333
1246.649903	364.333333
1248.702327	338.333333
1250.754271	352.666667
1252.803857	387.000000
1254.852964	392.000000
1256.901593	346.333333
1258.949743	343.000000
1260.997414	370.333333
1263.040855	356.000000
1265.087572	331.333333
1267.131935	410.000000
1269.175822	389.000000
1271.217357	380.000000
1273.256543	349.333333
1275.299002	352.666667
1277.337238	364.333333
1279.376873	376.000000
1281.416033	351.333333
1283.450974	381.000000
1285.487314	367.000000
1287.521310	353.333333
1289.556703	341.333333
1291.587884	378.333333
1293.620462	362.000000
1295.652569	349.666667
1297.682335	362.666667
1299.713498	367.666667
1301.740455	323.000000
1303.768809	377.333333
1305.792958	364.333333
1307.820373	375.666667
1309.843585	325.666667
1311.868195	396.333333
1313.890471	339.000000
1315.914144	342.666667
1317.935484	330.000000
1319.956356	339.000000
1321.976761	355.666667
1323.992973	388.000000
1326.010582	359.333333
1328.025863	404.666667
1330.044403	371.000000
1332.058754	416.666667
1334.070779	413.000000
1336.086061	465.333333
1338.097158	458.000000
1340.109652	457.666667
1342.117963	467.666667
1344.129529	490.333333
1346.135057	450.666667
1348.143840	476.000000
1350.148445	452.000000
1352.156304	450.000000
1354.163701	447.666667
1356.165067	421.333333
1358.167829	411.333333
1360.170132	439.000000
1362.171975	381.000000
1364.173358	386.000000
1366.172428	362.333333
1368.171039	382.000000
1370.169192	369.666667
1372.166886	350.333333
1374.160418	336.333333
1376.155345	370.000000
1378.149816	352.333333
1380.143830	349.000000
1382.135537	346.666667
1384.126789	322.000000
1386.115735	367.000000
1388.106076	337.000000
1390.095962	314.333333
1392.083544	296.333333
1394.070673	300.333333
1396.055500	332.000000
1398.041722	311.000000
1400.025644	322.000000
1402.009113	336.000000
1403.992129	351.333333
1405.972848	297.666667
1407.954961	372.000000
1409.934778	342.000000
1411.914143	316.333333
1413.889370	315.000000
1415.867835	329.333333
1417.844007	309.000000
1419.819730	299.000000
1421.795003	272.666667
1423.767985	292.666667
1425.740519	308.666667
1427.712605	271.000000
1429.684244	290.000000
1431.651754	327.666667
1433.624338	301.666667
1435.589116	306.666667
1437.558967	269.333333
1439.524694	316.333333
1441.491813	298.666667
1443.456649	291.666667
1445.417365	334.000000
1447.383149	290.333333
1449.342978	295.666667
1451.304201	336.000000
1453.266816	299.333333
1455.225316	310.666667
1457.183373	318.333333
1459.140989	330.000000
1461.098162	310.666667
1463.053060	318.666667
1465.009351	338.666667
1466.963367	344.333333
1468.916942	301.666667
1470.868245	275.000000
1472.820941	280.000000
1474.771364	295.000000
1476.721349	292.000000
1478.670895	302.666667
1480.618172	287.000000
1482.563181	268.000000
1484.509583	270.000000
1486.455547	278.333333
1488.401074	309.666667
1490.344335	314.333333
1492.287161	274.666667
1494.227723	330.666667
1496.169676	284.333333
1498.109367	284.333333
1500.048624	321.666667
1501.987445	306.000000
1503.924007	350.666667
1505.861960	284.333333
1507.797654	299.333333
1509.732915	340.333333
1511.665920	319.000000
1513.598492	298.333333
1515.530632	277.666667
1517.462340	342.666667
1519.391794	271.000000
1521.322639	294.666667
1523.253052	282.666667
1525.179393	305.333333
1527.107125	318.000000
1529.032606	328.666667
1530.957658	321.000000
1532.882281	354.333333
1534.806475	317.000000
1536.728421	383.666667
1538.651758	303.333333
1540.572848	340.333333
1542.491694	321.666667
1544.411930	367.666667
1546.329923	349.666667
1548.247489	345.333333
1550.162813	339.333333
1552.079527	374.333333
1553.992186	390.666667
1555.908049	395.666667
1557.821672	433.333333
1559.733057	474.333333
1561.645832	460.000000
1563.554557	493.666667
1565.464671	566.666667
1567.374362	645.000000
1569.283630	590.000000
1571.190664	712.000000
1573.095465	806.333333
1575.001655	883.666667
1576.905613	982.333333
1578.809150	1089.333333
1580.712267	1149.666667
1582.613154	1220.666667
1584.515430	1312.666667
1586.415478	1261.666667
1588.316913	1180.000000
1590.214315	1083.000000
1592.111298	902.333333
1594.007863	850.666667
1595.905816	686.666667
1597.797934	652.333333
1599.693245	542.333333
1601.588139	546.333333
1603.480811	509.000000
1605.373066	466.333333
1607.263102	456.333333
1609.152722	430.333333
1611.041927	383.666667
1612.930717	392.000000
1614.817289	382.000000
1616.705249	407.666667
1618.589192	350.333333
1620.474522	389.666667
1622.359439	376.000000
1624.242142	389.666667
1626.126232	360.666667
1628.006310	356.666667
1629.887776	314.000000
1631.767031	325.666667
1633.647672	280.000000
1635.522509	275.333333
1637.402327	309.000000
1639.278141	302.666667
1641.153544	312.333333
1643.030333	317.000000
1644.901326	241.333333
1646.775500	290.000000
1648.645675	296.000000
1650.519032	263.333333
1652.390184	255.333333
1654.259136	259.666667
1656.129472	250.333333
1657.995816	276.666667
1659.863545	235.666667
1661.729075	259.666667
1663.595991	236.333333
1665.458918	236.666667
1667.323230	207.000000
1669.185346	238.000000
1671.047057	237.000000
1672.910154	251.666667
1674.771055	263.333333
1676.629764	264.000000
1678.488069	241.333333
1680.347759	241.333333
1682.201681	256.333333
1684.058777	226.000000
1685.915470	234.666667
1687.768186	245.666667
1689.624074	227.000000
1691.475988	233.333333
1693.327501	204.666667
1695.178613	233.666667
1697.029325	257.000000
1698.879635	238.000000
1700.727762	192.000000
1702.577273	240.000000
1704.421035	219.666667
1706.269746	230.333333
1708.112711	193.333333
1709.958843	247.000000
1711.801012	208.333333
1713.646347	214.666667
1715.485941	178.666667
1717.326919	197.000000
1719.169280	251.000000
1721.007685	224.000000
1722.847473	216.333333
1724.685086	224.000000
1726.522303	216.666667
1728.357347	218.666667
1730.193774	247.666667
1732.028029	224.666667
1733.861889	215.000000
1735.695355	263.333333
1737.524876	217.000000
1739.357555	224.000000
1741.186290	237.000000
1743.018182	224.333333
1744.846132	175.000000
1746.673691	222.333333
1748.500857	216.666667
1750.327632	234.666667
1752.154015	222.666667
1753.976462	245.333333
1755.802064	229.000000
1757.623731	240.000000
1759.446780	247.666667
1761.267667	239.333333
1763.088166	165.333333
1764.910045	207.666667
1766.726226	216.000000
1768.545558	234.333333
1770.360963	221.000000
1772.179518	246.000000
1773.994148	194.333333
1775.808391	225.666667
1777.622248	207.000000
1779.435718	226.333333
1781.247035	191.666667
1783.059732	226.000000
1784.872044	203.666667
1786.680438	211.333333
1788.490212	232.333333
1790.296072	221.000000
1792.105077	197.000000
1793.910169	240.000000
1795.716642	166.333333
1797.522731	238.000000
1799.324909	213.666667
1801.130232	211.666667
1802.931646	228.666667
1804.734440	222.000000
1806.533328	199.333333
1808.333597	247.000000
1810.133484	207.333333
1811.931229	214.000000
1813.728594	193.333333
1815.525579	225.333333
1817.322183	203.000000
1819.116648	222.000000
1820.912492	238.000000
1822.702681	202.333333
1824.497767	230.666667
1826.287201	253.666667
1828.079771	219.000000
1829.870206	202.000000
1831.658507	199.666667
1833.449943	241.666667
1835.235733	211.333333
1837.022903	227.000000
1838.807941	171.666667
1840.596113	218.000000
1842.380399	208.666667
1844.162555	233.666667
1845.946091	259.000000
1847.727498	235.000000
1849.510284	211.333333
1851.289189	196.000000
1853.069474	182.333333
1854.847632	242.666667
1856.627169	215.000000
1858.404581	242.000000
1860.179869	237.333333
1861.956535	196.000000
1863.731079	198.000000
1865.507001	227.000000
1867.277302	203.333333
1869.050731	254.666667
1870.822040	216.666667
1872.592978	200.000000
1874.365294	191.333333
1876.131996	254.666667
1877.901824	203.333333
1879.667788	228.666667
1881.436875	207.666667
1883.202101	237.333333
1884.966959	256.333333
1886.733194	212.333333
1888.495570	219.666667
1890.257579	216.333333
1892.019220	194.000000
1893.780495	202.000000
1895.541402	203.000000
1897.301943	235.666667
1899.060374	202.000000
1900.818439	209.000000
1902.574397	187.333333
1904.331731	195.000000
1906.088700	179.333333
1907.843562	203.333333
1909.596320	206.333333
1911.348713	218.666667
1913.102483	197.333333
1914.854149	218.000000
1916.603713	188.000000
1918.354652	207.333333
1920.105229	167.000000
1921.851966	204.000000
1923.600080	179.000000
1925.346094	190.666667
1927.093483	191.666667
1928.838775	206.000000
1930.581969	220.333333
1932.326538	219.666667
1934.069012	186.000000
1935.811125	215.000000
1937.552878	169.333333
1939.294271	193.333333
1941.033571	183.000000
1942.772512	246.333333
1944.511094	165.666667
1946.247585	216.000000
1947.983718	196.000000
1949.721225	176.000000
1951.454910	195.333333
1953.189970	212.333333
1954.922941	179.333333
1956.655556	210.666667
1958.387815	173.666667
1960.119717	218.000000
1961.849533	169.000000
1963.577264	241.000000
1965.306370	184.333333
1967.035121	214.333333
1968.761788	169.000000
1970.488101	220.000000
1972.215787	199.333333
1973.937937	196.666667
1975.663188	153.666667
1977.384632	192.666667
1979.109177	183.333333
1980.831641	193.000000
1982.550303	183.000000
1984.272063	211.666667
1985.990021	169.000000
1987.709352	167.000000
1989.424884	175.333333
1991.145236	194.333333
1992.861790	189.333333
1994.574547	182.666667
1996.290400	170.000000
1998.004181	200.000000
1999.717612	192.333333
2001.428972	243.333333
2003.141704	209.666667
2004.850646	198.666667
2006.562680	208.666667
2008.269206	169.666667
2009.978823	191.666667
2011.686374	190.333333
2013.393576	184.333333
2015.098713	196.666667
2016.803504	183.333333
2018.509666	202.000000
2020.212046	197.666667
2021.915797	174.333333
2023.617486	198.000000
2025.318830	196.666667
2027.019828	161.666667
2028.718765	222.000000
2030.419074	174.333333
2032.115608	198.666667
2033.813513	157.000000
2035.509359	182.666667
2037.208291	189.000000
2038.901737	154.000000
2040.596554	191.666667
2042.291029	189.666667
2043.981735	154.666667
2045.675525	210.000000
2047.365548	177.666667
2049.056942	207.666667
2050.746283	161.333333
2052.436994	199.000000
2054.123942	180.333333
2055.810551	167.666667
2057.498529	168.333333
2059.182748	164.333333
2060.868338	185.333333
2062.553588	192.333333
2064.236789	180.000000
2065.921361	179.333333
2067.600470	203.666667
2069.284364	219.000000
2070.962797	151.000000
2072.644308	204.333333
2074.322067	179.000000
2075.999490	214.333333
2077.678282	145.000000
2079.355032	212.000000
2081.029740	159.333333
2082.705817	167.666667
2084.379853	180.000000
2086.053555	151.666667
2087.726921	164.666667
2089.398248	190.666667
2091.069241	166.000000
2092.739900	183.000000
2094.410225	189.333333
2096.080216	204.666667
2097.748171	151.000000
2099.415793	197.333333
2101.081380	173.666667
2102.748336	208.000000
2104.413259	154.666667
2106.077850	201.000000
2107.740409	165.666667
2109.404336	182.666667
2111.066232	179.333333
2112.727798	184.000000
2114.389032	177.333333
2116.048238	180.333333
2117.707113	181.666667
2119.365659	196.666667
2121.023874	158.000000
2122.678367	195.000000
2124.335924	137.666667
2125.993152	204.000000
2127.646658	188.333333
2129.301532	192.333333
2130.952687	184.000000
2132.606905	192.666667
2134.257406	171.333333
2135.909273	162.666667
2137.555732	135.000000
2139.206946	173.000000
2140.854446	136.666667
2142.503313	163.333333
2144.150161	162.333333
2145.796684	200.666667
2147.442881	187.000000
2149.085370	191.000000
2150.730917	182.666667
2152.372757	185.666667
2154.017654	187.000000
2155.658845	153.333333
2157.299714	139.666667
2158.940258	202.666667
2160.578790	139.666667
2162.218688	187.333333
2163.854886	179.333333
2165.492450	182.000000
2167.129692	142.666667
2168.764924	177.000000
2170.399835	213.666667
2172.034423	165.333333
2173.668691	173.666667
2175.299265	171.000000
2176.932891	188.666667
2178.562825	214.333333
2180.194124	179.333333
2181.823418	197.333333
2183.452393	162.333333
2185.081048	185.333333
2186.709384	180.666667
2188.335718	187.333333
2189.961733	182.000000
2191.585746	156.000000
2193.211125	156.000000
2194.834503	213.000000
2196.459246	155.000000
2198.080308	205.666667
2199.701053	177.333333
2201.323163	204.333333
2202.943275	160.666667
2204.561390	158.333333
2206.179190	170.333333
2207.796675	165.333333
2209.413844	154.666667
2211.030698	209.333333
2212.647236	164.666667
2214.261782	200.000000
2215.874335	156.333333
2217.488252	168.000000
2219.100178	186.000000
2220.713467	189.333333
2222.324766	198.666667
2223.934075	179.000000
2225.544748	181.333333
2227.153432	194.000000
2228.761803	162.666667
2230.368188	191.666667
2231.975936	152.333333
2233.581697	177.000000
2235.187147	145.666667
2236.790612	177.333333
2238.395440	179.000000
2239.998284	195.000000
2241.599145	162.000000
2243.201369	164.666667
2244.801611	157.000000
2246.403215	190.333333
2248.001166	169.333333
2249.600480	178.000000
2251.197814	187.666667
2252.794840	160.666667
2254.393228	144.666667
2255.987967	165.000000
2257.580729	164.666667
2259.174854	174.333333
2260.770340	167.333333
2262.362181	178.000000
2263.953716	159.666667
2265.546613	169.666667
2267.134200	166.333333
2268.726483	215.000000
2270.313460	160.666667
2271.903464	173.000000
2273.488164	180.666667
2275.077558	202.666667
2276.661650	150.666667
2278.247102	201.666667
2279.830586	162.000000
2281.417095	160.333333
2282.999971	157.333333
2284.582544	170.333333
2286.164813	184.666667
2287.743452	179.333333
2289.325116	170.000000
2290.903151	187.333333
2292.484209	144.000000
2294.061640	161.166667
2295.637108	178.333333
2297.215598	172.666667
2298.790464	159.333333
2300.365029	176.333333
2301.939294	177.000000
2303.513258	200.666667
2305.086921	139.666667
2306.660285	184.000000
2308.230030	169.000000
2309.799476	178.666667
2311.371940	154.333333
2312.939130	157.666667
2314.509338	180.666667
2316.075931	179.000000
2317.643884	146.333333
2319.209881	183.000000
2320.775581	123.666667
2322.340983	172.666667
2323.904432	176.333333
2325.469240	170.666667
2327.030440	163.333333
2328.594654	180.333333
2330.153606	176.333333
2331.715573	171.333333
2333.275588	171.666667
2334.835309	158.000000
2336.393080	164.333333
2337.950556	164.666667
2339.507738	178.000000
2341.062972	168.333333
2342.617913	183.000000
2344.172559	191.000000
2345.726912	170.333333
2347.280972	147.333333
2348.834737	132.000000
2350.386558	191.333333
2351.936437	154.666667
2353.489323	193.666667
2355.036966	144.000000
2356.587618	182.333333
2358.134678	130.666667
2359.683096	188.333333
2361.231223	179.333333
2362.775761	164.666667
2364.321657	124.333333
2365.865615	187.333333
2367.410930	167.333333
2368.952660	168.333333
2370.495747	150.333333
2372.036898	153.000000
2373.577760	145.333333
2375.118333	158.000000
2376.658617	163.666667
2378.198612	159.666667
2379.735029	165.333333
2381.274447	179.666667
2382.810287	188.333333
2384.347485	158.333333
2385.881107	132.666667
2387.417729	186.333333
2388.952421	164.000000
2390.485183	143.666667
2392.017658	140.333333
2393.548205	153.666667
2395.081750	125.666667
2396.610084	165.333333
2398.139774	156.666667
2399.669179	172.666667
2401.198299	181.333333
2402.727134	166.666667
2404.250763	169.000000
2405.779028	190.333333
2407.302091	153.666667
2408.829787	139.666667
2410.350644	176.000000
2411.876134	167.666667
2413.398063	198.000000
2414.921348	148.000000
2416.442711	166.666667
2417.962155	173.000000
2419.482954	145.000000
2421.001835	178.666667
2422.520433	170.333333
2424.037114	171.000000
2425.555149	124.000000
2427.072903	185.000000
2428.587106	155.333333
2430.101028	173.000000
2431.614670	185.666667
2433.129667	190.333333
2434.641115	178.666667
2436.153918	184.666667
2437.664807	175.666667
2439.175418	165.666667
2440.684117	163.666667
2442.195802	224.000000
2443.703944	169.000000
2445.211808	212.000000
2446.719394	158.333333
2448.223439	227.333333
2449.730469	202.333333
2451.235591	238.333333
2452.740436	167.000000
2454.243374	226.000000
2455.746036	222.000000
2457.248421	199.333333
2458.748901	179.333333
2460.250734	203.333333
2461.750662	204.333333
2463.250315	205.000000
2464.749693	191.333333
2466.247168	205.000000
2467.742741	219.666667
2469.241294	190.333333
2470.736319	200.000000
2472.232696	178.333333
2473.725547	179.666667
2475.219751	195.000000
2476.713681	162.000000
2478.204087	195.666667
2479.697471	180.333333
2481.188957	188.333333
2482.678546	179.000000
2484.167863	187.333333
2485.655284	195.666667
2487.145681	164.333333
2488.632560	159.000000
2490.120790	195.000000
2491.605503	186.666667
2493.089947	182.000000
2494.575741	162.333333
2496.059644	167.666667
2497.544897	175.333333
2499.025017	183.333333
2500.508110	168.000000
2501.989312	193.666667
2503.470245	182.333333
2504.949289	179.333333
2506.428064	156.000000
2507.906571	163.666667
2509.384810	149.000000
2510.862780	174.666667
2512.337245	118.666667
2513.814680	142.333333
2515.288611	152.666667
2516.763892	154.333333
2518.238906	160.666667
2519.710419	147.333333
2521.183283	158.333333
2522.654264	164.000000
2524.126595	132.333333
2525.593812	162.333333
2527.063996	129.333333
2528.532299	159.666667
2530.000337	164.000000
2531.468110	97.666667
2532.935618	161.666667
2534.402861	177.000000
2535.866612	161.000000
2537.331713	208.666667
2538.794937	163.000000
2540.259510	172.000000
2541.720595	145.000000
2543.183029	144.000000
2544.645200	163.666667
2546.103885	149.333333
2547.567141	142.000000
2549.025302	184.333333
2550.484811	163.000000
2551.939226	154.000000
2553.398212	158.666667
2554.855326	184.666667
2556.310569	185.000000
2557.765550	180.000000
2559.218663	186.666667
2560.673124	163.333333
2562.125715	155.666667
2563.578047	161.666667
2565.028512	138.666667
2566.481932	168.333333
2567.930270	189.333333
2569.381563	154.333333
2570.830991	153.333333
2572.276946	177.666667
2573.725856	175.000000
2575.171296	162.333333
2576.618083	156.333333
2578.063008	183.000000
2579.507674	140.000000
2580.953688	160.666667
2582.396236	157.666667
2583.840131	198.666667
2585.280561	146.333333
2586.722338	187.666667
2588.162256	155.000000
2589.603521	173.333333
2591.041324	151.333333
2592.482077	184.333333
2593.917768	173.000000
2595.356408	185.666667
2596.793190	134.666667
2598.228117	168.666667
2599.665991	170.333333
2601.098808	181.000000
2602.532972	135.000000
2603.965282	179.000000
2605.398938	195.333333
2606.830741	164.333333
2608.262290	168.000000
2609.693587	174.000000
2611.123031	160.333333
2612.552223	162.333333
2613.979565	184.000000
2615.408252	154.000000
2616.836688	167.666667
2618.261676	170.666667
2619.688011	171.666667
2621.112497	189.666667
2622.538329	205.666667
2623.960717	201.333333
2625.384451	237.000000
2626.806338	203.000000
2628.227976	175.000000
2629.647768	217.666667
2631.068906	238.000000
2632.489794	220.333333
2633.907244	205.000000
2635.327633	237.333333
2636.744585	249.666667
2638.161288	252.000000
2639.577743	264.333333
2640.993950	287.333333
2642.409909	283.333333
2643.824027	312.333333
2645.237897	296.666667
2646.649929	315.666667
2648.063304	326.666667
2649.473250	381.333333
2650.886132	351.000000
2652.295585	384.666667
2653.704792	423.666667
2655.112163	445.666667
2656.522468	460.000000
2657.930938	437.333333
2659.337572	503.000000
2660.743961	531.333333
2662.148516	565.000000
2663.554415	670.000000
2664.958481	643.333333
2666.362302	696.000000
2667.765879	741.333333
2669.167625	800.333333
2670.570714	817.666667
2671.970385	908.333333
2673.371400	883.333333
2674.768999	936.666667
2676.169527	912.000000
2677.566641	997.000000
2678.965098	998.333333
2680.361728	1016.666667
2681.758115	1006.000000
2683.154260	1000.666667
2684.548579	946.333333
2685.944241	925.333333
2687.336494	880.666667
2688.730089	839.666667
2690.121860	864.000000
2691.514974	809.333333
2692.906264	740.333333
2694.295731	682.333333
2695.684958	613.333333
2697.073946	583.000000
2698.464275	548.000000
2699.849621	572.333333
2701.237890	489.666667
2702.624339	481.000000
2704.010549	444.333333
2705.396520	440.333333
2706.779093	387.000000
2708.163008	378.333333
2709.546685	317.000000
2710.930123	329.333333
2712.310167	327.666667
2713.691551	325.000000
2715.071121	296.333333
2716.452031	262.666667
2717.831127	287.333333
2719.208409	288.000000
2720.587032	228.666667
2721.963842	252.000000
2723.340415	239.333333
2724.716753	239.666667
2726.091280	226.666667
2727.467147	186.666667
2728.839627	207.666667
2730.215023	201.000000
2731.585459	200.666667
2732.957236	210.333333
2734.328778	178.666667
2735.698512	179.333333
2737.069587	170.666667
2738.438853	194.000000
2739.807886	150.666667
2741.175113	179.000000
2742.542106	171.333333
2743.908867	183.333333
2745.275396	181.000000
2746.640119	147.666667
2748.004610	181.000000
2749.368870	209.000000
2750.732897	139.333333
2752.096693	162.000000
2753.457115	122.666667
2754.820447	135.000000
2756.178837	167.333333
2757.540137	166.666667
2758.898067	170.666667
2760.258905	181.666667
2761.617944	127.333333
2762.973614	163.333333
2764.332192	128.333333
2765.687403	168.000000
2767.042385	94.333333
2768.395571	138.666667
2769.751662	153.333333
2771.104390	143.666667
2772.456890	146.000000
2773.809161	130.666667
2775.162770	165.333333
2776.513019	129.666667
2777.861473	140.333333
2779.212833	174.000000
2780.560833	141.666667
2781.910171	179.000000
2783.257717	137.000000
2784.605037	176.333333
2785.952130	138.000000
2787.297432	125.333333
2788.642507	163.000000
2789.987357	134.333333
2791.331981	117.333333
2792.673253	125.333333
2794.015863	134.666667
2795.358247	132.666667
2796.700406	125.666667
2798.039216	142.333333
2799.380926	126.666667
2800.719288	161.333333
2802.058986	124.000000
2803.396900	158.666667
2804.733029	120.333333
2806.068934	133.000000
2807.406177	113.000000
2808.741636	152.000000
2810.076872	126.666667
2811.410325	163.333333
2812.745115	107.000000
2814.076565	146.666667
2815.410910	153.000000
2816.740357	149.666667
2818.071141	123.333333
2819.401703	109.000000
2820.730486	105.333333
2822.060605	142.333333
2823.388946	130.333333
2824.717066	122.000000
2826.043408	124.333333
2827.371087	141.000000
2828.695432	116.666667
2830.021114	140.333333
2831.345020	107.666667
2832.668707	115.333333
2833.993729	117.000000
2835.315421	135.666667
2836.636895	126.333333
2837.958150	151.000000
2839.279186	111.000000
2840.598449	155.666667
2841.919048	141.666667
2843.237876	140.000000
2844.556485	112.333333
2845.873323	128.666667
2847.189944	136.000000
2848.506348	124.000000
2849.820982	99.000000
2851.136952	123.000000
2852.449601	88.666667
2853.763585	153.333333
2855.077353	90.666667
2856.390904	141.333333
2857.702689	143.333333
2859.012707	117.333333
2860.324060	102.666667
2861.632098	126.666667
2862.941470	130.000000
2864.250628	146.666667
2865.559570	95.666667
2866.866748	124.000000
2868.172164	116.000000
2869.478913	148.000000
2870.783901	112.000000
2872.088675	121.000000
2873.391687	114.000000
2874.697580	133.666667
2875.998619	136.666667
2877.300992	145.000000
2878.601605	143.666667
2879.903552	130.333333
2881.205285	109.333333
2882.503715	142.333333
2883.803478	109.666667
2885.101484	142.000000
2886.399278	112.000000
2887.695316	140.666667
2888.992687	109.333333
2890.288302	118.000000
2891.583706	135.333333
2892.878899	132.000000
2894.170795	109.666667
2895.465567	140.000000
2896.757042	128.666667
2898.049850	129.666667
2899.342448	98.666667
2900.631752	127.000000
2901.922388	112.666667
2903.211273	143.000000
2904.501490	108.333333
2905.788416	120.333333
2907.076674	130.000000
2908.363183	135.000000
2909.649483	113.000000
2910.935576	116.666667
2912.219920	91.333333
2913.507135	123.333333
2914.789524	125.000000
2916.073245	125.666667
2917.355220	108.000000
2918.636987	133.333333
2919.917010	90.000000
2921.199902	127.333333
2922.481049	102.333333
2923.758914	145.333333
2925.039648	121.333333
2926.317101	129.333333
2927.594348	99.333333
2928.869853	125.666667
2930.148226	134.333333
2931.421785	77.666667
2932.698211	135.333333
2933.972896	109.000000
2935.245840	109.000000
2936.520116	120.666667
2937.792652	113.333333
2939.064983	148.666667
2940.334042	93.666667
2941.605966	97.000000
2942.876152	117.000000
2944.146134	85.666667
2945.415913	120.666667
2946.683956	128.333333
2947.950262	89.000000
2949.216367	148.000000
2950.483801	113.666667
2951.749501	113.333333
2953.014998	111.333333
2954.280293	99.666667
2955.542323	100.000000
2956.805683	89.000000
2958.068842	109.666667
2959.330269	113.666667
2960.593025	105.666667
2961.854049	123.333333
2963.113343	101.333333
2964.372437	142.000000
2965.631330	111.000000
2966.890023	117.666667
2968.148516	133.000000
2969.405280	137.000000
2970.661844	93.000000
2971.916681	136.666667
2973.172846	135.000000
2974.425757	154.666667
2975.679997	77.333333
2976.934037	76.000000
2978.186353	110.666667
2979.438469	127.000000
2980.688861	94.666667
2981.942108	114.666667
2983.190578	98.666667
2984.441903	108.333333
2985.689978	113.333333
2986.937857	115.000000
2988.185538	120.000000
2989.433022	91.000000
2990.678785	96.333333
2991.924352	112.333333
2993.171246	101.000000
2994.414896	98.333333
2995.659874	98.333333
2996.901608	141.333333
2998.146194	101.333333
2999.389061	132.333333
3000.628687	118.666667
3001.871163	131.666667
3003.110399	84.666667
3004.350963	105.666667
3005.589810	76.000000
3006.828463	97.000000
3008.065400	86.000000
3009.303665	122.666667
3010.540214	107.000000
3011.776570	80.333333
3013.012732	87.333333
3014.247180	104.333333
3015.481436	75.000000
3016.715498	113.000000
3017.947848	96.666667
3019.178486	125.666667
3020.411970	64.666667
3021.643742	150.666667
3022.873804	93.333333
3024.103673	126.333333
3025.331833	98.333333
3026.561320	110.666667
3027.789097	94.666667
3029.016683	103.666667
3030.245596	116.333333
3031.469766	121.666667
3032.696779	77.000000
3033.920568	118.333333
3035.145684	107.000000
3036.369093	91.333333
3037.592312	106.666667
3038.813826	115.000000
3040.038181	87.333333
3041.257801	99.333333
3042.478747	121.333333
3043.699504	107.666667
3044.918557	55.666667
3046.138935	126.666667
3047.356097	77.000000
3048.574585	108.666667
3049.791370	77.666667
3051.007968	109.666667
3052.224377	130.333333
3053.437574	110.666667
3054.653608	89.000000
3055.866430	133.333333
3057.082089	89.666667
3058.293025	109.000000
3059.505286	110.000000
3060.717361	121.333333
3061.929248	128.000000
3063.139439	119.000000
3064.349443	89.000000
3065.559261	95.333333
3066.767383	102.666667
3067.975320	85.333333
3069.181561	103.000000
3070.389127	98.333333
3071.594998	98.833333
3072.800685	99.333333
3074.006186	70.666667
3075.209994	118.333333
3076.415126	71.000000
3077.618565	106.000000
3078.820313	87.000000
3080.021876	110.333333
3081.223256	59.333333
3082.424452	105.000000
3083.623958	75.000000
3084.823281	76.666667
3086.023927	78.666667
3087.222883	115.666667
3088.418645	87.000000
3089.617236	121.000000
3090.812633	89.000000
3092.009353	106.000000
3093.202881	78.333333
3094.399237	105.666667
3095.593907	95.000000
3096.785385	92.333333
3097.981196	77.666667
3099.172312	97.000000
3100.364752	66.333333
3101.554004	108.000000
3102.746081	99.000000
3103.936475	79.333333
3105.123683	46.000000
3106.312213	95.333333
3107.502066	95.333333
3108.688735	94.666667
3109.875223	92.000000
3111.061533	96.666667
3112.249164	50.333333
3113.433613	70.666667
3114.616383	57.000000
3115.801975	65.666667
3116.985888	63.333333
3118.168122	109.666667
3119.350177	53.333333
3120.532054	126.000000
3121.713753	79.000000
3122.893775	96.000000
3124.072120	54.000000
3125.253285	96.000000
3126.431275	56.000000
3127.609089	92.333333
3128.786725	47.333333
3129.962686	64.333333
3131.138470	56.666667
3132.315576	81.666667
3133.491007	70.000000
3134.664765	73.333333
3135.836850	84.666667
3137.010257	110.666667
3138.183487	84.333333
3139.355046	114.000000
3140.527925	101.666667
3141.697637	81.333333
3142.868670	111.333333
3144.038033	74.666667
3145.205725	58.333333
3146.376233	85.333333
3147.542083	86.666667
3148.712241	89.333333
3149.877743	77.333333
3151.043070	104.333333
3152.208224	52.000000
3153.373205	118.333333
3154.539505	72.666667
3155.701153	113.000000
3156.864120	67.000000
3158.026915	123.666667
3159.189537	77.000000
3160.350494	96.000000
3161.511278	80.333333
3162.671890	100.000000
3163.830838	57.000000
3164.989615	56.000000
3166.148220	51.000000
3167.306652	88.333333
3168.464914	58.666667
3169.621513	87.000000
3170.776451	87.000000
3171.932708	98.666667
3173.087304	94.000000
3174.241730	88.333333
3175.394496	76.000000
3176.547091	74.333333
3177.699517	105.333333
3178.851773	97.666667
3180.003858	115.666667
3181.152798	94.333333
3182.304544	100.666667
3183.454632	127.000000
3184.603064	60.000000
3185.751326	91.666667
3186.899420	102.666667
3188.047345	99.000000
3189.193614	74.333333
3190.339715	99.000000
3191.484162	71.000000
3192.628441	78.000000
3193.772552	86.000000
3194.917980	87.333333
3196.060270	105.333333
3197.202393	54.666667
3198.344348	86.333333
3199.486136	124.666667
3200.627757	77.333333
3201.766243	87.000000
3202.906046	82.333333
3204.047167	69.666667
3205.185153	72.000000
3206.321490	94.333333
3207.457661	81.000000
3208.595149	86.666667
3209.730989	77.000000
3210.868146	110.333333
3212.000690	87.000000
3213.137516	83.666667
3214.269730	68.666667
3215.403261	84.333333
3216.536628	88.666667
3217.666867	110.333333
3218.799904	71.000000
3219.929815	103.000000
3221.061042	56.000000
3222.189145	76.666667
3223.320044	79.000000
3224.449299	100.666667
3225.576911	85.333333
3226.701400	77.333333
3227.830165	94.333333
3228.955808	95.000000
3230.081289	55.666667
3231.205128	124.666667
3232.331761	71.333333
3233.453797	105.333333
3234.577149	68.666667
3235.700339	98.000000
3236.823366	73.666667
3237.944755	101.333333
3239.065981	94.333333
3240.185570	120.666667
3241.304997	85.000000
3242.422786	109.666667
3243.543367	107.333333
3244.660835	97.666667
3245.778142	103.000000
3246.895289	110.333333
3248.010800	114.666667
3249.127625	124.666667
3250.241341	101.333333
3251.357846	125.666667
3252.472717	65.666667
3253.584479	84.333333
3254.696081	85.666667
3255.808999	71.666667
3256.921757	61.000000
3258.031409	138.333333
3259.142376	76.000000
3260.253184	70.000000
3261.362360	67.000000
3262.469906	78.666667
3263.578765	56.333333
3264.687467	86.333333
3265.793066	87.000000
3266.899979	84.000000
3268.005263	78.666667
3269.111861	82.000000
3270.215359	88.000000
3271.320172	64.333333
3272.424827	73.666667
3273.526383	52.333333
3274.627783	81.666667
3275.730497	101.000000
3276.833055	71.666667
3277.932516	90.333333
3279.034761	49.333333
3280.133910	82.666667
3281.231435	67.333333
3282.328804	96.666667
3283.428955	85.000000
3284.526014	71.666667
3285.622917	49.333333
3286.719665	64.666667
3287.811855	83.000000
3288.908293	60.000000
3290.003109	49.666667
3291.097771	99.666667
3292.190811	85.000000
3293.283696	53.000000
3294.374962	72.666667
3295.467539	64.333333
3296.558497	55.000000
3297.647835	94.333333
3298.737020	78.000000
3299.827518	81.333333
3300.914931	68.666667
3302.002191	74.000000
3303.090764	46.333333
3304.179185	104.333333
3305.263058	79.000000
3306.351173	99.333333
3307.436206	85.000000
3308.519624	80.333333
3309.604354	61.333333
3310.687468	55.000000
3311.771895	69.333333
3312.853243	79.333333
3313.935903	56.333333
3315.016949	88.000000
3316.097844	60.333333
3317.177125	72.666667
3318.256256	72.333333
3319.336699	96.000000
3320.414067	114.000000
3321.492747	76.333333
3322.569815	49.666667
3323.646734	76.333333
3324.722041	57.000000
3325.797199	58.666667
3326.873668	58.333333
3327.947067	77.000000
3329.020317	85.000000
3330.094877	68.333333
3331.167829	60.666667
3332.239172	61.333333
3333.311826	49.333333
3334.381414	72.666667
3335.452312	69.666667
3336.521603	68.666667
3337.592205	46.000000
3338.661200	81.333333
3339.728589	44.333333
3340.794373	72.333333
3341.864383	72.333333
3342.931330	80.333333
3343.995215	56.000000
3345.061868	62.666667
3346.126916	82.333333
3347.190361	41.000000
3348.253660	53.333333
3349.316812	73.000000
3350.379818	41.333333
3351.442678	88.666667
3352.503936	70.333333
3353.562137	65.333333
3354.624558	71.000000
3355.683924	57.000000
3356.743144	74.333333
3357.803673	65.333333
3358.859694	60.333333
3359.918478	62.000000
3360.972755	56.666667
3362.029796	81.666667
3363.085238	37.000000
3364.141990	51.666667
3365.197143	39.666667
3366.250699	118.000000
3367.302659	65.000000
3368.357380	73.000000
3369.409052	65.333333
3370.460581	84.333333
3371.513418	47.333333
3372.563208	82.666667
3373.614307	47.666667
3374.662360	79.333333
3375.713172	64.000000
3376.760940	66.666667
3377.808565	42.333333
3378.856047	84.666667
3379.901937	90.333333
3380.949135	73.000000
3381.993291	54.000000
3383.040205	84.333333
3384.085527	52.000000
3385.127808	86.000000
3386.169949	45.000000
3387.213397	83.666667
3388.256704	70.000000
3389.298422	102.333333
3390.339998	80.666667
3391.381433	113.333333
3392.421280	58.666667
3393.459538	80.666667
3394.499104	43.666667
3395.538530	53.333333
3396.576368	79.333333
3397.612619	59.333333
3398.648731	72.666667
3399.686150	81.000000
3400.720536	51.000000
3401.756229	71.333333
3402.791783	33.000000
3403.824306	56.000000
3404.859582	104.000000
3405.891827	68.000000
3406.923934	55.666667
3407.954457	94.000000
3408.986287	28.666667
3410.017979	98.333333
3411.046643	67.333333
3412.075170	60.000000
3413.105003	73.000000
3414.134699	60.000000
3415.161369	69.000000
3416.189346	69.333333
3417.214298	78.333333
3418.242000	58.666667
3419.266679	36.000000
3420.292664	55.000000
3421.317069	48.000000
3422.341338	56.333333
3423.364028	71.666667
3424.386582	44.666667
3425.410442	68.666667
3426.431282	103.000000
3427.451986	67.333333
3428.473997	89.666667
3429.492989	11.000000
3430.511845	42.666667
3431.532008	56.666667
3432.549154	76.666667
