-116.707459	7.000000
-114.037859	31.000000
-111.371194	-7.333333
-108.705281	-11.666667
-106.042300	11.333333
-103.377890	23.666667
-100.716410	28.000000
-98.053501	3.333333
-95.395698	2.000000
-92.736466	5.666667
-90.077982	0.666667
-87.422422	-1.666667
-84.765434	-24.000000
-82.113544	19.333333
-79.460224	18.333333
-76.809823	13.000000
-74.157993	-23.333333
-71.511254	9.000000
-68.863086	-20.000000
-66.215660	-12.666667
-63.571148	22.000000
-60.925208	8.333333
-58.284349	22.666667
-55.642061	-21.666667
-53.002682	18.000000
-50.361873	5.000000
-47.721805	-8.333333
-45.086809	40.666667
-42.450385	20.333333
-39.816863	17.666667
-37.181913	3.666667
-34.552028	45.333333
-31.918551	-3.333333
-29.290136	-18.000000
-26.662455	-1.000000
-24.033345	60.333333
-21.409292	8.666667
-18.781650	14.666667
-16.159061	59.333333
-13.537204	23.000000
-10.916077	90.333333
-8.295680	236.333333
-5.678172	811.000000
-3.059235	2595.333333
-0.443183	6441.333333
2.172140	9364.000000
4.786736	5334.333333
7.398449	744.666667
10.011591	48.000000
12.619699	40.333333
15.231389	49.333333
17.838048	6.333333
20.446135	13.000000
23.053498	16.666667
25.655836	7.666667
28.261752	32.666667
30.862646	18.333333
33.464968	-20.666667
36.062273	18.000000
38.663153	-6.666667
41.259018	31.000000
43.856312	19.333333
46.452886	-16.333333
49.044451	4.666667
51.637444	-8.666667
54.227576	18.000000
56.819136	13.000000
59.407836	28.666667
61.997963	5.666667
64.583091	-1.666667
67.169647	-18.000000
69.755489	47.666667
72.338477	1.333333
74.922891	12.666667
77.500177	3.333333
80.081029	-17.000000
82.659032	3.333333
85.236325	-8.666667
87.815044	1.666667
90.388781	19.333333
92.963946	0.666667
95.536267	-0.666667
98.107880	21.666667
100.676653	7.666667
103.246853	6.333333
105.814215	8.000000
108.383002	32.000000
110.948953	18.666667
113.512069	-10.333333
116.078741	42.333333
118.636192	13.666667
121.199328	69.666667
123.757504	38.000000
126.319235	69.000000
128.876009	87.000000
131.434210	171.000000
133.987457	231.000000
136.540007	327.333333
139.096107	470.000000
141.647259	663.000000
144.197714	790.000000
146.747471	890.333333
149.294409	993.333333
151.840652	1028.000000
154.388320	1046.333333
156.935292	1052.666667
159.477329	1039.666667
162.018672	1008.666667
164.559322	1008.333333
167.101398	988.000000
169.640662	1031.000000
172.177118	1041.333333
174.712882	1066.333333
177.250072	1015.000000
179.786571	1033.000000
182.320264	1016.333333
184.851153	1037.333333
187.381355	1016.666667
189.912981	988.000000
192.441806	984.000000
194.967832	1003.000000
197.493172	1001.666667
200.019937	994.000000
202.543906	990.000000
205.067190	939.666667
207.589789	991.666667
210.109595	977.333333
212.628718	1005.666667
215.147158	984.333333
217.667022	1036.000000
220.179885	979.000000
222.696279	1005.333333
225.211991	1058.333333
227.722813	1046.666667
230.235060	1073.000000
232.744525	1084.333333
235.253311	1061.000000
237.761418	1090.333333
240.270950	1045.000000
242.775601	1048.000000
245.279576	1075.666667
247.784975	1129.666667
250.285499	1074.333333
252.789547	1056.666667
255.286623	1090.000000
257.787223	1077.333333
260.285051	1040.666667
262.782206	1018.666667
265.278688	1022.666667
267.770307	1035.666667
270.265446	1067.333333
272.757818	1071.000000
275.249520	1042.666667
277.738459	1112.666667
280.228822	1053.666667
282.716422	1090.000000
285.201263	1126.333333
287.689619	1142.333333
290.171035	1109.666667
292.655965	1163.666667
295.136050	1190.666667
297.619647	1207.333333
300.098401	1214.666667
302.578579	1289.000000
305.056004	1199.666667
307.532766	1173.333333
310.008865	1205.000000
312.482215	1096.000000
314.954903	1103.333333
317.426930	1136.333333
319.898296	1119.333333
322.366917	1152.000000
324.834880	1152.000000
327.304264	1135.333333
329.768826	1084.333333
332.236892	1022.333333
334.700138	1061.333333
337.162726	1016.333333
339.624658	1041.000000
342.085933	1021.666667
344.544474	917.666667
347.004437	957.000000
349.461667	969.000000
351.918243	873.333333
354.374165	926.333333
356.827357	943.333333
359.281972	933.666667
361.731785	953.666667
364.185094	910.666667
366.633605	938.000000
369.081464	896.000000
371.530746	867.000000
373.975234	816.000000
376.421144	827.000000
378.866404	819.000000
381.308946	827.666667
383.750840	799.000000
386.192087	833.333333
388.630618	793.333333
391.070571	808.333333
393.507810	828.000000
395.942337	810.666667
398.380352	770.666667
400.813590	813.666667
403.248249	800.666667
405.678136	754.666667
408.111508	796.000000
410.540110	776.000000
412.968070	775.000000
415.397452	772.333333
417.822068	744.666667
420.248106	768.000000
422.673503	779.666667
425.098260	730.666667
427.518259	744.000000
429.939679	782.666667
432.358402	719.333333
434.778546	718.000000
437.195995	692.666667
439.614864	700.000000
442.031040	684.333333
444.442468	669.000000
446.857374	640.000000
449.269589	637.000000
451.681170	623.666667
454.092117	634.000000
456.500378	580.666667
458.908006	599.000000
461.315002	605.000000
463.721367	569.666667
466.125049	608.333333
468.528101	594.666667
470.930523	576.666667
473.332315	614.000000
475.731430	600.000000
478.131964	573.000000
480.531869	639.333333
482.927051	636.000000
485.325700	606.666667
487.719629	743.000000
490.112932	670.666667
492.505609	715.666667
494.897661	784.333333
497.291131	828.666667
499.679889	960.000000
502.065981	1208.333333
504.453493	1474.000000
506.840382	2049.000000
509.224607	2756.333333
511.610250	4005.000000
513.993232	5722.333333
516.373553	7454.000000
518.755293	8730.666667
521.134374	8594.666667
523.514874	7590.333333
525.892716	6268.666667
528.267903	5324.666667
530.642472	4352.666667
533.018459	3722.000000
535.391794	3313.000000
537.766546	2857.666667
540.136613	2610.666667
542.506064	2374.666667
544.876933	2159.333333
547.243122	1959.333333
549.610729	1860.333333
551.975690	1721.000000
554.340038	1639.000000
556.703773	1562.000000
559.068926	1520.666667
561.429407	1433.333333
563.791306	1472.000000
566.150564	1331.333333
568.507185	1338.666667
570.867250	1327.000000
573.220624	1270.666667
575.577443	1167.666667
577.931627	1189.666667
580.285202	1127.333333
582.638170	1159.333333
584.988505	1076.666667
587.340258	1083.333333
589.685334	1044.333333
592.035874	1003.000000
594.379740	963.000000
596.729068	980.666667
599.073747	975.333333
601.415802	972.000000
603.759274	951.000000
606.100123	914.000000
608.440370	943.000000
610.777996	961.333333
613.119057	931.666667
615.455480	1055.666667
617.793320	1066.000000
620.128543	1087.666667
622.461150	1069.666667
624.795173	1066.333333
627.126582	995.000000
629.457393	946.333333
631.787607	908.666667
634.117222	890.000000
636.442214	851.666667
638.772648	935.000000
641.098461	868.333333
643.421666	864.666667
645.746288	835.000000
648.068304	872.666667
650.389726	858.333333
652.708546	752.666667
655.028781	801.666667
657.348423	799.000000
659.665464	797.000000
661.981913	821.333333
664.295764	786.333333
666.611031	825.000000
668.923701	829.333333
671.237786	755.000000
673.547271	798.000000
675.858172	808.666667
678.166480	744.000000
680.474200	771.666667
682.783334	780.333333
685.087876	744.000000
687.391832	768.666667
689.695202	696.000000
691.999986	715.000000
694.300184	721.333333
696.601796	705.333333
698.902823	665.333333
701.199269	645.000000
703.497130	673.333333
705.794407	639.000000
708.091101	668.333333
710.383219	647.000000
712.678748	675.333333
714.969703	601.333333
717.262073	597.666667
719.551868	650.000000
721.841082	615.000000
724.129717	647.000000
726.415779	663.000000
728.703256	640.333333
730.988161	680.666667
733.272489	646.333333
735.554248	662.333333
737.837421	617.666667
740.120017	612.666667
742.398057	613.000000
744.677512	630.333333
746.956390	634.666667
749.234694	570.666667
751.508448	572.333333
753.783615	614.333333
756.058209	601.000000
758.330244	611.666667
760.603692	637.666667
762.874582	582.666667
765.142916	621.666667
767.412663	603.000000
769.679856	596.666667
771.946478	598.666667
774.212530	592.000000
776.476031	632.666667
778.740945	607.333333
781.005289	618.000000
783.265104	596.000000
785.526331	620.333333
787.786991	603.666667
790.045105	641.333333
792.300674	590.666667
794.559634	658.333333
796.812095	622.000000
799.069922	596.666667
801.323231	575.333333
803.574000	635.333333
805.826181	600.333333
808.075823	619.666667
810.326878	600.666667
812.573421	626.000000
814.821376	614.000000
817.066797	618.333333
819.313629	617.333333
821.559900	613.333333
823.801666	590.333333
826.046816	577.000000
828.285493	603.333333
830.527552	599.666667
832.765113	586.000000
835.004086	581.333333
837.240532	599.000000
839.478389	600.333333
841.713721	581.666667
843.946530	601.666667
846.180750	582.666667
848.412447	593.000000
850.643590	619.666667
852.874178	602.333333
855.104212	597.000000
857.333692	580.000000
859.558690	576.000000
861.787063	569.333333
864.010956	582.333333
866.236261	588.000000
868.457090	530.666667
870.681291	608.333333
872.901019	569.333333
875.122157	616.666667
877.342745	570.000000
879.560824	604.333333
881.780312	598.333333
883.995334	591.000000
886.209808	545.333333
888.423735	560.666667
890.637115	571.666667
892.849947	531.000000
895.062233	550.333333
897.272016	568.333333
899.481254	578.000000
901.689947	558.000000
903.896141	581.333333
906.103744	577.333333
908.308849	577.000000
910.513411	560.000000
912.715478	623.000000
914.918954	591.666667
917.119936	591.333333
919.320376	623.666667
921.522225	654.666667
923.717683	683.000000
925.916500	721.000000
928.110878	802.666667
930.308614	850.333333
932.501914	973.333333
934.696623	1025.666667
936.888846	1133.333333
939.080530	1176.000000
941.271677	1236.666667
943.460341	1267.666667
945.648469	1311.666667
947.834116	1203.666667
950.023115	1216.666667
952.207691	1257.666667
954.391732	1197.666667
956.579123	1238.333333
958.758210	1255.000000
960.940648	1281.000000
963.122552	1201.666667
965.301981	1276.000000
967.478938	1328.333333
969.657303	1277.666667
971.837075	1287.333333
974.010498	1246.666667
976.187267	1303.000000
978.359629	1231.333333
980.533399	1301.333333
982.702765	1209.666667
984.875475	1171.333333
987.045720	1115.333333
989.215436	1021.333333
991.384623	883.000000
993.549413	838.666667
995.717544	813.000000
997.881281	716.000000
1000.046424	722.666667
1002.209108	693.000000
1004.371267	680.333333
1006.530969	697.000000
1008.690146	613.333333
1010.850730	633.000000
1013.008859	628.333333
1015.166465	645.666667
1017.323547	604.666667
1019.480105	577.666667
1021.632284	557.666667
1023.785870	571.000000
1025.938934	550.000000
1028.089549	587.666667
1030.241571	514.000000
1032.389219	532.333333
1034.540199	520.000000
1036.686808	513.333333
1038.832898	511.666667
1040.978470	489.000000
1043.125447	496.333333
1045.266135	521.333333
1047.410153	464.000000
1049.551730	479.666667
1051.692791	498.333333
1053.835256	490.666667
1055.971442	535.000000
1058.110953	461.666667
1060.246110	508.666667
1062.384591	506.000000
1064.518718	478.333333
1066.652332	491.000000
1068.787351	486.666667
1070.918020	522.666667
1073.050094	487.666667
1075.179739	482.333333
1077.308872	478.333333
1079.437493	468.666667
1081.565603	501.000000
1083.691287	489.000000
1085.816461	502.666667
1087.943039	444.666667
1090.065279	487.000000
1092.188924	488.000000
1094.308234	481.666667
1096.432774	469.666667
1098.551068	458.333333
1100.670767	487.000000
1102.788047	451.333333
1104.904821	463.666667
1107.021088	499.333333
1109.134939	473.333333
1111.250195	461.333333
1113.361127	470.666667
1115.475372	446.666667
1117.585296	494.666667
1119.696624	484.000000
1121.807447	458.666667
1123.913954	440.333333
1126.023771	476.000000
1128.129273	432.000000
1130.236178	476.333333
1132.336868	461.333333
1134.442770	416.000000
1136.544363	426.666667
1138.647359	438.333333
1140.749854	440.333333
1142.846142	460.333333
1144.947637	413.000000
1147.044830	414.333333
1149.141525	407.000000
1151.237721	475.666667
1153.333420	455.000000
1155.428620	477.000000
1157.521424	484.333333
1159.615631	433.000000
1161.703646	422.000000
1163.796859	433.666667
1165.883884	425.333333
1167.974208	431.000000
1170.060244	436.333333
1172.149579	434.333333
1174.232732	451.333333
1176.317287	473.666667
1178.403244	430.000000
1180.484919	433.666667
1182.567996	428.333333
1184.648687	445.333333
1186.728886	419.000000
1188.808594	446.666667
1190.887811	479.333333
1192.964646	443.666667
1195.039100	426.000000
1197.116845	457.000000
1199.190321	438.666667
1201.265197	441.000000
1203.335806	458.666667
1205.407816	422.333333
1207.477451	430.333333
1209.548486	391.000000
1211.619033	478.333333
1213.685319	408.666667
1215.753006	419.333333
1217.818321	436.000000
1219.885036	447.000000
1221.947495	481.000000
1224.013239	399.666667
1226.074729	411.333333
1228.137620	397.333333
1230.198143	359.000000
1232.258182	402.000000
1234.317739	438.000000
1236.374930	399.333333
1238.431640	409.000000
1240.485986	425.333333
1242.543614	404.000000
1244.598879	421.000000
1246.649903	416.000000
1248.702327	392.333333
1250.754271	415.333333
1252.803857	394.000000
1254.852964	422.000000
1256.901593	428.666667
1258.949743	410.000000
1260.997414	423.666667
1263.040855	443.333333
1265.087572	473.666667
1267.131935	451.333333
1269.175822	391.000000
1271.217357	442.000000
1273.256543	397.000000
1275.299002	470.333333
1277.337238	452.000000
1279.376873	528.333333
1281.416033	407.000000
1283.450974	411.333333
1285.487314	432.000000
1287.521310	445.000000
1289.556703	414.666667
1291.587884	437.666667
1293.620462	424.333333
1295.652569	418.666667
1297.682335	433.333333
1299.713498	429.333333
1301.740455	433.333333
1303.768809	419.666667
1305.792958	410.333333
1307.820373	411.000000
1309.843585	395.000000
1311.868195	419.333333
1313.890471	379.666667
1315.914144	384.666667
1317.935484	397.666667
1319.956356	413.666667
1321.976761	372.000000
1323.992973	373.000000
1326.010582	370.666667
1328.025863	386.333333
1330.044403	389.666667
1332.058754	388.333333
1334.070779	414.000000
1336.086061	402.666667
1338.097158	410.666667
1340.109652	412.333333
1342.117963	409.000000
1344.129529	401.333333
1346.135057	391.333333
1348.143840	424.000000
1350.148445	406.333333
1352.156304	427.333333
1354.163701	387.333333
1356.165067	450.000000
1358.167829	410.666667
1360.170132	446.666667
1362.171975	413.000000
1364.173358	418.333333
1366.172428	418.666667
1368.171039	413.000000
1370.169192	398.333333
1372.166886	458.000000
1374.160418	390.000000
1376.155345	442.666667
1378.149816	426.333333
1380.143830	451.333333
1382.135537	389.000000
1384.126789	410.000000
1386.115735	395.000000
1388.106076	388.333333
1390.095962	343.000000
1392.083544	385.333333
1394.070673	405.666667
1396.055500	389.000000
1398.041722	404.666667
1400.025644	396.666667
1402.009113	394.666667
1403.992129	378.333333
1405.972848	367.000000
1407.954961	404.000000
1409.934778	392.666667
1411.914143	417.000000
1413.889370	380.666667
1415.867835	399.000000
1417.844007	383.000000
1419.819730	364.000000
1421.795003	391.666667
1423.767985	377.000000
1425.740519	371.000000
1427.712605	356.000000
1429.684244	422.333333
1431.651754	354.333333
1433.624338	382.333333
1435.589116	355.333333
1437.558967	378.000000
1439.524694	379.666667
1441.491813	374.666667
1443.456649	370.000000
1445.417365	375.000000
1447.383149	406.000000
1449.342978	405.000000
1451.304201	374.333333
1453.266816	400.333333
1455.225316	369.000000
1457.183373	411.333333
1459.140989	409.333333
1461.098162	400.666667
1463.053060	437.666667
1465.009351	382.000000
1466.963367	394.333333
1468.916942	387.666667
1470.868245	371.333333
1472.820941	396.666667
1474.771364	384.333333
1476.721349	335.000000
1478.670895	360.000000
1480.618172	355.000000
1482.563181	347.000000
1484.509583	360.666667
1486.455547	366.333333
1488.401074	375.333333
1490.344335	395.000000
1492.287161	399.000000
1494.227723	377.000000
1496.169676	369.666667
1498.109367	411.000000
1500.048624	354.333333
1501.987445	368.000000
1503.924007	382.333333
1505.861960	408.666667
1507.797654	399.333333
1509.732915	366.000000
1511.665920	378.000000
1513.598492	368.333333
1515.530632	368.333333
1517.462340	425.666667
1519.391794	401.666667
1521.322639	414.333333
1523.253052	380.666667
1525.179393	401.000000
1527.107125	347.333333
1529.032606	406.333333
1530.957658	409.666667
1532.882281	441.333333
1534.806475	400.666667
1536.728421	398.000000
1538.651758	392.666667
1540.572848	383.000000
1542.491694	424.000000
1544.411930	382.000000
1546.329923	398.666667
1548.247489	425.333333
1550.162813	382.666667
1552.079527	415.333333
1553.992186	422.000000
1555.908049	475.333333
1557.821672	449.666667
1559.733057	494.000000
1561.645832	480.000000
1563.554557	448.333333
1565.464671	507.666667
1567.374362	521.666667
1569.283630	535.000000
1571.190664	596.000000
1573.095465	653.333333
1575.001655	718.333333
1576.905613	796.333333
1578.809150	874.000000
1580.712267	972.000000
1582.613154	1097.333333
1584.515430	1207.333333
1586.415478	1218.333333
1588.316913	1107.666667
1590.214315	963.000000
1592.111298	804.666667
1594.007863	743.000000
1595.905816	633.333333
1597.797934	595.000000
1599.693245	523.000000
1601.588139	543.000000
1603.480811	491.333333
1605.373066	454.333333
1607.263102	446.333333
1609.152722	508.666667
1611.041927	470.666667
1612.930717	486.000000
1614.817289	451.666667
1616.705249	450.333333
1618.589192	455.666667
1620.474522	409.666667
1622.359439	439.666667
1624.242142	418.000000
1626.126232	370.000000
1628.006310	374.666667
1629.887776	371.000000
1631.767031	363.333333
1633.647672	356.333333
1635.522509	386.333333
1637.402327	356.333333
1639.278141	354.000000
1641.153544	340.666667
1643.030333	376.000000
1644.901326	319.000000
1646.775500	345.666667
1648.645675	334.666667
1650.519032	357.000000
1652.390184	332.333333
1654.259136	337.333333
1656.129472	335.666667
1657.995816	330.000000
1659.863545	316.333333
1661.729075	359.666667
1663.595991	328.000000
1665.458918	345.333333
1667.323230	333.666667
1669.185346	354.000000
1671.047057	282.333333
1672.910154	333.666667
1674.771055	285.666667
1676.629764	332.333333
1678.488069	309.666667
1680.347759	314.000000
1682.201681	311.666667
1684.058777	371.333333
1685.915470	336.333333
1687.768186	314.666667
1689.624074	299.333333
1691.475988	319.666667
1693.327501	364.666667
1695.178613	319.666667
1697.029325	323.333333
1698.879635	333.333333
1700.727762	315.666667
1702.577273	278.333333
1704.421035	338.666667
1706.269746	298.000000
1708.112711	293.333333
1709.958843	309.666667
1711.801012	315.666667
1713.646347	283.000000
1715.485941	311.000000
1717.326919	314.333333
1719.169280	296.000000
1721.007685	298.666667
1722.847473	237.333333
1724.685086	285.333333
1726.522303	251.666667
1728.357347	319.333333
1730.193774	282.000000
1732.028029	293.000000
1733.861889	242.000000
1735.695355	313.333333
1737.524876	318.333333
1739.357555	282.333333
1741.186290	312.000000
1743.018182	312.000000
1744.846132	280.000000
1746.673691	302.666667
1748.500857	307.000000
1750.327632	280.666667
1752.154015	296.333333
1753.976462	332.666667
1755.802064	288.666667
1757.623731	286.333333
1759.446780	277.000000
1761.267667	299.333333
1763.088166	250.333333
1764.910045	285.000000
1766.726226	297.666667
1768.545558	275.000000
1770.360963	260.666667
1772.179518	311.000000
1773.994148	276.000000
1775.808391	271.000000
1777.622248	281.333333
1779.435718	274.000000
1781.247035	298.666667
1783.059732	292.666667
1784.872044	250.333333
1786.680438	303.000000
1788.490212	277.666667
1790.296072	307.666667
1792.105077	257.000000
1793.910169	259.333333
1795.716642	254.000000
1797.522731	291.000000
1799.324909	253.666667
1801.130232	306.333333
1802.931646	236.000000
1804.734440	239.000000
1806.533328	269.000000
1808.333597	254.333333
1810.133484	264.333333
1811.931229	285.666667
1813.728594	235.000000
1815.525579	326.666667
1817.322183	270.333333
1819.116648	316.333333
1820.912492	275.666667
1822.702681	280.333333
1824.497767	289.000000
1826.287201	288.666667
1828.079771	283.666667
1829.870206	305.000000
1831.658507	288.666667
1833.449943	322.000000
1835.235733	261.000000
1837.022903	311.666667
1838.807941	325.000000
1840.596113	294.666667
1842.380399	305.666667
1844.162555	314.333333
1845.946091	289.333333
1847.727498	329.333333
1849.510284	307.333333
1851.289189	291.666667
1853.069474	348.000000
1854.847632	321.333333
1856.627169	356.000000
1858.404581	333.000000
1860.179869	311.000000
1861.956535	301.000000
1863.731079	320.666667
1865.507001	355.333333
1867.277302	284.000000
1869.050731	280.333333
1870.822040	324.000000
1872.592978	317.333333
1874.365294	316.000000
1876.131996	310.666667
1877.901824	287.000000
1879.667788	314.000000
1881.436875	279.333333
1883.202101	323.666667
1884.966959	307.333333
1886.733194	302.666667
1888.495570	279.000000
1890.257579	290.666667
1892.019220	272.666667
1893.780495	311.000000
1895.541402	252.333333
1897.301943	272.666667
1899.060374	245.000000
1900.818439	276.666667
1902.574397	302.333333
1904.331731	264.000000
1906.088700	279.666667
1907.843562	230.000000
1909.596320	274.666667
1911.348713	276.333333
1913.102483	301.666667
1914.854149	307.000000
1916.603713	260.333333
1918.354652	255.666667
1920.105229	267.333333
1921.851966	244.333333
1923.600080	266.000000
1925.346094	286.333333
1927.093483	237.333333
1928.838775	242.333333
1930.581969	257.333333
1932.326538	261.666667
1934.069012	279.666667
1935.811125	260.333333
1937.552878	228.666667
1939.294271	274.000000
1941.033571	257.666667
1942.772512	272.666667
1944.511094	275.666667
1946.247585	272.000000
1947.983718	286.833333
1949.721225	301.666667
1951.454910	288.333333
1953.189970	230.000000
1954.922941	278.666667
1956.655556	252.333333
1958.387815	224.333333
1960.119717	266.333333
1961.849533	279.666667
1963.577264	304.000000
1965.306370	255.666667
1967.035121	235.333333
1968.761788	262.333333
1970.488101	277.333333
1972.215787	212.000000
1973.937937	252.000000
1975.663188	234.333333
1977.384632	265.333333
1979.109177	273.333333
1980.831641	286.333333
1982.550303	269.666667
1984.272063	265.333333
1985.990021	322.000000
1987.709352	283.666667
1989.424884	273.000000
1991.145236	280.333333
1992.861790	249.000000
1994.574547	287.666667
1996.290400	261.666667
1998.004181	258.666667
1999.717612	260.000000
2001.428972	261.333333
2003.141704	244.666667
2004.850646	260.666667
2006.562680	247.000000
2008.269206	261.333333
2009.978823	240.666667
2011.686374	242.666667
2013.393576	281.666667
2015.098713	250.333333
2016.803504	250.666667
2018.509666	275.666667
2020.212046	261.000000
2021.915797	243.666667
2023.617486	262.333333
2025.318830	255.000000
2027.019828	219.666667
2028.718765	232.000000
2030.419074	270.000000
2032.115608	238.333333
2033.813513	222.000000
2035.509359	224.000000
2037.208291	204.333333
2038.901737	231.333333
2040.596554	242.000000
2042.291029	272.333333
2043.981735	252.333333
2045.675525	247.666667
2047.365548	210.666667
2049.056942	221.333333
2050.746283	241.000000
2052.436994	232.000000
2054.123942	215.333333
2055.810551	212.333333
2057.498529	216.000000
2059.182748	274.666667
2060.868338	228.666667
2062.553588	232.333333
2064.236789	236.666667
2065.921361	271.333333
2067.600470	241.666667
2069.284364	269.666667
2070.962797	253.333333
2072.644308	252.333333
2074.322067	228.666667
2075.999490	264.333333
2077.678282	253.333333
2079.355032	265.666667
2081.029740	257.666667
2082.705817	246.000000
2084.379853	225.000000
2086.053555	269.333333
2087.726921	230.666667
2089.398248	247.000000
2091.069241	202.000000
2092.739900	259.666667
2094.410225	273.333333
2096.080216	268.333333
2097.748171	199.666667
2099.415793	236.666667
2101.081380	258.000000
2102.748336	258.333333
2104.413259	234.666667
2106.077850	256.000000
2107.740409	254.000000
2109.404336	241.000000
2111.066232	188.333333
2112.727798	268.000000
2114.389032	270.333333
2116.048238	231.333333
2117.707113	199.333333
2119.365659	221.666667
2121.023874	216.666667
2122.678367	247.333333
2124.335924	192.000000
2125.993152	238.333333
2127.646658	240.666667
2129.301532	222.000000
2130.952687	213.666667
2132.606905	222.666667
2134.257406	209.333333
2135.909273	245.000000
2137.555732	246.333333
2139.206946	188.333333
2140.854446	181.333333
2142.503313	220.333333
2144.150161	219.000000
2145.796684	209.333333
2147.442881	272.333333
2149.085370	213.666667
2150.730917	268.000000
2152.372757	230.000000
2154.017654	180.666667
2155.658845	260.333333
2157.299714	243.333333
2158.940258	263.000000
2160.578790	228.333333
2162.218688	238.666667
2163.854886	253.333333
2165.492450	271.000000
2167.129692	224.666667
2168.764924	263.666667
2170.399835	248.666667
2172.034423	265.666667
2173.668691	223.000000
2175.299265	271.333333
2176.932891	229.666667
2178.562825	236.333333
2180.194124	230.000000
2181.823418	224.333333
2183.452393	243.333333
2185.081048	265.000000
2186.709384	248.000000
2188.335718	229.333333
2189.961733	210.333333
2191.585746	243.333333
2193.211125	205.333333
2194.834503	260.666667
2196.459246	210.666667
2198.080308	193.666667
2199.701053	233.666667
2201.323163	263.000000
2202.943275	248.666667
2204.561390	245.333333
2206.179190	223.000000
2207.796675	280.000000
2209.413844	247.333333
2211.030698	260.333333
2212.647236	242.000000
2214.261782	259.666667
2215.874335	235.333333
2217.488252	277.666667
2219.100178	237.666667
2220.713467	248.666667
2222.324766	228.333333
2223.934075	243.666667
2225.544748	212.000000
2227.153432	252.333333
2228.761803	238.666667
2230.368188	230.000000
2231.975936	234.000000
2233.581697	216.000000
2235.187147	224.333333
2236.790612	203.333333
2238.395440	237.666667
2239.998284	228.000000
2241.599145	227.333333
2243.201369	203.000000
2244.801611	239.333333
2246.403215	209.666667
2248.001166	184.666667
2249.600480	241.333333
2251.197814	240.333333
2252.794840	253.333333
2254.393228	215.333333
2255.987967	235.000000
2257.580729	248.000000
2259.174854	225.000000
2260.770340	228.666667
2262.362181	234.333333
2263.953716	255.000000
2265.546613	236.333333
2267.134200	221.666667
2268.726483	236.333333
2270.313460	217.666667
2271.903464	238.333333
2273.488164	227.666667
2275.077558	234.000000
2276.661650	210.666667
2278.247102	235.000000
2279.830586	236.666667
2281.417095	210.666667
2282.999971	221.666667
2284.582544	203.666667
2286.164813	239.333333
2287.743452	224.333333
2289.325116	213.333333
2290.903151	237.000000
2292.484209	196.666667
2294.061640	201.166667
2295.637108	205.666667
2297.215598	240.666667
2298.790464	211.333333
2300.365029	222.666667
2301.939294	196.666667
2303.513258	237.000000
2305.086921	224.666667
2306.660285	229.000000
2308.230030	221.333333
2309.799476	214.666667
2311.371940	231.000000
2312.939130	229.000000
2314.509338	181.333333
2316.075931	241.000000
2317.643884	180.666667
2319.209881	222.666667
2320.775581	184.666667
2322.340983	244.333333
2323.904432	191.000000
2325.469240	229.333333
2327.030440	227.666667
2328.594654	242.333333
2330.153606	239.333333
2331.715573	267.666667
2333.275588	221.333333
2334.835309	215.333333
2336.393080	214.666667
2337.950556	205.333333
2339.507738	237.333333
2341.062972	179.333333
2342.617913	213.666667
2344.172559	209.666667
2345.726912	202.666667
2347.280972	216.666667
2348.834737	226.000000
2350.386558	223.666667
2351.936437	241.666667
2353.489323	239.666667
2355.036966	239.000000
2356.587618	244.666667
2358.134678	219.666667
2359.683096	255.666667
2361.231223	212.000000
2362.775761	237.666667
2364.321657	214.666667
2365.865615	236.333333
2367.410930	184.333333
2368.952660	188.333333
2370.495747	202.333333
2372.036898	223.666667
2373.577760	205.333333
2375.118333	233.666667
2376.658617	230.333333
2378.198612	229.333333
2379.735029	206.666667
2381.274447	216.666667
2382.810287	197.000000
2384.347485	220.000000
2385.881107	232.333333
2387.417729	218.666667
2388.952421	209.333333
2390.485183	209.333333
2392.017658	201.333333
2393.548205	245.666667
2395.081750	213.333333
2396.610084	211.666667
2398.139774	193.666667
2399.669179	220.666667
2401.198299	199.333333
2402.727134	213.333333
2404.250763	212.000000
2405.779028	246.333333
2407.302091	229.000000
2408.829787	233.666667
2410.350644	197.333333
2411.876134	228.333333
2413.398063	243.000000
2414.921348	216.666667
2416.442711	221.000000
2417.962155	227.000000
2419.482954	233.666667
2421.001835	217.333333
2422.520433	212.000000
2424.037114	238.666667
2425.555149	185.333333
2427.072903	218.666667
2428.587106	234.666667
2430.101028	222.000000
2431.614670	208.666667
2433.129667	218.333333
2434.641115	193.000000
2436.153918	232.666667
2437.664807	220.000000
2439.175418	252.666667
2440.684117	269.666667
2442.195802	248.666667
2443.703944	275.000000
2445.211808	218.333333
2446.719394	258.000000
2448.223439	227.666667
2449.730469	279.333333
2451.235591	278.333333
2452.740436	247.000000
2454.243374	296.000000
2455.746036	246.333333
2457.248421	254.000000
2458.748901	247.333333
2460.250734	277.666667
2461.750662	268.000000
2463.250315	247.000000
2464.749693	245.333333
2466.247168	259.333333
2467.742741	209.000000
2469.241294	233.000000
2470.736319	213.666667
2472.232696	250.000000
2473.725547	224.333333
2475.219751	218.333333
2476.713681	201.666667
2478.204087	237.666667
2479.697471	242.000000
2481.188957	239.666667
2482.678546	221.000000
2484.167863	225.333333
2485.655284	205.333333
2487.145681	237.000000
2488.632560	212.666667
2490.120790	224.000000
2491.605503	234.000000
2493.089947	224.333333
2494.575741	211.333333
2496.059644	218.666667
2497.544897	212.333333
2499.025017	203.000000
2500.508110	208.666667
2501.989312	244.666667
2503.470245	224.333333
2504.949289	231.333333
2506.428064	208.666667
2507.906571	226.333333
2509.384810	204.333333
2510.862780	206.333333
2512.337245	197.000000
2513.814680	197.666667
2515.288611	216.666667
2516.763892	209.666667
2518.238906	233.000000
2519.710419	205.666667
2521.183283	172.000000
2522.654264	217.000000
2524.126595	184.333333
2525.593812	177.333333
2527.063996	212.000000
2528.532299	215.666667
2530.000337	222.000000
2531.468110	202.666667
2532.935618	192.666667
2534.402861	170.000000
2535.866612	201.333333
2537.331713	198.333333
2538.794937	187.333333
2540.259510	231.000000
2541.720595	217.666667
2543.183029	178.000000
2544.645200	212.000000
2546.103885	193.000000
2547.567141	197.000000
2549.025302	224.333333
2550.484811	224.666667
2551.939226	226.000000
2553.398212	214.333333
2554.855326	223.666667
2556.310569	234.000000
2557.765550	221.000000
2559.218663	212.333333
2560.673124	218.333333
2562.125715	234.666667
2563.578047	199.000000
2565.028512	238.333333
2566.481932	205.000000
2567.930270	245.333333
2569.381563	221.333333
2570.830991	203.333333
2572.276946	210.000000
2573.725856	214.666667
2575.171296	211.000000
2576.618083	220.333333
2578.063008	263.666667
2579.507674	205.666667
2580.953688	232.000000
2582.396236	200.333333
2583.840131	237.333333
2585.280561	189.333333
2586.722338	215.333333
2588.162256	234.666667
2589.603521	233.666667
2591.041324	204.000000
2592.482077	245.333333
2593.917768	176.333333
2595.356408	205.666667
2596.793190	214.000000
2598.228117	214.000000
2599.665991	186.333333
2601.098808	264.666667
2602.532972	207.666667
2603.965282	215.000000
2605.398938	180.666667
2606.830741	200.000000
2608.262290	213.666667
2609.693587	194.666667
2611.123031	234.666667
2612.552223	236.666667
2613.979565	208.666667
2615.408252	237.333333
2616.836688	210.000000
2618.261676	206.666667
2619.688011	235.333333
2621.112497	240.666667
2622.538329	234.000000
2623.960717	235.666667
2625.384451	244.000000
2626.806338	240.666667
2628.227976	214.000000
2629.647768	263.333333
2631.068906	211.333333
2632.489794	295.666667
2633.907244	289.666667
2635.327633	270.333333
2636.744585	298.666667
2638.161288	293.333333
2639.577743	300.000000
2640.993950	331.666667
2642.409909	306.666667
2643.824027	344.000000
2645.237897	356.666667
2646.649929	387.666667
2648.063304	395.333333
2649.473250	439.000000
2650.886132	456.666667
2652.295585	457.666667
2653.704792	464.666667
2655.112163	536.000000
2656.522468	544.666667
2657.930938	643.000000
2659.337572	632.333333
2660.743961	719.000000
2662.148516	712.000000
2663.554415	794.666667
2664.958481	802.333333
2666.362302	874.000000
2667.765879	869.000000
2669.167625	912.666667
2670.570714	998.333333
2671.970385	1006.666667
2673.371400	1077.333333
2674.768999	1129.000000
2676.169527	1075.666667
2677.566641	1059.333333
2678.965098	1052.666667
2680.361728	1064.666667
2681.758115	1025.000000
2683.154260	970.666667
2684.548579	975.666667
2685.944241	966.333333
2687.336494	891.666667
2688.730089	852.000000
2690.121860	742.333333
2691.514974	707.333333
2692.906264	665.666667
2694.295731	604.000000
2695.684958	610.666667
2697.073946	573.666667
2698.464275	499.000000
2699.849621	488.666667
2701.237890	445.666667
2702.624339	423.333333
2704.010549	412.000000
2705.396520	409.000000
2706.779093	372.333333
2708.163008	339.000000
2709.546685	280.333333
2710.930123	312.000000
2712.310167	339.666667
2713.691551	315.000000
2715.071121	265.666667
2716.452031	309.000000
2717.831127	247.000000
2719.208409	285.333333
2720.587032	235.333333
2721.963842	255.333333
2723.340415	233.666667
2724.716753	250.666667
2726.091280	234.666667
2727.467147	227.666667
2728.839627	257.000000
2730.215023	255.000000
2731.585459	212.666667
2732.957236	250.666667
2734.328778	201.333333
2735.698512	214.333333
2737.069587	226.333333
2738.438853	220.000000
2739.807886	191.333333
2741.175113	197.333333
2742.542106	214.666667
2743.908867	216.333333
2745.275396	223.666667
2746.640119	180.333333
2748.004610	214.000000
2749.368870	218.666667
2750.732897	191.000000
2752.096693	176.666667
2753.457115	207.666667
2754.820447	204.333333
2756.178837	157.333333
2757.540137	218.333333
2758.898067	168.333333
2760.258905	202.000000
2761.617944	169.666667
2762.973614	184.000000
2764.332192	177.000000
2765.687403	193.333333
2767.042385	149.000000
2768.395571	151.666667
2769.751662	188.333333
2771.104390	184.666667
2772.456890	158.000000
2773.809161	209.333333
2775.162770	137.666667
2776.513019	201.333333
2777.861473	218.333333
2779.212833	158.666667
2780.560833	176.000000
2781.910171	204.333333
2783.257717	161.666667
2784.605037	173.000000
2785.952130	154.666667
2787.297432	189.666667
2788.642507	180.666667
2789.987357	232.333333
2791.331981	171.333333
2792.673253	161.333333
2794.015863	177.666667
2795.358247	208.000000
2796.700406	158.333333
2798.039216	171.666667
2799.380926	174.333333
2800.719288	190.000000
2802.058986	178.333333
2803.396900	172.000000
2804.733029	155.666667
2806.068934	181.000000
2807.406177	169.666667
2808.741636	188.000000
2810.076872	178.666667
2811.410325	195.666667
2812.745115	201.000000
2814.076565	227.333333
2815.410910	157.666667
2816.740357	171.000000
2818.071141	163.000000
2819.401703	171.333333
2820.730486	169.000000
2822.060605	187.000000
2823.388946	138.000000
2824.717066	191.000000
2826.043408	143.666667
2827.371087	177.000000
2828.695432	173.000000
2830.021114	169.333333
2831.345020	166.000000
2832.668707	162.666667
2833.993729	171.666667
2835.315421	191.666667
2836.636895	135.666667
2837.958150	133.333333
2839.279186	185.666667
2840.598449	157.000000
2841.919048	171.000000
2843.237876	151.666667
2844.556485	160.000000
2845.873323	217.000000
2847.189944	151.666667
2848.506348	186.666667
2849.820982	154.000000
2851.136952	158.333333
2852.449601	158.666667
2853.763585	165.000000
2855.077353	148.666667
2856.390904	155.333333
2857.702689	154.000000
2859.012707	200.666667
2860.324060	136.333333
2861.632098	176.000000
2862.941470	167.666667
2864.250628	157.333333
2865.559570	161.666667
2866.866748	166.666667
2868.172164	176.000000
2869.478913	181.000000
2870.783901	170.333333
2872.088675	171.666667
2873.391687	145.000000
2874.697580	190.333333
2875.998619	204.000000
2877.300992	167.000000
2878.601605	156.333333
2879.903552	137.000000
2881.205285	143.333333
2882.503715	162.000000
2883.803478	148.333333
2885.101484	168.333333
2886.399278	137.666667
2887.695316	175.666667
2888.992687	151.000000
2890.288302	163.000000
2891.583706	128.333333
2892.878899	146.000000
2894.170795	161.000000
2895.465567	152.666667
2896.757042	165.333333
2898.049850	174.333333
2899.342448	105.666667
2900.631752	165.333333
2901.922388	170.000000
2903.211273	125.666667
2904.501490	169.666667
2905.788416	175.666667
2907.076674	144.666667
2908.363183	166.000000
2909.649483	136.333333
2910.935576	172.000000
2912.219920	166.666667
2913.507135	145.333333
2914.789524	172.333333
2916.073245	156.333333
2917.355220	150.000000
2918.636987	157.666667
2919.917010	146.000000
2921.199902	172.666667
2922.481049	131.333333
2923.758914	132.000000
2925.039648	138.000000
2926.317101	161.000000
2927.594348	139.000000
2928.869853	175.666667
2930.148226	140.333333
2931.421785	150.333333
2932.698211	164.333333
2933.972896	158.666667
2935.245840	115.000000
2936.520116	177.333333
2937.792652	118.666667
2939.064983	146.333333
2940.334042	122.666667
2941.605966	170.000000
2942.876152	141.666667
2944.146134	170.666667
2945.415913	121.333333
2946.683956	133.000000
2947.950262	139.000000
2949.216367	134.333333
2950.483801	134.333333
2951.749501	126.333333
2953.014998	132.000000
2954.280293	147.333333
2955.542323	133.000000
2956.805683	164.666667
2958.068842	144.000000
2959.330269	153.666667
2960.593025	94.000000
2961.854049	128.666667
2963.113343	130.666667
2964.372437	145.333333
2965.631330	120.666667
2966.890023	160.333333
2968.148516	132.000000
2969.405280	127.666667
2970.661844	149.333333
2971.916681	172.333333
2973.172846	123.333333
2974.425757	126.333333
2975.679997	111.666667
2976.934037	120.666667
2978.186353	138.000000
2979.438469	133.666667
2980.688861	103.666667
2981.942108	152.000000
2983.190578	113.333333
2984.441903	147.666667
2985.689978	167.333333
2986.937857	138.333333
2988.185538	130.666667
2989.433022	109.000000
2990.678785	146.333333
2991.924352	126.333333
2993.171246	115.333333
2994.414896	150.000000
2995.659874	148.666667
2996.901608	130.000000
2998.146194	109.666667
2999.389061	149.333333
3000.628687	146.333333
3001.871163	150.666667
3003.110399	144.000000
3004.350963	143.666667
3005.589810	118.333333
3006.828463	158.333333
3008.065400	110.333333
3009.303665	133.000000
3010.540214	141.000000
3011.776570	106.333333
3013.012732	125.333333
3014.247180	145.333333
3015.481436	119.666667
3016.715498	139.333333
3017.947848	124.666667
3019.178486	118.000000
3020.411970	133.666667
3021.643742	170.666667
3022.873804	73.000000
3024.103673	139.000000
3025.331833	134.333333
3026.561320	145.666667
3027.789097	101.000000
3029.016683	139.333333
3030.245596	108.666667
3031.469766	133.666667
3032.696779	143.666667
3033.920568	120.000000
3035.145684	107.333333
3036.369093	147.666667
3037.592312	159.333333
3038.813826	151.666667
3040.038181	136.333333
3041.257801	116.666667
3042.478747	96.666667
3043.699504	151.000000
3044.918557	153.333333
3046.138935	122.666667
3047.356097	127.000000
3048.574585	136.333333
3049.791370	113.666667
3051.007968	116.333333
3052.224377	125.666667
3053.437574	112.333333
3054.653608	168.000000
3055.866430	103.333333
3057.082089	95.000000
3058.293025	178.333333
3059.505286	134.333333
3060.717361	163.000000
3061.929248	99.000000
3063.139439	122.333333
3064.349443	133.333333
3065.559261	122.666667
3066.767383	147.333333
3067.975320	129.666667
3069.181561	146.333333
3070.389127	127.000000
3071.594998	140.666667
3072.800685	154.333333
3074.006186	85.333333
3075.209994	140.666667
3076.415126	117.000000
3077.618565	75.666667
3078.820313	126.666667
3080.021876	108.333333
3081.223256	101.000000
3082.424452	135.333333
3083.623958	109.333333
3084.823281	134.000000
3086.023927	96.333333
3087.222883	137.000000
3088.418645	78.666667
3089.617236	137.666667
3090.812633	81.000000
3092.009353	143.333333
3093.202881	100.333333
3094.399237	97.333333
3095.593907	120.333333
3096.785385	130.000000
3097.981196	87.666667
3099.172312	125.000000
3100.364752	103.666667
3101.554004	95.000000
3102.746081	128.000000
3103.936475	113.333333
3105.123683	127.333333
3106.312213	105.666667
3107.502066	100.000000
3108.688735	129.666667
3109.875223	96.333333
3111.061533	120.666667
3112.249164	105.666667
3113.433613	144.000000
3114.616383	113.333333
3115.801975	107.666667
3116.985888	100.666667
3118.168122	126.333333
3119.350177	106.666667
3120.532054	113.333333
3121.713753	105.666667
3122.893775	128.000000
3124.072120	105.666667
3125.253285	116.333333
3126.431275	87.666667
3127.609089	105.000000
3128.786725	95.666667
3129.962686	145.333333
3131.138470	105.666667
3132.315576	118.666667
3133.491007	138.666667
3134.664765	135.333333
3135.836850	106.666667
3137.010257	98.333333
3138.183487	95.333333
3139.355046	111.333333
3140.527925	120.000000
3141.697637	118.333333
3142.868670	92.666667
3144.038033	146.000000
3145.205725	141.000000
3146.376233	113.666667
3147.542083	121.333333
3148.712241	122.333333
3149.877743	117.666667
3151.043070	135.666667
3152.208224	127.000000
3153.373205	131.666667
3154.539505	81.333333
3155.701153	123.333333
3156.864120	96.000000
3158.026915	74.000000
3159.189537	133.333333
3160.350494	111.333333
3161.511278	117.333333
3162.671890	112.000000
3163.830838	66.000000
3164.989615	125.666667
3166.148220	120.333333
3167.306652	94.666667
3168.464914	86.000000
3169.621513	117.000000
3170.776451	117.333333
3171.932708	118.000000
3173.087304	89.333333
3174.241730	93.000000
3175.394496	81.333333
3176.547091	116.666667
3177.699517	91.333333
3178.851773	121.000000
3180.003858	94.333333
3181.152798	121.333333
3182.304544	88.333333
3183.454632	92.333333
3184.603064	118.666667
3185.751326	112.333333
3186.899420	122.000000
3188.047345	104.333333
3189.193614	104.666667
3190.339715	115.333333
3191.484162	95.000000
3192.628441	90.333333
3193.772552	97.000000
3194.917980	128.333333
3196.060270	82.000000
3197.202393	131.666667
3198.344348	118.333333
3199.486136	115.333333
3200.627757	71.333333
3201.766243	114.333333
3202.906046	108.333333
3204.047167	91.333333
3205.185153	100.333333
3206.321490	99.666667
3207.457661	104.000000
3208.595149	117.000000
3209.730989	106.000000
3210.868146	105.666667
3212.000690	113.000000
3213.137516	76.666667
3214.269730	119.666667
3215.403261	110.333333
3216.536628	106.666667
3217.666867	108.000000
3218.799904	92.333333
3219.929815	128.333333
3221.061042	113.666667
3222.189145	137.666667
3223.320044	89.333333
3224.449299	109.666667
3225.576911	95.000000
3226.701400	101.000000
3227.830165	112.333333
3228.955808	123.666667
3230.081289	127.333333
3231.205128	135.666667
3232.331761	102.000000
3233.453797	107.000000
3234.577149	139.666667
3235.700339	118.000000
3236.823366	106.000000
3237.944755	107.666667
3239.065981	129.333333
3240.185570	140.333333
3241.304997	144.000000
3242.422786	132.666667
3243.543367	114.000000
3244.660835	119.333333
3245.778142	151.000000
3246.895289	135.000000
3248.010800	114.333333
3249.127625	113.000000
3250.241341	118.666667
3251.357846	112.000000
3252.472717	128.000000
3253.584479	123.666667
3254.696081	83.666667
3255.808999	100.333333
3256.921757	74.333333
3258.031409	98.666667
3259.142376	118.666667
3260.253184	72.333333
3261.362360	100.333333
3262.469906	107.666667
3263.578765	95.333333
3264.687467	120.666667
3265.793066	85.000000
3266.899979	93.666667
3268.005263	41.000000
3269.111861	114.333333
3270.215359	90.333333
3271.320172	134.000000
3272.424827	95.000000
3273.526383	93.000000
3274.627783	113.666667
3275.730497	110.666667
3276.833055	90.333333
3277.932516	89.333333
3279.034761	105.000000
3280.133910	123.333333
3281.231435	76.000000
3282.328804	108.666667
3283.428955	47.000000
3284.526014	106.333333
3285.622917	93.000000
3286.719665	103.333333
3287.811855	92.333333
3288.908293	77.333333
3290.003109	79.333333
3291.097771	100.666667
3292.190811	92.333333
3293.283696	104.333333
3294.374962	98.000000
3295.467539	62.666667
3296.558497	80.666667
3297.647835	84.333333
3298.737020	92.333333
3299.827518	130.666667
3300.914931	128.666667
3302.002191	83.333333
3303.090764	78.333333
3304.179185	96.000000
3305.263058	62.666667
3306.351173	104.000000
3307.436206	84.333333
3308.519624	85.333333
3309.604354	101.666667
3310.687468	50.666667
3311.771895	108.666667
3312.853243	81.333333
3313.935903	68.666667
3315.016949	70.000000
3316.097844	100.333333
3317.177125	96.666667
3318.256256	74.000000
3319.336699	71.333333
3320.414067	71.666667
3321.492747	70.666667
3322.569815	115.666667
3323.646734	118.333333
3324.722041	93.666667
3325.797199	88.000000
3326.873668	89.666667
3327.947067	67.000000
3329.020317	51.333333
3330.094877	100.666667
3331.167829	119.666667
3332.239172	107.000000
3333.311826	99.666667
3334.381414	110.666667
3335.452312	97.333333
3336.521603	104.666667
3337.592205	62.000000
3338.661200	82.333333
3339.728589	102.333333
3340.794373	99.000000
3341.864383	98.666667
3342.931330	70.666667
3343.995215	106.333333
3345.061868	86.333333
3346.126916	93.666667
3347.190361	94.333333
3348.253660	85.000000
3349.316812	112.000000
3350.379818	108.666667
3351.442678	113.000000
3352.503936	68.666667
3353.562137	100.666667
3354.624558	106.666667
3355.683924	102.666667
3356.743144	105.666667
3357.803673	75.333333
3358.859694	87.666667
3359.918478	84.666667
3360.972755	80.666667
3362.029796	113.333333
3363.085238	110.333333
3364.141990	111.333333
3365.197143	68.333333
3366.250699	80.000000
3367.302659	109.333333
3368.357380	96.666667
3369.409052	73.000000
3370.460581	74.333333
3371.513418	97.333333
3372.563208	68.666667
3373.614307	72.333333
3374.662360	70.333333
3375.713172	48.000000
3376.760940	110.333333
3377.808565	93.000000
3378.856047	79.666667
3379.901937	76.333333
3380.949135	93.666667
3381.993291	72.333333
3383.040205	80.666667
3384.085527	68.666667
3385.127808	112.666667
3386.169949	90.333333
3387.213397	122.333333
3388.256704	110.333333
3389.298422	76.000000
3390.339998	108.666667
3391.381433	74.666667
3392.421280	58.333333
3393.459538	104.666667
3394.499104	80.000000
3395.538530	96.000000
3396.576368	86.666667
3397.612619	58.666667
3398.648731	95.333333
3399.686150	118.333333
3400.720536	73.333333
3401.756229	97.333333
3402.791783	93.333333
3403.824306	103.000000
3404.859582	74.000000
3405.891827	67.333333
3406.923934	75.666667
3407.954457	72.666667
3408.986287	80.333333
3410.017979	84.000000
3411.046643	96.333333
3412.075170	70.000000
3413.105003	61.000000
3414.134699	106.000000
3415.161369	58.333333
3416.189346	107.000000
3417.214298	90.666667
3418.242000	98.000000
3419.266679	70.666667
3420.292664	97.000000
3421.317069	78.666667
3422.341338	64.000000
3423.364028	72.000000
3424.386582	67.000000
3425.410442	92.333333
3426.431282	91.333333
3427.451986	81.333333
3428.473997	95.666667
3429.492989	96.000000
3430.511845	93.666667
3431.532008	70.333333
3432.549154	110.000000
