-116.707459	22.333333
-114.037859	8.333333
-111.371194	31.000000
-108.705281	7.666667
-106.042300	44.333333
-103.377890	14.333333
-100.716410	9.333333
-98.053501	7.333333
-95.395698	35.000000
-92.736466	45.666667
-90.077982	8.666667
-87.422422	-4.000000
-84.765434	38.333333
-82.113544	22.000000
-79.460224	26.000000
-76.809823	10.333333
-74.157993	12.000000
-71.511254	7.333333
-68.863086	21.666667
-66.215660	-38.000000
-63.571148	-2.000000
-60.925208	16.666667
-58.284349	-1.333333
-55.642061	-11.333333
-53.002682	2.000000
-50.361873	39.000000
-47.721805	27.000000
-45.086809	31.000000
-42.450385	6.000000
-39.816863	18.666667
-37.181913	19.666667
-34.552028	26.666667
-31.918551	6.333333
-29.290136	30.000000
-26.662455	15.666667
-24.033345	15.000000
-21.409292	35.666667
-18.781650	19.666667
-16.159061	41.666667
-13.537204	53.000000
-10.916077	79.666667
-8.295680	183.000000
-5.678172	662.333333
-3.059235	2150.666667
-0.443183	5967.666667
2.172140	8364.333333
4.786736	5004.333333
7.398449	595.333333
10.011591	81.333333
12.619699	38.666667
15.231389	20.000000
17.838048	28.666667
20.446135	15.666667
23.053498	-5.000000
25.655836	12.000000
28.261752	22.000000
30.862646	-6.000000
33.464968	-13.666667
36.062273	30.666667
38.663153	23.666667
41.259018	30.333333
43.856312	30.333333
46.452886	33.000000
49.044451	-19.666667
51.637444	38.333333
54.227576	19.333333
56.819136	29.666667
59.407836	13.000000
61.997963	4.666667
64.583091	32.000000
67.169647	18.000000
69.755489	9.333333
72.338477	47.666667
74.922891	18.333333
77.500177	14.666667
80.081029	-5.333333
82.659032	31.000000
85.236325	-2.666667
87.815044	2.000000
90.388781	26.000000
92.963946	6.333333
95.536267	20.000000
98.107880	15.000000
100.676653	42.000000
103.246853	17.666667
105.814215	23.666667
108.383002	14.333333
110.948953	-13.333333
113.512069	38.333333
116.078741	7.666667
118.636192	33.666667
121.199328	52.666667
123.757504	66.666667
126.319235	67.000000
128.876009	66.000000
131.434210	128.666667
133.987457	258.333333
136.540007	263.333333
139.096107	450.333333
141.647259	615.000000
144.197714	743.000000
146.747471	829.333333
149.294409	916.000000
151.840652	1037.000000
154.388320	1050.666667
156.935292	1012.000000
159.477329	990.000000
162.018672	976.333333
164.559322	1032.666667
167.101398	950.666667
169.640662	997.000000
172.177118	949.666667
174.712882	1004.666667
177.250072	972.666667
179.786571	942.000000
182.320264	947.000000
184.851153	977.666667
187.381355	965.000000
189.912981	920.333333
192.441806	947.000000
194.967832	958.666667
197.493172	935.666667
200.019937	955.333333
202.543906	911.333333
205.067190	957.333333
207.589789	903.666667
210.109595	930.333333
212.628718	899.000000
215.147158	1002.666667
217.667022	965.333333
220.179885	1011.000000
222.696279	915.000000
225.211991	1021.666667
227.722813	984.666667
230.235060	1019.000000
232.744525	1074.666667
235.253311	1027.333333
237.761418	1071.333333
240.270950	1016.000000
242.775601	1033.333333
245.279576	1026.333333
247.784975	1086.333333
250.285499	1021.333333
252.789547	1077.666667
255.286623	1004.666667
257.787223	1005.666667
260.285051	984.666667
262.782206	966.000000
265.278688	993.333333
267.770307	1018.666667
270.265446	1040.000000
272.757818	980.666667
275.249520	1003.000000
277.738459	1042.666667
280.228822	1039.333333
282.716422	1025.333333
285.201263	1052.333333
287.689619	1086.000000
290.171035	1095.666667
292.655965	1091.333333
295.136050	1142.333333
297.619647	1129.666667
300.098401	1193.333333
302.578579	1190.000000
305.056004	1269.000000
307.532766	1187.000000
310.008865	1169.333333
312.482215	1140.000000
314.954903	1074.000000
317.426930	1059.666667
319.898296	1140.000000
322.366917	1120.333333
324.834880	1085.666667
327.304264	1063.000000
329.768826	1072.000000
332.236892	1039.000000
334.700138	975.666667
337.162726	935.333333
339.624658	955.333333
342.085933	943.666667
344.544474	918.000000
347.004437	944.666667
349.461667	918.000000
351.918243	847.666667
354.374165	921.000000
356.827357	835.333333
359.281972	859.666667
361.731785	876.666667
364.185094	836.333333
366.633605	828.000000
369.081464	816.000000
371.530746	858.000000
373.975234	841.000000
376.421144	793.333333
378.866404	745.000000
381.308946	800.000000
383.750840	797.333333
386.192087	771.666667
388.630618	749.000000
391.070571	763.000000
393.507810	795.333333
395.942337	734.333333
398.380352	778.333333
400.813590	749.666667
403.248249	694.000000
405.678136	734.000000
408.111508	788.000000
410.540110	778.333333
412.968070	767.666667
415.397452	722.666667
417.822068	762.666667
420.248106	745.333333
422.673503	739.666667
425.098260	686.666667
427.518259	697.333333
429.939679	682.333333
432.358402	674.666667
434.778546	684.000000
437.195995	707.666667
439.614864	598.333333
442.031040	621.333333
444.442468	648.000000
446.857374	592.000000
449.269589	533.666667
451.681170	619.666667
454.092117	582.666667
456.500378	594.000000
458.908006	555.333333
461.315002	550.666667
463.721367	530.000000
466.125049	544.000000
468.528101	529.000000
470.930523	572.000000
473.332315	558.666667
475.731430	554.666667
478.131964	541.000000
480.531869	583.666667
482.927051	606.333333
485.325700	612.333333
487.719629	581.000000
490.112932	647.000000
492.505609	672.000000
494.897661	702.333333
497.291131	786.666667
499.679889	952.666667
502.065981	1128.666667
504.453493	1487.333333
506.840382	1933.666667
509.224607	2785.333333
511.610250	3927.333333
513.993232	5550.333333
516.373553	7167.000000
518.755293	8383.000000
521.134374	8424.666667
523.514874	7427.000000
525.892716	6095.666667
528.267903	5138.000000
530.642472	4361.333333
533.018459	3718.666667
535.391794	3160.666667
537.766546	2855.666667
540.136613	2507.666667
542.506064	2313.666667
544.876933	2101.333333
547.243122	1928.333333
549.610729	1798.666667
551.975690	1696.333333
554.340038	1566.666667
556.703773	1514.333333
559.068926	1428.666667
561.429407	1415.666667
563.791306	1359.666667
566.150564	1307.666667
568.507185	1258.000000
570.867250	1248.666667
573.220624	1187.333333
575.577443	1187.000000
577.931627	1129.000000
580.285202	1071.000000
582.638170	1076.666667
584.988505	1064.666667
587.340258	1046.333333
589.685334	1009.333333
592.035874	1014.000000
594.379740	929.333333
596.729068	949.333333
599.073747	915.000000
601.415802	866.000000
603.759274	862.666667
606.100123	866.000000
608.440370	876.666667
610.777996	906.000000
613.119057	966.000000
615.455480	1025.000000
617.793320	1058.666667
620.128543	1039.333333
622.461150	1008.666667
624.795173	935.333333
627.126582	902.666667
629.457393	890.000000
631.787607	864.666667
634.117222	810.666667
636.442214	886.000000
638.772648	799.000000
641.098461	814.333333
643.421666	848.333333
645.746288	776.666667
648.068304	795.000000
650.389726	771.333333
652.708546	770.333333
655.028781	741.666667
657.348423	769.333333
659.665464	761.666667
661.981913	728.333333
664.295764	760.333333
666.611031	725.333333
668.923701	727.666667
671.237786	706.333333
673.547271	750.000000
675.858172	734.333333
678.166480	709.666667
680.474200	786.333333
682.783334	742.333333
685.087876	698.333333
687.391832	703.666667
689.695202	703.333333
691.999986	672.000000
694.300184	672.666667
696.601796	663.333333
698.902823	649.000000
701.199269	628.000000
703.497130	606.666667
705.794407	591.000000
708.091101	650.333333
710.383219	585.000000
712.678748	580.333333
714.969703	618.000000
717.262073	597.333333
719.551868	580.333333
721.841082	615.666667
724.129717	554.333333
726.415779	619.000000
728.703256	601.000000
730.988161	610.000000
733.272489	572.333333
735.554248	545.000000
737.837421	595.666667
740.120017	570.000000
742.398057	571.333333
744.677512	592.666667
746.956390	607.666667
749.234694	550.000000
751.508448	576.333333
753.783615	539.666667
756.058209	577.000000
758.330244	565.333333
760.603692	588.000000
762.874582	523.000000
765.142916	535.333333
767.412663	575.333333
769.679856	541.666667
771.946478	566.666667
774.212530	570.666667
776.476031	553.000000
778.740945	549.666667
781.005289	554.000000
783.265104	542.333333
785.526331	559.666667
787.786991	560.666667
790.045105	560.666667
792.300674	556.000000
794.559634	566.000000
796.812095	594.000000
799.069922	564.333333
801.323231	598.666667
803.574000	553.666667
805.826181	588.666667
808.075823	604.666667
810.326878	584.000000
812.573421	587.000000
814.821376	619.666667
817.066797	581.000000
819.313629	573.666667
821.559900	585.666667
823.801666	618.333333
826.046816	559.666667
828.285493	575.333333
830.527552	608.333333
832.765113	544.333333
835.004086	535.666667
837.240532	549.666667
839.478389	578.666667
841.713721	538.666667
843.946530	515.000000
846.180750	521.000000
848.412447	524.000000
850.643590	587.666667
852.874178	574.000000
855.104212	537.333333
857.333692	545.666667
859.558690	583.333333
861.787063	536.666667
864.010956	502.000000
866.236261	524.666667
868.457090	523.000000
870.681291	503.666667
872.901019	544.333333
875.122157	565.000000
877.342745	561.333333
879.560824	544.333333
881.780312	565.000000
883.995334	540.666667
886.209808	555.000000
888.423735	544.666667
890.637115	482.000000
892.849947	531.666667
895.062233	572.666667
897.272016	483.666667
899.481254	512.333333
901.689947	502.666667
903.896141	515.000000
906.103744	516.333333
908.308849	554.333333
910.513411	539.666667
912.715478	550.000000
914.918954	568.333333
917.119936	547.333333
919.320376	593.333333
921.522225	610.666667
923.717683	639.666667
925.916500	651.333333
928.110878	743.000000
930.308614	791.666667
932.501914	829.666667
934.696623	980.333333
936.888846	1044.666667
939.080530	1151.000000
941.271677	1231.666667
943.460341	1227.666667
945.648469	1229.333333
947.834116	1175.000000
950.023115	1212.333333
952.207691	1187.000000
954.391732	1217.000000
956.579123	1220.666667
958.758210	1240.333333
960.940648	1208.000000
963.122552	1223.666667
965.301981	1253.333333
967.478938	1217.000000
969.657303	1221.333333
971.837075	1222.000000
974.010498	1227.000000
976.187267	1214.666667
978.359629	1195.000000
980.533399	1199.333333
982.702765	1158.333333
984.875475	1130.666667
987.045720	1083.666667
989.215436	961.000000
991.384623	848.000000
993.549413	788.666667
995.717544	784.333333
997.881281	721.000000
1000.046424	680.000000
1002.209108	694.333333
1004.371267	678.000000
1006.530969	629.000000
1008.690146	646.666667
1010.850730	602.666667
1013.008859	586.666667
1015.166465	568.666667
1017.323547	585.333333
1019.480105	505.666667
1021.632284	559.000000
1023.785870	490.333333
1025.938934	477.333333
1028.089549	492.666667
1030.241571	501.333333
1032.389219	497.333333
1034.540199	473.333333
1036.686808	467.000000
1038.832898	461.000000
1040.978470	445.333333
1043.125447	427.000000
1045.266135	478.000000
1047.410153	417.666667
1049.551730	447.000000
1051.692791	460.666667
1053.835256	458.666667
1055.971442	476.000000
1058.110953	480.333333
1060.246110	462.666667
1062.384591	411.000000
1064.518718	471.666667
1066.652332	465.333333
1068.787351	424.666667
1070.918020	445.333333
1073.050094	470.666667
1075.179739	416.000000
1077.308872	468.666667
1079.437493	450.333333
1081.565603	426.333333
1083.691287	444.666667
1085.816461	394.666667
1087.943039	431.666667
1090.065279	467.000000
1092.188924	402.666667
1094.308234	468.000000
1096.432774	408.333333
1098.551068	413.666667
1100.670767	406.000000
1102.788047	436.000000
1104.904821	425.333333
1107.021088	431.000000
1109.134939	406.666667
1111.250195	408.333333
1113.361127	419.000000
1115.475372	434.000000
1117.585296	438.000000
1119.696624	421.666667
1121.807447	416.333333
1123.913954	386.333333
1126.023771	406.000000
1128.129273	411.333333
1130.236178	380.333333
1132.336868	406.000000
1134.442770	432.333333
1136.544363	379.333333
1138.647359	369.666667
1140.749854	414.000000
1142.846142	373.666667
1144.947637	381.333333
1147.044830	384.333333
1149.141525	412.000000
1151.237721	368.000000
1153.333420	434.666667
1155.428620	377.666667
1157.521424	390.000000
1159.615631	380.333333
1161.703646	415.000000
1163.796859	419.333333
1165.883884	374.333333
1167.974208	410.000000
1170.060244	444.666667
1172.149579	390.000000
1174.232732	410.666667
1176.317287	421.666667
1178.403244	393.666667
1180.484919	394.000000
1182.567996	414.000000
1184.648687	411.333333
1186.728886	456.000000
1188.808594	364.000000
1190.887811	418.666667
1192.964646	416.000000
1195.039100	408.000000
1197.116845	390.333333
1199.190321	396.000000
1201.265197	347.333333
1203.335806	408.333333
1205.407816	331.333333
1207.477451	385.666667
1209.548486	401.000000
1211.619033	373.666667
1213.685319	387.333333
1215.753006	358.333333
1217.818321	362.000000
1219.885036	367.000000
1221.947495	394.000000
1224.013239	386.666667
1226.074729	363.000000
1228.137620	382.000000
1230.198143	391.333333
1232.258182	377.666667
1234.317739	386.333333
1236.374930	363.666667
1238.431640	377.000000
1240.485986	388.333333
1242.543614	371.333333
1244.598879	389.666667
1246.649903	371.666667
1248.702327	381.666667
1250.754271	337.000000
1252.803857	370.000000
1254.852964	337.666667
1256.901593	434.666667
1258.949743	380.666667
1260.997414	351.000000
1263.040855	418.000000
1265.087572	389.333333
1267.131935	393.333333
1269.175822	371.000000
1271.217357	431.000000
1273.256543	386.333333
1275.299002	411.666667
1277.337238	416.333333
1279.376873	420.000000
1281.416033	440.000000
1283.450974	368.333333
1285.487314	401.000000
1287.521310	417.333333
1289.556703	371.666667
1291.587884	383.666667
1293.620462	357.333333
1295.652569	364.333333
1297.682335	370.000000
1299.713498	345.666667
1301.740455	384.666667
1303.768809	342.333333
1305.792958	345.666667
1307.820373	345.000000
1309.843585	325.666667
1311.868195	361.333333
1313.890471	360.666667
1315.914144	304.666667
1317.935484	298.000000
1319.956356	317.000000
1321.976761	367.000000
1323.992973	334.000000
1326.010582	353.333333
1328.025863	347.000000
1330.044403	362.666667
1332.058754	307.666667
1334.070779	341.000000
1336.086061	351.666667
1338.097158	353.000000
1340.109652	345.666667
1342.117963	380.666667
1344.129529	345.333333
1346.135057	360.666667
1348.143840	312.000000
1350.148445	349.666667
1352.156304	339.333333
1354.163701	378.333333
1356.165067	361.333333
1358.167829	363.333333
1360.170132	375.333333
1362.171975	349.666667
1364.173358	360.666667
1366.172428	362.000000
1368.171039	325.000000
1370.169192	377.333333
1372.166886	343.666667
1374.160418	391.666667
1376.155345	334.666667
1378.149816	369.666667
1380.143830	364.000000
1382.135537	393.000000
1384.126789	333.666667
1386.115735	354.000000
1388.106076	356.000000
1390.095962	323.333333
1392.083544	321.000000
1394.070673	335.333333
1396.055500	369.000000
1398.041722	334.000000
1400.025644	357.333333
1402.009113	339.000000
1403.992129	335.333333
1405.972848	368.000000
1407.954961	321.666667
1409.934778	310.333333
1411.914143	339.666667
1413.889370	351.666667
1415.867835	304.000000
1417.844007	299.000000
1419.819730	315.000000
1421.795003	365.666667
1423.767985	325.333333
1425.740519	326.000000
1427.712605	357.666667
1429.684244	321.000000
1431.651754	318.000000
1433.624338	313.333333
1435.589116	312.000000
1437.558967	329.666667
1439.524694	266.000000
1441.491813	354.666667
1443.456649	309.666667
1445.417365	360.333333
1447.383149	338.333333
1449.342978	338.333333
1451.304201	366.333333
1453.266816	382.000000
1455.225316	340.000000
1457.183373	309.000000
1459.140989	365.333333
1461.098162	335.666667
1463.053060	354.333333
1465.009351	335.333333
1466.963367	342.000000
1468.916942	293.333333
1470.868245	309.666667
1472.820941	330.666667
1474.771364	314.333333
1476.721349	266.666667
1478.670895	330.000000
1480.618172	313.333333
1482.563181	321.000000
1484.509583	303.666667
1486.455547	296.333333
1488.401074	364.000000
1490.344335	314.666667
1492.287161	304.333333
1494.227723	303.000000
1496.169676	327.333333
1498.109367	316.666667
1500.048624	337.666667
1501.987445	335.666667
1503.924007	310.666667
1505.861960	346.333333
1507.797654	353.666667
1509.732915	350.666667
1511.665920	317.333333
1513.598492	358.666667
1515.530632	368.333333
1517.462340	369.333333
1519.391794	350.000000
1521.322639	333.666667
1523.253052	366.000000
1525.179393	330.666667
1527.107125	377.333333
1529.032606	334.666667
1530.957658	363.333333
1532.882281	331.333333
1534.806475	363.000000
1536.728421	330.666667
1538.651758	349.000000
1540.572848	331.333333
1542.491694	366.333333
1544.411930	340.666667
1546.329923	371.000000
1548.247489	367.000000
1550.162813	382.333333
1552.079527	377.666667
1553.992186	427.333333
1555.908049	372.000000
1557.821672	432.666667
1559.733057	383.000000
1561.645832	390.333333
1563.554557	379.666667
1565.464671	446.333333
1567.374362	441.000000
1569.283630	495.333333
1571.190664	453.666667
1573.095465	522.333333
1575.001655	561.000000
1576.905613	641.333333
1578.809150	677.666667
1580.712267	815.333333
1582.613154	950.666667
1584.515430	1106.666667
1586.415478	1210.000000
1588.316913	1218.666667
1590.214315	1129.666667
1592.111298	923.333333
1594.007863	748.333333
1595.905816	628.000000
1597.797934	566.666667
1599.693245	490.000000
1601.588139	430.000000
1603.480811	434.666667
1605.373066	392.666667
1607.263102	411.666667
1609.152722	388.333333
1611.041927	408.666667
1612.930717	398.333333
1614.817289	353.666667
1616.705249	378.000000
1618.589192	401.333333
1620.474522	359.666667
1622.359439	335.333333
1624.242142	325.000000
1626.126232	345.333333
1628.006310	326.333333
1629.887776	331.666667
1631.767031	295.333333
1633.647672	315.000000
1635.522509	294.666667
1637.402327	330.000000
1639.278141	289.666667
1641.153544	294.000000
1643.030333	327.000000
1644.901326	329.666667
1646.775500	285.000000
1648.645675	335.333333
1650.519032	280.666667
1652.390184	313.000000
1654.259136	314.333333
1656.129472	338.333333
1657.995816	305.000000
1659.863545	288.666667
1661.729075	327.666667
1663.595991	315.000000
1665.458918	301.333333
1667.323230	319.333333
1669.185346	308.000000
1671.047057	294.333333
1672.910154	273.000000
1674.771055	325.666667
1676.629764	307.333333
1678.488069	300.333333
1680.347759	294.333333
1682.201681	300.333333
1684.058777	270.666667
1685.915470	271.666667
1687.768186	318.666667
1689.624074	300.000000
1691.475988	297.333333
1693.327501	290.333333
1695.178613	284.666667
1697.029325	292.666667
1698.879635	277.000000
1700.727762	260.000000
1702.577273	250.333333
1704.421035	290.333333
1706.269746	240.333333
1708.112711	264.000000
1709.958843	269.333333
1711.801012	269.333333
1713.646347	238.000000
1715.485941	270.000000
1717.326919	254.666667
1719.169280	258.333333
1721.007685	242.333333
1722.847473	256.666667
1724.685086	246.000000
1726.522303	283.666667
1728.357347	256.666667
1730.193774	254.333333
1732.028029	254.000000
1733.861889	246.000000
1735.695355	263.000000
1737.524876	274.333333
1739.357555	261.000000
1741.186290	268.333333
1743.018182	246.666667
1744.846132	260.333333
1746.673691	270.000000
1748.500857	284.666667
1750.327632	272.666667
1752.154015	264.666667
1753.976462	256.333333
1755.802064	287.000000
1757.623731	253.000000
1759.446780	274.666667
1761.267667	256.000000
1763.088166	243.666667
1764.910045	271.333333
1766.726226	267.000000
1768.545558	251.666667
1770.360963	244.666667
1772.179518	270.666667
1773.994148	247.000000
1775.808391	264.333333
1777.622248	258.666667
1779.435718	248.000000
1781.247035	267.666667
1783.059732	300.666667
1784.872044	261.666667
1786.680438	218.000000
1788.490212	262.333333
1790.296072	232.000000
1792.105077	281.666667
1793.910169	239.333333
1795.716642	263.333333
1797.522731	231.333333
1799.324909	254.000000
1801.130232	267.333333
1802.931646	239.000000
1804.734440	266.333333
1806.533328	275.333333
1808.333597	265.666667
1810.133484	262.333333
1811.931229	249.333333
1813.728594	270.333333
1815.525579	271.333333
1817.322183	252.333333
1819.116648	244.666667
1820.912492	279.666667
1822.702681	260.333333
1824.497767	296.000000
1826.287201	287.333333
1828.079771	258.666667
1829.870206	292.000000
1831.658507	250.666667
1833.449943	284.666667
1835.235733	293.666667
1837.022903	279.333333
1838.807941	241.000000
1840.596113	258.333333
1842.380399	274.000000
1844.162555	310.666667
1845.946091	251.666667
1847.727498	261.666667
1849.510284	263.666667
1851.289189	251.000000
1853.069474	280.333333
1854.847632	250.000000
1856.627169	272.666667
1858.404581	222.000000
1860.179869	242.666667
1861.956535	267.666667
1863.731079	248.333333
1865.507001	254.000000
1867.277302	296.000000
1869.050731	277.000000
1870.822040	252.333333
1872.592978	250.333333
1874.365294	258.000000
1876.131996	281.666667
1877.901824	248.000000
1879.667788	232.333333
1881.436875	278.333333
1883.202101	257.333333
1884.966959	282.333333
1886.733194	250.000000
1888.495570	271.333333
1890.257579	257.000000
1892.019220	267.000000
1893.780495	232.666667
1895.541402	243.333333
1897.301943	205.333333
1899.060374	253.000000
1900.818439	244.666667
1902.574397	248.666667
1904.331731	251.666667
1906.088700	264.666667
1907.843562	253.000000
1909.596320	254.666667
1911.348713	229.333333
1913.102483	217.333333
1914.854149	237.000000
1916.603713	236.666667
1918.354652	215.333333
1920.105229	262.333333
1921.851966	215.666667
1923.600080	265.000000
1925.346094	236.666667
1927.093483	235.000000
1928.838775	234.333333
1930.581969	269.333333
1932.326538	221.000000
1934.069012	263.333333
1935.811125	279.333333
1937.552878	272.000000
1939.294271	239.666667
1941.033571	249.666667
1942.772512	248.333333
1944.511094	293.666667
1946.247585	268.666667
1947.983718	247.500000
1949.721225	226.333333
1951.454910	258.000000
1953.189970	224.666667
1954.922941	223.000000
1956.655556	241.000000
1958.387815	261.000000
1960.119717	200.000000
1961.849533	216.666667
1963.577264	232.666667
1965.306370	213.666667
1967.035121	237.000000
1968.761788	242.333333
1970.488101	243.000000
1972.215787	250.666667
1973.937937	219.666667
1975.663188	214.000000
1977.384632	214.666667
1979.109177	212.000000
1980.831641	205.333333
1982.550303	233.000000
1984.272063	258.000000
1985.990021	239.333333
1987.709352	229.666667
1989.424884	254.333333
1991.145236	239.000000
1992.861790	242.333333
1994.574547	236.666667
1996.290400	265.333333
1998.004181	208.000000
1999.717612	248.000000
2001.428972	231.333333
2003.141704	250.000000
2004.850646	252.666667
2006.562680	254.000000
2008.269206	204.333333
2009.978823	251.333333
2011.686374	242.333333
2013.393576	227.333333
2015.098713	215.000000
2016.803504	258.666667
2018.509666	225.666667
2020.212046	263.333333
2021.915797	229.000000
2023.617486	228.333333
2025.318830	210.333333
2027.019828	231.333333
2028.718765	239.333333
2030.419074	241.666667
2032.115608	214.666667
2033.813513	218.000000
2035.509359	189.333333
2037.208291	255.666667
2038.901737	240.333333
2040.596554	217.666667
2042.291029	210.333333
2043.981735	239.666667
2045.675525	219.333333
2047.365548	251.000000
2049.056942	213.333333
2050.746283	200.666667
2052.436994	218.000000
2054.123942	236.666667
2055.810551	270.666667
2057.498529	223.333333
2059.182748	218.000000
2060.868338	262.333333
2062.553588	233.333333
2064.236789	208.666667
2065.921361	217.333333
2067.600470	220.333333
2069.284364	269.666667
2070.962797	238.333333
2072.644308	222.666667
2074.322067	221.333333
2075.999490	219.333333
2077.678282	202.666667
2079.355032	201.000000
2081.029740	260.333333
2082.705817	205.333333
2084.379853	221.000000
2086.053555	238.000000
2087.726921	252.333333
2089.398248	224.000000
2091.069241	226.333333
2092.739900	235.666667
2094.410225	229.666667
2096.080216	205.666667
2097.748171	217.333333
2099.415793	211.000000
2101.081380	207.666667
2102.748336	205.333333
2104.413259	224.000000
2106.077850	208.666667
2107.740409	246.000000
2109.404336	204.666667
2111.066232	240.000000
2112.727798	198.666667
2114.389032	219.000000
2116.048238	199.333333
2117.707113	208.666667
2119.365659	209.666667
2121.023874	207.000000
2122.678367	226.000000
2124.335924	207.333333
2125.993152	190.666667
2127.646658	204.666667
2129.301532	176.333333
2130.952687	188.000000
2132.606905	207.000000
2134.257406	196.000000
2135.909273	194.333333
2137.555732	189.000000
2139.206946	213.000000
2140.854446	192.666667
2142.503313	202.666667
2144.150161	183.000000
2145.796684	234.333333
2147.442881	247.000000
2149.085370	211.000000
2150.730917	214.000000
2152.372757	237.000000
2154.017654	227.000000
2155.658845	188.333333
2157.299714	222.666667
2158.940258	187.666667
2160.578790	237.333333
2162.218688	204.666667
2163.854886	198.333333
2165.492450	186.000000
2167.129692	203.000000
2168.764924	191.333333
2170.399835	245.333333
2172.034423	213.333333
2173.668691	222.333333
2175.299265	206.666667
2176.932891	197.333333
2178.562825	234.000000
2180.194124	219.000000
2181.823418	218.000000
2183.452393	196.666667
2185.081048	207.666667
2186.709384	215.333333
2188.335718	226.333333
2189.961733	201.666667
2191.585746	223.333333
2193.211125	203.333333
2194.834503	191.666667
2196.459246	239.333333
2198.080308	241.666667
2199.701053	214.333333
2201.323163	207.000000
2202.943275	260.000000
2204.561390	192.666667
2206.179190	226.333333
2207.796675	233.333333
2209.413844	216.666667
2211.030698	215.000000
2212.647236	201.666667
2214.261782	204.666667
2215.874335	258.666667
2217.488252	208.333333
2219.100178	202.333333
2220.713467	185.666667
2222.324766	243.666667
2223.934075	200.000000
2225.544748	233.000000
2227.153432	197.000000
2228.761803	253.333333
2230.368188	225.000000
2231.975936	249.666667
2233.581697	200.000000
2235.187147	211.000000
2236.790612	197.333333
2238.395440	216.000000
2239.998284	190.666667
2241.599145	261.000000
2243.201369	218.333333
2244.801611	181.666667
2246.403215	212.333333
2248.001166	216.666667
2249.600480	222.333333
2251.197814	217.333333
2252.794840	222.333333
2254.393228	194.666667
2255.987967	235.333333
2257.580729	217.000000
2259.174854	197.333333
2260.770340	202.333333
2262.362181	205.666667
2263.953716	229.000000
2265.546613	218.333333
2267.134200	237.000000
2268.726483	219.666667
2270.313460	231.000000
2271.903464	214.000000
2273.488164	199.666667
2275.077558	178.000000
2276.661650	228.666667
2278.247102	174.666667
2279.830586	213.333333
2281.417095	209.666667
2282.999971	197.333333
2284.582544	184.333333
2286.164813	228.666667
2287.743452	194.666667
2289.325116	180.000000
2290.903151	180.333333
2292.484209	179.666667
2294.061640	198.166667
2295.637108	216.666667
2297.215598	198.333333
2298.790464	226.000000
2300.365029	179.666667
2301.939294	207.000000
2303.513258	210.333333
2305.086921	191.000000
2306.660285	207.333333
2308.230030	203.000000
2309.799476	216.666667
2311.371940	209.666667
2312.939130	235.333333
2314.509338	209.000000
2316.075931	190.666667
2317.643884	203.000000
2319.209881	242.666667
2320.775581	192.666667
2322.340983	211.666667
2323.904432	190.000000
2325.469240	222.000000
2327.030440	242.666667
2328.594654	206.666667
2330.153606	253.333333
2331.715573	224.333333
2333.275588	193.333333
2334.835309	205.333333
2336.393080	211.000000
2337.950556	211.333333
2339.507738	219.000000
2341.062972	196.000000
2342.617913	189.666667
2344.172559	184.000000
2345.726912	220.000000
2347.280972	183.333333
2348.834737	209.333333
2350.386558	197.333333
2351.936437	194.666667
2353.489323	184.666667
2355.036966	206.333333
2356.587618	197.000000
2358.134678	184.333333
2359.683096	210.333333
2361.231223	200.000000
2362.775761	194.333333
2364.321657	177.000000
2365.865615	208.666667
2367.410930	229.666667
2368.952660	189.666667
2370.495747	223.000000
2372.036898	208.333333
2373.577760	205.333333
2375.118333	214.666667
2376.658617	211.333333
2378.198612	175.333333
2379.735029	197.000000
2381.274447	174.666667
2382.810287	215.000000
2384.347485	205.000000
2385.881107	226.333333
2387.417729	197.000000
2388.952421	226.666667
2390.485183	191.333333
2392.017658	230.666667
2393.548205	171.000000
2395.081750	216.666667
2396.610084	218.333333
2398.139774	185.666667
2399.669179	209.666667
2401.198299	203.000000
2402.727134	167.000000
2404.250763	188.666667
2405.779028	253.000000
2407.302091	209.333333
2408.829787	204.000000
2410.350644	234.000000
2411.876134	209.000000
2413.398063	181.333333
2414.921348	189.666667
2416.442711	167.333333
2417.962155	207.000000
2419.482954	191.333333
2421.001835	213.666667
2422.520433	215.333333
2424.037114	174.666667
2425.555149	192.000000
2427.072903	213.333333
2428.587106	201.000000
2430.101028	189.333333
2431.614670	236.333333
2433.129667	178.000000
2434.641115	200.333333
2436.153918	217.666667
2437.664807	211.333333
2439.175418	243.666667
2440.684117	233.333333
2442.195802	225.666667
2443.703944	228.666667
2445.211808	220.666667
2446.719394	263.666667
2448.223439	228.666667
2449.730469	234.000000
2451.235591	249.333333
2452.740436	224.000000
2454.243374	236.666667
2455.746036	250.666667
2457.248421	252.333333
2458.748901	265.333333
2460.250734	239.000000
2461.750662	218.666667
2463.250315	241.666667
2464.749693	233.333333
2466.247168	217.333333
2467.742741	218.666667
2469.241294	199.666667
2470.736319	215.666667
2472.232696	210.333333
2473.725547	230.666667
2475.219751	198.000000
2476.713681	196.000000
2478.204087	206.333333
2479.697471	219.000000
2481.188957	201.666667
2482.678546	236.333333
2484.167863	186.000000
2485.655284	219.000000
2487.145681	198.333333
2488.632560	247.666667
2490.120790	189.333333
2491.605503	192.333333
2493.089947	197.333333
2494.575741	162.000000
2496.059644	180.000000
2497.544897	178.666667
2499.025017	198.333333
2500.508110	213.333333
2501.989312	172.000000
2503.470245	164.666667
2504.949289	164.000000
2506.428064	200.666667
2507.906571	164.666667
2509.384810	182.000000
2510.862780	195.333333
2512.337245	182.000000
2513.814680	198.000000
2515.288611	199.666667
2516.763892	188.000000
2518.238906	156.333333
2519.710419	151.000000
2521.183283	178.000000
2522.654264	185.333333
2524.126595	175.000000
2525.593812	179.333333
2527.063996	183.000000
2528.532299	206.666667
2530.000337	191.666667
2531.468110	194.000000
2532.935618	171.000000
2534.402861	157.000000
2535.866612	213.333333
2537.331713	175.666667
2538.794937	186.333333
2540.259510	172.333333
2541.720595	181.000000
2543.183029	187.666667
2544.645200	175.666667
2546.103885	182.333333
2547.567141	177.333333
2549.025302	185.000000
2550.484811	222.000000
2551.939226	173.666667
2553.398212	193.666667
2554.855326	216.000000
2556.310569	210.333333
2557.765550	215.000000
2559.218663	217.333333
2560.673124	176.000000
2562.125715	214.000000
2563.578047	161.333333
2565.028512	207.333333
2566.481932	199.666667
2567.930270	211.000000
2569.381563	187.666667
2570.830991	233.666667
2572.276946	218.666667
2573.725856	213.000000
2575.171296	217.666667
2576.618083	215.666667
2578.063008	181.000000
2579.507674	218.000000
2580.953688	189.666667
2582.396236	183.333333
2583.840131	160.666667
2585.280561	188.333333
2586.722338	165.666667
2588.162256	215.666667
2589.603521	202.333333
2591.041324	208.333333
2592.482077	183.333333
2593.917768	192.666667
2595.356408	203.666667
2596.793190	199.000000
2598.228117	204.000000
2599.665991	195.333333
2601.098808	214.000000
2602.532972	178.333333
2603.965282	168.000000
2605.398938	178.333333
2606.830741	213.666667
2608.262290	198.666667
2609.693587	209.666667
2611.123031	221.333333
2612.552223	229.000000
2613.979565	228.000000
2615.408252	219.666667
2616.836688	189.666667
2618.261676	216.000000
2619.688011	202.000000
2621.112497	209.000000
2622.538329	193.000000
2623.960717	226.666667
2625.384451	219.333333
2626.806338	227.666667
2628.227976	245.333333
2629.647768	242.333333
2631.068906	277.333333
2632.489794	206.000000
2633.907244	256.000000
2635.327633	245.666667
2636.744585	262.000000
2638.161288	273.666667
2639.577743	291.000000
2640.993950	290.333333
2642.409909	318.000000
2643.824027	302.000000
2645.237897	346.000000
2646.649929	347.333333
2648.063304	349.000000
2649.473250	343.000000
2650.886132	397.333333
2652.295585	430.333333
2653.704792	452.000000
2655.112163	479.000000
2656.522468	540.000000
2657.930938	581.000000
2659.337572	573.666667
2660.743961	622.000000
2662.148516	700.666667
2663.554415	679.000000
2664.958481	800.000000
2666.362302	852.666667
2667.765879	886.333333
2669.167625	922.000000
2670.570714	1019.666667
2671.970385	1006.666667
2673.371400	1014.000000
2674.768999	1098.000000
2676.169527	1071.333333
2677.566641	1080.333333
2678.965098	1108.000000
2680.361728	1111.333333
2681.758115	1067.000000
2683.154260	1037.000000
2684.548579	1013.333333
2685.944241	938.000000
2687.336494	908.666667
2688.730089	808.666667
2690.121860	815.000000
2691.514974	719.666667
2692.906264	658.000000
2694.295731	619.666667
2695.684958	586.333333
2697.073946	522.333333
2698.464275	519.000000
2699.849621	493.666667
2701.237890	453.333333
2702.624339	440.000000
2704.010549	388.333333
2705.396520	384.000000
2706.779093	368.333333
2708.163008	346.666667
2709.546685	323.000000
2710.930123	289.666667
2712.310167	300.333333
2713.691551	315.333333
2715.071121	266.333333
2716.452031	258.666667
2717.831127	252.666667
2719.208409	231.000000
2720.587032	248.666667
2721.963842	254.666667
2723.340415	237.000000
2724.716753	225.666667
2726.091280	258.333333
2727.467147	197.333333
2728.839627	253.666667
2730.215023	214.333333
2731.585459	206.000000
2732.957236	164.000000
2734.328778	221.000000
2735.698512	199.666667
2737.069587	206.666667
2738.438853	164.666667
2739.807886	188.000000
2741.175113	184.333333
2742.542106	180.000000
2743.908867	180.000000
2745.275396	165.000000
2746.640119	204.666667
2748.004610	200.333333
2749.368870	201.666667
2750.732897	176.333333
2752.096693	167.666667
2753.457115	194.333333
2754.820447	167.333333
2756.178837	186.000000
2757.540137	163.333333
2758.898067	188.333333
2760.258905	148.333333
2761.617944	148.333333
2762.973614	164.666667
2764.332192	197.666667
2765.687403	158.000000
2767.042385	173.000000
2768.395571	185.333333
2769.751662	158.666667
2771.104390	124.666667
2772.456890	162.333333
2773.809161	148.333333
2775.162770	166.333333
2776.513019	153.666667
2777.861473	180.000000
2779.212833	180.333333
2780.560833	198.000000
2781.910171	179.666667
2783.257717	201.666667
2784.605037	147.333333
2785.952130	174.000000
2787.297432	164.666667
2788.642507	170.000000
2789.987357	137.333333
2791.331981	170.000000
2792.673253	170.666667
2794.015863	156.333333
2795.358247	168.666667
2796.700406	182.666667
2798.039216	166.000000
2799.380926	153.666667
2800.719288	136.666667
2802.058986	136.666667
2803.396900	163.333333
2804.733029	182.000000
2806.068934	173.000000
2807.406177	202.666667
2808.741636	158.333333
2810.076872	191.333333
2811.410325	176.000000
2812.745115	181.666667
2814.076565	139.666667
2815.410910	198.000000
2816.740357	164.666667
2818.071141	193.666667
2819.401703	173.666667
2820.730486	197.000000
2822.060605	150.333333
2823.388946	140.666667
2824.717066	183.000000
2826.043408	182.333333
2827.371087	142.000000
2828.695432	167.333333
2830.021114	168.333333
2831.345020	169.000000
2832.668707	132.666667
2833.993729	160.333333
2835.315421	110.000000
2836.636895	165.000000
2837.958150	146.000000
2839.279186	197.333333
2840.598449	170.333333
2841.919048	173.000000
2843.237876	133.333333
2844.556485	163.000000
2845.873323	174.000000
2847.189944	153.000000
2848.506348	134.000000
2849.820982	128.000000
2851.136952	149.666667
2852.449601	115.333333
2853.763585	115.666667
2855.077353	179.666667
2856.390904	123.666667
2857.702689	136.000000
2859.012707	105.666667
2860.324060	160.666667
2861.632098	132.333333
2862.941470	174.333333
2864.250628	144.000000
2865.559570	161.333333
2866.866748	161.333333
2868.172164	141.000000
2869.478913	140.333333
2870.783901	164.666667
2872.088675	129.000000
2873.391687	158.333333
2874.697580	116.666667
2875.998619	133.333333
2877.300992	156.666667
2878.601605	169.666667
2879.903552	121.000000
2881.205285	123.000000
2882.503715	156.666667
2883.803478	148.333333
2885.101484	149.333333
2886.399278	136.000000
2887.695316	147.000000
2888.992687	163.333333
2890.288302	125.333333
2891.583706	169.000000
2892.878899	115.000000
2894.170795	138.000000
2895.465567	152.000000
2896.757042	124.666667
2898.049850	115.333333
2899.342448	143.000000
2900.631752	147.666667
2901.922388	148.333333
2903.211273	152.333333
2904.501490	148.000000
2905.788416	123.333333
2907.076674	158.000000
2908.363183	124.000000
2909.649483	167.333333
2910.935576	138.000000
2912.219920	135.666667
2913.507135	140.000000
2914.789524	161.666667
2916.073245	141.000000
2917.355220	154.333333
2918.636987	144.333333
2919.917010	118.333333
2921.199902	119.333333
2922.481049	160.333333
2923.758914	132.000000
2925.039648	136.666667
2926.317101	137.000000
2927.594348	163.333333
2928.869853	144.000000
2930.148226	157.333333
2931.421785	119.666667
2932.698211	134.666667
2933.972896	151.333333
2935.245840	128.666667
2936.520116	121.666667
2937.792652	126.333333
2939.064983	129.666667
2940.334042	150.666667
2941.605966	133.000000
2942.876152	140.000000
2944.146134	151.666667
2945.415913	112.666667
2946.683956	145.000000
2947.950262	159.666667
2949.216367	112.000000
2950.483801	126.333333
2951.749501	120.000000
2953.014998	99.000000
2954.280293	111.000000
2955.542323	128.333333
2956.805683	123.000000
2958.068842	142.000000
2959.330269	126.000000
2960.593025	127.000000
2961.854049	108.333333
2963.113343	134.666667
2964.372437	130.000000
2965.631330	151.333333
2966.890023	130.000000
2968.148516	159.333333
2969.405280	159.666667
2970.661844	141.333333
2971.916681	121.333333
2973.172846	120.000000
2974.425757	133.333333
2975.679997	110.333333
2976.934037	67.000000
2978.186353	119.000000
2979.438469	128.000000
2980.688861	130.000000
2981.942108	117.000000
2983.190578	121.333333
2984.441903	137.000000
2985.689978	128.666667
2986.937857	118.000000
2988.185538	128.333333
2989.433022	119.333333
2990.678785	134.333333
2991.924352	129.333333
2993.171246	146.000000
2994.414896	123.000000
2995.659874	111.666667
2996.901608	130.666667
2998.146194	99.000000
2999.389061	98.333333
3000.628687	145.333333
3001.871163	103.000000
3003.110399	177.333333
3004.350963	132.666667
3005.589810	150.666667
3006.828463	136.000000
3008.065400	125.333333
3009.303665	148.333333
3010.540214	109.000000
3011.776570	128.000000
3013.012732	136.000000
3014.247180	130.333333
3015.481436	151.000000
3016.715498	117.666667
3017.947848	145.333333
3019.178486	120.666667
3020.411970	119.666667
3021.643742	134.333333
3022.873804	130.000000
3024.103673	126.333333
3025.331833	145.000000
3026.561320	98.333333
3027.789097	138.333333
3029.016683	115.000000
3030.245596	113.333333
3031.469766	145.000000
3032.696779	125.333333
3033.920568	109.666667
3035.145684	135.666667
3036.369093	143.333333
3037.592312	129.333333
3038.813826	97.666667
3040.038181	116.666667
3041.257801	118.333333
3042.478747	143.333333
3043.699504	112.666667
3044.918557	158.000000
3046.138935	111.333333
3047.356097	168.333333
3048.574585	101.333333
3049.791370	134.333333
3051.007968	142.333333
3052.224377	91.666667
3053.437574	91.333333
3054.653608	132.333333
3055.866430	128.333333
3057.082089	94.666667
3058.293025	131.000000
3059.505286	131.333333
3060.717361	120.000000
3061.929248	112.333333
3063.139439	96.333333
3064.349443	136.000000
3065.559261	103.000000
3066.767383	161.000000
3067.975320	130.666667
3069.181561	157.333333
3070.389127	99.666667
3071.594998	100.666667
3072.800685	101.666667
3074.006186	89.333333
3075.209994	103.666667
3076.415126	125.333333
3077.618565	126.333333
3078.820313	128.000000
3080.021876	104.000000
3081.223256	107.666667
3082.424452	111.666667
3083.623958	139.000000
3084.823281	93.666667
3086.023927	112.666667
3087.222883	92.333333
3088.418645	127.666667
3089.617236	103.333333
3090.812633	131.666667
3092.009353	137.000000
3093.202881	99.666667
3094.399237	85.666667
3095.593907	114.666667
3096.785385	111.000000
3097.981196	133.000000
3099.172312	128.000000
3100.364752	132.000000
3101.554004	131.333333
3102.746081	126.000000
3103.936475	102.000000
3105.123683	134.000000
3106.312213	105.000000
3107.502066	83.666667
3108.688735	112.666667
3109.875223	159.333333
3111.061533	121.666667
3112.249164	123.333333
3113.433613	89.000000
3114.616383	120.333333
3115.801975	126.333333
3116.985888	127.000000
3118.168122	143.666667
3119.350177	106.000000
3120.532054	87.000000
3121.713753	112.666667
3122.893775	103.666667
3124.072120	133.666667
3125.253285	101.000000
3126.431275	82.666667
3127.609089	97.333333
3128.786725	114.333333
3129.962686	110.333333
3131.138470	95.666667
3132.315576	98.666667
3133.491007	100.000000
3134.664765	95.000000
3135.836850	125.333333
3137.010257	92.333333
3138.183487	101.000000
3139.355046	116.666667
3140.527925	118.333333
3141.697637	90.000000
3142.868670	113.000000
3144.038033	96.333333
3145.205725	119.333333
3146.376233	117.666667
3147.542083	120.000000
3148.712241	101.333333
3149.877743	120.333333
3151.043070	101.333333
3152.208224	96.000000
3153.373205	116.000000
3154.539505	86.333333
3155.701153	121.333333
3156.864120	100.000000
3158.026915	99.333333
3159.189537	114.000000
3160.350494	113.000000
3161.511278	87.000000
3162.671890	137.333333
3163.830838	101.666667
3164.989615	92.333333
3166.148220	115.000000
3167.306652	91.333333
3168.464914	117.333333
3169.621513	87.666667
3170.776451	76.333333
3171.932708	100.333333
3173.087304	114.000000
3174.241730	100.333333
3175.394496	120.333333
3176.547091	100.333333
3177.699517	88.333333
3178.851773	87.333333
3180.003858	112.000000
3181.152798	93.666667
3182.304544	117.666667
3183.454632	136.666667
3184.603064	109.000000
3185.751326	80.000000
3186.899420	126.666667
3188.047345	95.000000
3189.193614	105.000000
3190.339715	81.666667
3191.484162	129.333333
3192.628441	100.666667
3193.772552	122.666667
3194.917980	83.000000
3196.060270	94.000000
3197.202393	88.000000
3198.344348	88.666667
3199.486136	127.666667
3200.627757	114.333333
3201.766243	130.666667
3202.906046	118.333333
3204.047167	113.333333
3205.185153	106.000000
3206.321490	78.333333
3207.457661	114.666667
3208.595149	121.666667
3209.730989	122.333333
3210.868146	112.666667
3212.000690	116.333333
3213.137516	127.000000
3214.269730	133.333333
3215.403261	85.333333
3216.536628	108.666667
3217.666867	94.666667
3218.799904	112.666667
3219.929815	101.333333
3221.061042	71.666667
3222.189145	90.333333
3223.320044	129.333333
3224.449299	124.666667
3225.576911	122.000000
3226.701400	76.333333
3227.830165	126.333333
3228.955808	88.666667
3230.081289	110.333333
3231.205128	125.000000
3232.331761	93.000000
3233.453797	92.666667
3234.577149	117.000000
3235.700339	99.666667
3236.823366	121.666667
3237.944755	133.000000
3239.065981	127.666667
3240.185570	124.666667
3241.304997	140.000000
3242.422786	128.333333
3243.543367	162.333333
3244.660835	137.666667
3245.778142	149.333333
3246.895289	110.000000
3248.010800	119.666667
3249.127625	106.666667
3250.241341	160.000000
3251.357846	120.666667
3252.472717	102.666667
3253.584479	89.000000
3254.696081	129.000000
3255.808999	121.666667
3256.921757	149.333333
3258.031409	89.333333
3259.142376	102.333333
3260.253184	114.333333
3261.362360	110.666667
3262.469906	91.666667
3263.578765	132.333333
3264.687467	108.666667
3265.793066	110.666667
3266.899979	89.000000
3268.005263	112.000000
3269.111861	66.666667
3270.215359	75.333333
3271.320172	105.333333
3272.424827	137.666667
3273.526383	92.333333
3274.627783	91.000000
3275.730497	109.333333
3276.833055	101.666667
3277.932516	147.333333
3279.034761	106.666667
3280.133910	84.000000
3281.231435	96.666667
3282.328804	106.000000
3283.428955	96.333333
3284.526014	94.666667
3285.622917	96.333333
3286.719665	87.000000
3287.811855	95.666667
3288.908293	93.666667
3290.003109	108.666667
3291.097771	61.000000
3292.190811	90.333333
3293.283696	98.333333
3294.374962	126.000000
3295.467539	109.666667
3296.558497	101.333333
3297.647835	86.666667
3298.737020	88.000000
3299.827518	105.333333
3300.914931	109.000000
3302.002191	78.666667
3303.090764	123.000000
3304.179185	124.666667
3305.263058	77.000000
3306.351173	92.333333
3307.436206	96.666667
3308.519624	63.000000
3309.604354	107.333333
3310.687468	89.000000
3311.771895	96.666667
3312.853243	80.333333
3313.935903	94.666667
3315.016949	91.000000
3316.097844	93.666667
3317.177125	73.333333
3318.256256	114.666667
3319.336699	81.000000
3320.414067	129.333333
3321.492747	61.000000
3322.569815	72.666667
3323.646734	89.666667
3324.722041	82.000000
3325.797199	105.000000
3326.873668	63.333333
3327.947067	58.000000
3329.020317	122.666667
3330.094877	71.666667
3331.167829	87.666667
3332.239172	96.333333
3333.311826	87.333333
3334.381414	91.333333
3335.452312	103.333333
3336.521603	78.000000
3337.592205	139.333333
3338.661200	79.333333
3339.728589	109.666667
3340.794373	68.333333
3341.864383	117.333333
3342.931330	96.333333
3343.995215	97.666667
3345.061868	80.666667
3346.126916	104.000000
3347.190361	59.333333
3348.253660	86.666667
3349.316812	118.666667
3350.379818	94.000000
3351.442678	77.000000
3352.503936	88.666667
3353.562137	75.333333
3354.624558	60.000000
3355.683924	56.666667
3356.743144	112.000000
3357.803673	93.333333
3358.859694	100.666667
3359.918478	59.666667
3360.972755	70.333333
3362.029796	61.000000
3363.085238	92.000000
3364.141990	103.333333
3365.197143	88.333333
3366.250699	74.333333
3367.302659	81.000000
3368.357380	61.666667
3369.409052	98.000000
3370.460581	84.000000
3371.513418	103.666667
3372.563208	73.666667
3373.614307	97.666667
3374.662360	106.000000
3375.713172	101.000000
3376.760940	81.000000
3377.808565	111.333333
3378.856047	97.000000
3379.901937	117.000000
3380.949135	47.000000
3381.993291	105.666667
3383.040205	70.666667
3384.085527	86.000000
3385.127808	88.666667
3386.169949	77.333333
3387.213397	86.000000
3388.256704	91.000000
3389.298422	66.000000
3390.339998	73.333333
3391.381433	97.666667
3392.421280	93.333333
3393.459538	90.000000
3394.499104	91.000000
3395.538530	64.666667
3396.576368	136.666667
3397.612619	77.333333
3398.648731	74.333333
3399.686150	78.333333
3400.720536	85.666667
3401.756229	57.666667
3402.791783	46.333333
3403.824306	94.666667
3404.859582	73.000000
3405.891827	64.666667
3406.923934	92.000000
3407.954457	78.000000
3408.986287	95.000000
3410.017979	79.666667
3411.046643	100.000000
3412.075170	85.000000
3413.105003	78.333333
3414.134699	63.000000
3415.161369	117.666667
3416.189346	97.666667
3417.214298	101.666667
3418.242000	99.666667
3419.266679	89.000000
3420.292664	76.000000
3421.317069	96.666667
3422.341338	87.333333
3423.364028	102.666667
3424.386582	41.000000
3425.410442	74.333333
3426.431282	68.000000
3427.451986	93.666667
3428.473997	88.000000
3429.492989	87.666667
3430.511845	96.000000
3431.532008	122.000000
3432.549154	107.333333
