-116.707459	1.000000
-114.037859	19.333333
-111.371194	-18.333333
-108.705281	-12.666667
-106.042300	-11.000000
-103.377890	-3.000000
-100.716410	20.000000
-98.053501	-15.000000
-95.395698	15.333333
-92.736466	35.666667
-90.077982	-11.333333
-87.422422	6.000000
-84.765434	-12.333333
-82.113544	15.000000
-79.460224	2.666667
-76.809823	20.666667
-74.157993	-10.666667
-71.511254	8.333333
-68.863086	-3.333333
-66.215660	-34.333333
-63.571148	-3.333333
-60.925208	-0.666667
-58.284349	5.333333
-55.642061	35.333333
-53.002682	44.000000
-50.361873	64.333333
-47.721805	1.000000
-45.086809	36.000000
-42.450385	16.000000
-39.816863	-8.666667
-37.181913	13.000000
-34.552028	13.666667
-31.918551	27.000000
-29.290136	14.000000
-26.662455	24.000000
-24.033345	41.666667
-21.409292	24.666667
-18.781650	65.666667
-16.159061	33.666667
-13.537204	51.000000
-10.916077	113.333333
-8.295680	206.333333
-5.678172	679.000000
-3.059235	2170.000000
-0.443183	5878.333333
2.172140	9366.000000
4.786736	5052.666667
7.398449	697.666667
10.011591	54.333333
12.619699	22.000000
15.231389	22.333333
17.838048	47.666667
20.446135	11.000000
23.053498	31.000000
25.655836	29.666667
28.261752	36.333333
30.862646	-19.000000
33.464968	44.666667
36.062273	3.333333
38.663153	19.666667
41.259018	20.000000
43.856312	-2.333333
46.452886	9.666667
49.044451	32.666667
51.637444	23.333333
54.227576	18.666667
56.819136	-12.000000
59.407836	31.666667
61.997963	26.666667
64.583091	34.000000
67.169647	-7.000000
69.755489	16.666667
72.338477	36.000000
74.922891	32.666667
77.500177	-2.333333
80.081029	0.666667
82.659032	7.333333
85.236325	26.000000
87.815044	15.333333
90.388781	38.333333
92.963946	42.333333
95.536267	18.666667
98.107880	30.000000
100.676653	-23.000000
103.246853	10.000000
105.814215	31.333333
108.383002	4.333333
110.948953	26.333333
113.512069	-6.000000
116.078741	24.333333
118.636192	30.666667
121.199328	48.000000
123.757504	75.333333
126.319235	70.666667
128.876009	116.666667
131.434210	151.000000
133.987457	207.666667
136.540007	374.000000
139.096107	440.666667
141.647259	611.000000
144.197714	688.000000
146.747471	810.333333
149.294409	891.000000
151.840652	972.000000
154.388320	976.333333
156.935292	972.000000
159.477329	972.666667
162.018672	988.666667
164.559322	946.000000
167.101398	1007.666667
169.640662	927.333333
172.177118	991.333333
174.712882	1007.000000
177.250072	966.000000
179.786571	1013.666667
182.320264	927.333333
184.851153	956.000000
187.381355	944.333333
189.912981	952.333333
192.441806	904.666667
194.967832	930.333333
197.493172	967.333333
200.019937	915.333333
202.543906	942.333333
205.067190	932.666667
207.589789	940.000000
210.109595	923.333333
212.628718	943.666667
215.147158	916.000000
217.667022	1012.333333
220.179885	938.666667
222.696279	1009.666667
225.211991	967.333333
227.722813	1047.333333
230.235060	1009.333333
232.744525	990.000000
235.253311	1013.666667
237.761418	993.666667
240.270950	1006.666667
242.775601	1058.000000
245.279576	1063.666667
247.784975	998.666667
250.285499	1018.666667
252.789547	1002.333333
255.286623	994.000000
257.787223	1014.666667
260.285051	951.333333
262.782206	934.666667
265.278688	965.666667
267.770307	981.666667
270.265446	1008.666667
272.757818	1077.000000
275.249520	1004.333333
277.738459	974.333333
280.228822	1021.000000
282.716422	1022.000000
285.201263	1051.000000
287.689619	1086.000000
290.171035	1089.666667
292.655965	1063.000000
295.136050	1093.333333
297.619647	1172.333333
300.098401	1193.333333
302.578579	1230.000000
305.056004	1211.333333
307.532766	1134.000000
310.008865	1171.333333
312.482215	1082.000000
314.954903	1055.666667
317.426930	1072.000000
319.898296	1103.000000
322.366917	1091.000000
324.834880	1102.000000
327.304264	1052.666667
329.768826	1062.000000
332.236892	986.333333
334.700138	990.000000
337.162726	982.333333
339.624658	936.000000
342.085933	983.000000
344.544474	947.000000
347.004437	891.333333
349.461667	883.333333
351.918243	882.666667
354.374165	894.333333
356.827357	845.333333
359.281972	867.000000
361.731785	831.333333
364.185094	839.333333
366.633605	850.000000
369.081464	828.333333
371.530746	834.000000
373.975234	781.000000
376.421144	794.000000
378.866404	774.000000
381.308946	791.000000
383.750840	751.666667
386.192087	760.333333
388.630618	799.333333
391.070571	787.000000
393.507810	733.666667
395.942337	744.333333
398.380352	731.333333
400.813590	713.333333
403.248249	707.666667
405.678136	761.000000
408.111508	765.000000
410.540110	731.333333
412.968070	706.333333
415.397452	719.000000
417.822068	694.000000
420.248106	719.666667
422.673503	669.000000
425.098260	682.000000
427.518259	703.666667
429.939679	658.333333
432.358402	669.333333
434.778546	704.666667
437.195995	657.666667
439.614864	653.000000
442.031040	622.333333
444.442468	648.000000
446.857374	580.000000
449.269589	569.666667
451.681170	616.333333
454.092117	564.333333
456.500378	530.000000
458.908006	523.666667
461.315002	519.000000
463.721367	505.000000
466.125049	534.666667
468.528101	513.333333
470.930523	523.333333
473.332315	543.333333
475.731430	508.000000
478.131964	520.666667
480.531869	590.000000
482.927051	528.000000
485.325700	584.666667
487.719629	611.000000
490.112932	610.666667
492.505609	659.666667
494.897661	682.333333
497.291131	778.333333
499.679889	912.333333
502.065981	1128.666667
504.453493	1431.666667
506.840382	1985.000000
509.224607	2619.000000
511.610250	3915.333333
513.993232	5465.333333
516.373553	7247.666667
518.755293	8469.000000
521.134374	8292.333333
523.514874	7447.000000
525.892716	6194.666667
528.267903	5226.666667
530.642472	4299.333333
533.018459	3604.666667
535.391794	3204.666667
537.766546	2775.333333
540.136613	2507.666667
542.506064	2244.000000
544.876933	2039.000000
547.243122	1932.666667
549.610729	1721.666667
551.975690	1692.000000
554.340038	1569.666667
556.703773	1492.000000
559.068926	1450.666667
561.429407	1421.666667
563.791306	1373.666667
566.150564	1275.000000
568.507185	1248.666667
570.867250	1227.000000
573.220624	1172.333333
575.577443	1166.000000
577.931627	1103.666667
580.285202	1049.000000
582.638170	1076.333333
584.988505	1013.333333
587.340258	1019.333333
589.685334	977.333333
592.035874	962.333333
594.379740	899.333333
596.729068	913.666667
599.073747	899.666667
601.415802	858.333333
603.759274	832.333333
606.100123	844.333333
608.440370	889.666667
610.777996	941.333333
613.119057	974.000000
615.455480	986.333333
617.793320	995.666667
620.128543	999.000000
622.461150	992.666667
624.795173	914.000000
627.126582	876.666667
629.457393	898.666667
631.787607	860.666667
634.117222	833.666667
636.442214	800.333333
638.772648	825.000000
641.098461	841.000000
643.421666	837.666667
645.746288	792.666667
648.068304	864.333333
650.389726	779.333333
652.708546	785.000000
655.028781	733.333333
657.348423	756.000000
659.665464	753.333333
661.981913	735.000000
664.295764	673.000000
666.611031	739.333333
668.923701	736.333333
671.237786	755.000000
673.547271	751.666667
675.858172	771.000000
678.166480	737.000000
680.474200	679.333333
682.783334	662.666667
685.087876	731.000000
687.391832	709.000000
689.695202	639.666667
691.999986	619.333333
694.300184	624.000000
696.601796	592.333333
698.902823	598.666667
701.199269	593.666667
703.497130	615.666667
705.794407	629.000000
708.091101	600.000000
710.383219	570.333333
712.678748	573.666667
714.969703	580.333333
717.262073	577.333333
719.551868	592.000000
721.841082	615.333333
724.129717	571.000000
726.415779	578.000000
728.703256	574.000000
730.988161	535.666667
733.272489	557.666667
735.554248	575.333333
737.837421	585.666667
740.120017	589.000000
742.398057	555.000000
744.677512	583.000000
746.956390	528.666667
749.234694	573.333333
751.508448	575.000000
753.783615	551.333333
756.058209	504.333333
758.330244	560.333333
760.603692	562.000000
762.874582	558.666667
765.142916	550.333333
767.412663	530.333333
769.679856	535.000000
771.946478	545.666667
774.212530	550.333333
776.476031	529.333333
778.740945	564.000000
781.005289	550.000000
783.265104	518.333333
785.526331	520.000000
787.786991	532.666667
790.045105	566.000000
792.300674	509.000000
794.559634	604.000000
796.812095	573.000000
799.069922	575.666667
801.323231	542.000000
803.574000	595.333333
805.826181	557.000000
808.075823	584.666667
810.326878	546.666667
812.573421	583.666667
814.821376	542.666667
817.066797	585.000000
819.313629	596.333333
821.559900	539.333333
823.801666	516.000000
826.046816	573.666667
828.285493	572.333333
830.527552	540.333333
832.765113	547.000000
835.004086	545.333333
837.240532	543.333333
839.478389	527.666667
841.713721	510.333333
843.946530	543.333333
846.180750	524.333333
848.412447	510.000000
850.643590	536.000000
852.874178	553.000000
855.104212	562.000000
857.333692	471.333333
859.558690	525.333333
861.787063	527.333333
864.010956	490.666667
866.236261	491.666667
868.457090	498.000000
870.681291	468.000000
872.901019	525.000000
875.122157	518.000000
877.342745	503.666667
879.560824	538.333333
881.780312	468.000000
883.995334	469.000000
886.209808	539.000000
888.423735	504.000000
890.637115	490.333333
892.849947	474.666667
895.062233	497.333333
897.272016	493.666667
899.481254	497.333333
901.689947	494.000000
903.896141	497.333333
906.103744	484.666667
908.308849	487.000000
910.513411	514.000000
912.715478	520.000000
914.918954	489.666667
917.119936	565.333333
919.320376	571.333333
921.522225	605.333333
923.717683	608.666667
925.916500	627.000000
928.110878	704.000000
930.308614	758.000000
932.501914	878.666667
934.696623	980.000000
936.888846	1085.333333
939.080530	1059.333333
941.271677	1147.000000
943.460341	1141.333333
945.648469	1169.333333
947.834116	1108.000000
950.023115	1176.666667
952.207691	1128.333333
954.391732	1184.000000
956.579123	1146.333333
958.758210	1136.000000
960.940648	1185.333333
963.122552	1202.000000
965.301981	1206.000000
967.478938	1196.000000
969.657303	1184.333333
971.837075	1215.333333
974.010498	1224.333333
976.187267	1222.000000
978.359629	1164.000000
980.533399	1183.000000
982.702765	1152.000000
984.875475	1122.000000
987.045720	992.666667
989.215436	953.666667
991.384623	832.000000
993.549413	765.333333
995.717544	757.000000
997.881281	705.333333
1000.046424	677.000000
1002.209108	664.000000
1004.371267	645.666667
1006.530969	611.000000
1008.690146	608.666667
1010.850730	596.333333
1013.008859	575.333333
1015.166465	555.333333
1017.323547	552.333333
1019.480105	510.666667
1021.632284	484.333333
1023.785870	503.000000
1025.938934	464.000000
1028.089549	453.333333
1030.241571	470.000000
1032.389219	436.666667
1034.540199	430.333333
1036.686808	424.333333
1038.832898	446.000000
1040.978470	440.666667
1043.125447	436.000000
1045.266135	432.666667
1047.410153	485.000000
1049.551730	446.333333
1051.692791	440.333333
1053.835256	432.000000
1055.971442	433.333333
1058.110953	429.333333
1060.246110	434.333333
1062.384591	464.000000
1064.518718	429.333333
1066.652332	455.333333
1068.787351	422.333333
1070.918020	466.000000
1073.050094	430.666667
1075.179739	416.333333
1077.308872	408.333333
1079.437493	428.666667
1081.565603	421.666667
1083.691287	389.666667
1085.816461	468.000000
1087.943039	445.666667
1090.065279	419.000000
1092.188924	434.666667
1094.308234	392.333333
1096.432774	401.666667
1098.551068	405.000000
1100.670767	409.000000
1102.788047	395.666667
1104.904821	419.666667
1107.021088	411.666667
1109.134939	402.000000
1111.250195	374.000000
1113.361127	411.666667
1115.475372	415.000000
1117.585296	422.000000
1119.696624	406.666667
1121.807447	416.000000
1123.913954	377.000000
1126.023771	384.666667
1128.129273	364.666667
1130.236178	376.000000
1132.336868	348.666667
1134.442770	392.666667
1136.544363	352.000000
1138.647359	376.666667
1140.749854	340.000000
1142.846142	394.666667
1144.947637	348.333333
1147.044830	361.333333
1149.141525	356.666667
1151.237721	371.333333
1153.333420	382.000000
1155.428620	375.666667
1157.521424	359.000000
1159.615631	362.666667
1161.703646	377.666667
1163.796859	400.000000
1165.883884	369.666667
1167.974208	391.666667
1170.060244	383.000000
1172.149579	417.333333
1174.232732	361.333333
1176.317287	385.000000
1178.403244	374.666667
1180.484919	384.666667
1182.567996	376.666667
1184.648687	370.666667
1186.728886	354.000000
1188.808594	360.666667
1190.887811	363.666667
1192.964646	369.333333
1195.039100	356.000000
1197.116845	401.666667
1199.190321	352.000000
1201.265197	390.333333
1203.335806	374.333333
1205.407816	373.333333
1207.477451	331.333333
1209.548486	383.000000
1211.619033	368.333333
1213.685319	358.000000
1215.753006	373.000000
1217.818321	337.666667
1219.885036	375.666667
1221.947495	348.000000
1224.013239	346.666667
1226.074729	313.333333
1228.137620	345.666667
1230.198143	314.000000
1232.258182	343.333333
1234.317739	380.000000
1236.374930	355.666667
1238.431640	370.666667
1240.485986	358.666667
1242.543614	362.000000
1244.598879	386.000000
1246.649903	332.333333
1248.702327	324.666667
1250.754271	382.666667
1252.803857	332.333333
1254.852964	384.000000
1256.901593	353.666667
1258.949743	354.666667
1260.997414	352.000000
1263.040855	364.000000
1265.087572	361.000000
1267.131935	389.000000
1269.175822	344.333333
1271.217357	347.000000
1273.256543	375.000000
1275.299002	352.666667
1277.337238	347.333333
1279.376873	377.000000
1281.416033	315.666667
1283.450974	345.333333
1285.487314	401.333333
1287.521310	380.333333
1289.556703	352.000000
1291.587884	363.666667
1293.620462	328.666667
1295.652569	367.333333
1297.682335	358.000000
1299.713498	358.000000
1301.740455	344.333333
1303.768809	320.333333
1305.792958	341.333333
1307.820373	359.000000
1309.843585	335.000000
1311.868195	314.333333
1313.890471	322.333333
1315.914144	352.666667
1317.935484	348.666667
1319.956356	372.333333
1321.976761	309.666667
1323.992973	314.666667
1326.010582	321.000000
1328.025863	341.333333
1330.044403	361.000000
1332.058754	327.333333
1334.070779	362.666667
1336.086061	325.000000
1338.097158	323.666667
1340.109652	341.333333
1342.117963	361.666667
1344.129529	354.666667
1346.135057	328.333333
1348.143840	311.666667
1350.148445	330.000000
1352.156304	345.333333
1354.163701	329.333333
1356.165067	365.000000
1358.167829	363.333333
1360.170132	327.666667
1362.171975	363.000000
1364.173358	392.666667
1366.172428	355.000000
1368.171039	343.333333
1370.169192	333.333333
1372.166886	325.666667
1374.160418	327.666667
1376.155345	359.000000
1378.149816	339.333333
1380.143830	360.000000
1382.135537	320.333333
1384.126789	310.666667
1386.115735	301.333333
1388.106076	335.000000
1390.095962	351.666667
1392.083544	326.000000
1394.070673	315.333333
1396.055500	315.000000
1398.041722	330.333333
1400.025644	363.666667
1402.009113	325.333333
1403.992129	337.666667
1405.972848	290.000000
1407.954961	323.333333
1409.934778	309.333333
1411.914143	346.333333
1413.889370	288.000000
1415.867835	327.333333
1417.844007	299.000000
1419.819730	337.666667
1421.795003	311.666667
1423.767985	327.000000
1425.740519	313.333333
1427.712605	304.000000
1429.684244	252.000000
1431.651754	314.000000
1433.624338	283.666667
1435.589116	288.000000
1437.558967	319.666667
1439.524694	302.666667
1441.491813	336.333333
1443.456649	309.000000
1445.417365	293.666667
1447.383149	316.000000
1449.342978	309.666667
1451.304201	315.333333
1453.266816	317.666667
1455.225316	320.333333
1457.183373	346.666667
1459.140989	339.333333
1461.098162	319.333333
1463.053060	332.333333
1465.009351	324.333333
1466.963367	324.000000
1468.916942	315.666667
1470.868245	303.666667
1472.820941	303.666667
1474.771364	344.000000
1476.721349	307.000000
1478.670895	331.333333
1480.618172	297.000000
1482.563181	289.000000
1484.509583	261.666667
1486.455547	324.000000
1488.401074	319.666667
1490.344335	296.333333
1492.287161	296.666667
1494.227723	282.333333
1496.169676	321.666667
1498.109367	326.000000
1500.048624	299.333333
1501.987445	289.666667
1503.924007	275.666667
1505.861960	301.000000
1507.797654	275.666667
1509.732915	322.666667
1511.665920	246.000000
1513.598492	338.000000
1515.530632	304.333333
1517.462340	353.666667
1519.391794	282.000000
1521.322639	331.000000
1523.253052	250.333333
1525.179393	349.333333
1527.107125	301.666667
1529.032606	316.333333
1530.957658	326.666667
1532.882281	316.000000
1534.806475	356.000000
1536.728421	344.666667
1538.651758	297.333333
1540.572848	332.666667
1542.491694	297.000000
1544.411930	326.666667
1546.329923	358.333333
1548.247489	333.666667
1550.162813	328.000000
1552.079527	337.000000
1553.992186	379.666667
1555.908049	383.000000
1557.821672	381.000000
1559.733057	387.000000
1561.645832	348.000000
1563.554557	381.333333
1565.464671	416.666667
1567.374362	447.333333
1569.283630	450.666667
1571.190664	484.000000
1573.095465	524.000000
1575.001655	603.000000
1576.905613	617.666667
1578.809150	694.000000
1580.712267	829.333333
1582.613154	913.333333
1584.515430	1051.666667
1586.415478	1178.666667
1588.316913	1120.333333
1590.214315	1049.333333
1592.111298	914.666667
1594.007863	732.000000
1595.905816	584.000000
1597.797934	518.333333
1599.693245	461.333333
1601.588139	399.333333
1603.480811	398.333333
1605.373066	385.000000
1607.263102	367.000000
1609.152722	371.333333
1611.041927	366.666667
1612.930717	354.000000
1614.817289	313.333333
1616.705249	377.000000
1618.589192	301.000000
1620.474522	368.666667
1622.359439	348.333333
1624.242142	317.666667
1626.126232	325.000000
1628.006310	326.666667
1629.887776	332.333333
1631.767031	327.000000
1633.647672	279.333333
1635.522509	312.333333
1637.402327	284.666667
1639.278141	355.000000
1641.153544	291.333333
1643.030333	274.000000
1644.901326	308.666667
1646.775500	292.333333
1648.645675	268.333333
1650.519032	270.333333
1652.390184	274.333333
1654.259136	287.666667
1656.129472	283.333333
1657.995816	287.666667
1659.863545	276.333333
1661.729075	282.000000
1663.595991	241.333333
1665.458918	288.000000
1667.323230	313.666667
1669.185346	268.333333
1671.047057	268.666667
1672.910154	281.333333
1674.771055	280.000000
1676.629764	252.000000
1678.488069	282.333333
1680.347759	250.333333
1682.201681	239.666667
1684.058777	296.000000
1685.915470	244.333333
1687.768186	238.333333
1689.624074	268.333333
1691.475988	271.666667
1693.327501	248.000000
1695.178613	226.000000
1697.029325	256.333333
1698.879635	281.333333
1700.727762	254.000000
1702.577273	257.333333
1704.421035	257.666667
1706.269746	238.333333
1708.112711	228.333333
1709.958843	212.333333
1711.801012	262.000000
1713.646347	279.666667
1715.485941	233.666667
1717.326919	266.000000
1719.169280	266.333333
1721.007685	291.666667
1722.847473	249.666667
1724.685086	237.666667
1726.522303	210.000000
1728.357347	230.000000
1730.193774	264.333333
1732.028029	216.000000
1733.861889	206.333333
1735.695355	211.666667
1737.524876	228.666667
1739.357555	256.666667
1741.186290	222.000000
1743.018182	226.333333
1744.846132	249.000000
1746.673691	264.333333
1748.500857	239.666667
1750.327632	250.000000
1752.154015	248.333333
1753.976462	254.666667
1755.802064	230.666667
1757.623731	257.333333
1759.446780	262.000000
1761.267667	222.666667
1763.088166	238.333333
1764.910045	250.000000
1766.726226	274.333333
1768.545558	259.000000
1770.360963	217.333333
1772.179518	230.000000
1773.994148	215.000000
1775.808391	233.333333
1777.622248	220.000000
1779.435718	234.333333
1781.247035	248.333333
1783.059732	280.333333
1784.872044	251.666667
1786.680438	208.333333
1788.490212	248.666667
1790.296072	246.333333
1792.105077	216.000000
1793.910169	261.666667
1795.716642	210.000000
1797.522731	235.666667
1799.324909	228.666667
1801.130232	237.333333
1802.931646	222.333333
1804.734440	226.666667
1806.533328	245.666667
1808.333597	182.666667
1810.133484	257.333333
1811.931229	229.666667
1813.728594	199.333333
1815.525579	241.333333
1817.322183	238.666667
1819.116648	208.666667
1820.912492	233.000000
1822.702681	197.000000
1824.497767	242.000000
1826.287201	220.666667
1828.079771	243.666667
1829.870206	246.000000
1831.658507	223.000000
1833.449943	274.333333
1835.235733	203.666667
1837.022903	269.666667
1838.807941	227.666667
1840.596113	235.333333
1842.380399	230.666667
1844.162555	242.000000
1845.946091	247.666667
1847.727498	249.000000
1849.510284	224.000000
1851.289189	239.333333
1853.069474	215.333333
1854.847632	225.333333
1856.627169	217.000000
1858.404581	297.333333
1860.179869	216.333333
1861.956535	264.333333
1863.731079	214.666667
1865.507001	236.333333
1867.277302	253.333333
1869.050731	244.000000
1870.822040	207.000000
1872.592978	254.666667
1874.365294	223.000000
1876.131996	192.000000
1877.901824	253.333333
1879.667788	235.000000
1881.436875	243.000000
1883.202101	257.000000
1884.966959	231.666667
1886.733194	240.333333
1888.495570	223.333333
1890.257579	217.000000
1892.019220	231.666667
1893.780495	205.333333
1895.541402	225.666667
1897.301943	223.333333
1899.060374	225.000000
1900.818439	245.333333
1902.574397	226.666667
1904.331731	235.333333
1906.088700	236.333333
1907.843562	211.333333
1909.596320	232.000000
1911.348713	205.333333
1913.102483	233.000000
1914.854149	261.000000
1916.603713	221.333333
1918.354652	231.333333
1920.105229	210.333333
1921.851966	231.666667
1923.600080	200.000000
1925.346094	210.666667
1927.093483	161.666667
1928.838775	194.000000
1930.581969	220.666667
1932.326538	252.666667
1934.069012	214.666667
1935.811125	215.000000
1937.552878	219.666667
1939.294271	221.000000
1941.033571	212.666667
1942.772512	227.666667
1944.511094	227.666667
1946.247585	196.000000
1947.983718	206.166667
1949.721225	216.333333
1951.454910	198.333333
1953.189970	242.333333
1954.922941	217.333333
1956.655556	216.333333
1958.387815	198.000000
1960.119717	179.666667
1961.849533	221.333333
1963.577264	203.000000
1965.306370	192.666667
1967.035121	256.000000
1968.761788	216.000000
1970.488101	206.333333
1972.215787	200.666667
1973.937937	202.333333
1975.663188	211.000000
1977.384632	213.666667
1979.109177	187.666667
1980.831641	266.000000
1982.550303	230.666667
1984.272063	229.333333
1985.990021	207.666667
1987.709352	223.333333
1989.424884	201.666667
1991.145236	223.666667
1992.861790	195.000000
1994.574547	218.666667
1996.290400	205.666667
1998.004181	213.666667
1999.717612	234.333333
2001.428972	247.666667
2003.141704	217.666667
2004.850646	234.666667
2006.562680	221.666667
2008.269206	219.000000
2009.978823	223.333333
2011.686374	247.666667
2013.393576	192.000000
2015.098713	193.666667
2016.803504	224.666667
2018.509666	218.333333
2020.212046	195.000000
2021.915797	235.000000
2023.617486	204.333333
2025.318830	194.000000
2027.019828	187.000000
2028.718765	196.000000
2030.419074	200.333333
2032.115608	218.333333
2033.813513	204.666667
2035.509359	239.333333
2037.208291	245.000000
2038.901737	189.333333
2040.596554	190.000000
2042.291029	228.333333
2043.981735	206.000000
2045.675525	210.666667
2047.365548	170.666667
2049.056942	214.000000
2050.746283	202.333333
2052.436994	183.000000
2054.123942	221.000000
2055.810551	179.666667
2057.498529	200.000000
2059.182748	227.000000
2060.868338	182.666667
2062.553588	236.333333
2064.236789	194.000000
2065.921361	203.666667
2067.600470	199.000000
2069.284364	231.333333
2070.962797	190.000000
2072.644308	192.333333
2074.322067	218.666667
2075.999490	201.333333
2077.678282	196.666667
2079.355032	231.333333
2081.029740	180.000000
2082.705817	211.333333
2084.379853	196.333333
2086.053555	213.333333
2087.726921	183.666667
2089.398248	197.000000
2091.069241	208.333333
2092.739900	199.333333
2094.410225	191.666667
2096.080216	203.333333
2097.748171	192.333333
2099.415793	160.333333
2101.081380	177.000000
2102.748336	226.333333
2104.413259	208.666667
2106.077850	229.333333
2107.740409	185.000000
2109.404336	192.000000
2111.066232	194.000000
2112.727798	193.333333
2114.389032	191.000000
2116.048238	176.666667
2117.707113	200.666667
2119.365659	187.333333
2121.023874	243.000000
2122.678367	190.000000
2124.335924	228.333333
2125.993152	171.333333
2127.646658	177.666667
2129.301532	209.666667
2130.952687	184.000000
2132.606905	222.333333
2134.257406	193.666667
2135.909273	194.666667
2137.555732	170.333333
2139.206946	184.666667
2140.854446	169.666667
2142.503313	209.000000
2144.150161	184.000000
2145.796684	218.000000
2147.442881	178.666667
2149.085370	216.333333
2150.730917	187.000000
2152.372757	174.000000
2154.017654	199.333333
2155.658845	205.666667
2157.299714	157.000000
2158.940258	234.666667
2160.578790	167.000000
2162.218688	186.333333
2163.854886	193.000000
2165.492450	212.000000
2167.129692	218.000000
2168.764924	195.333333
2170.399835	194.000000
2172.034423	232.000000
2173.668691	203.333333
2175.299265	159.666667
2176.932891	195.000000
2178.562825	208.666667
2180.194124	185.333333
2181.823418	188.333333
2183.452393	186.333333
2185.081048	204.333333
2186.709384	178.333333
2188.335718	196.000000
2189.961733	205.000000
2191.585746	206.000000
2193.211125	197.000000
2194.834503	212.666667
2196.459246	176.666667
2198.080308	206.666667
2199.701053	190.333333
2201.323163	218.333333
2202.943275	223.000000
2204.561390	214.333333
2206.179190	201.333333
2207.796675	194.000000
2209.413844	226.666667
2211.030698	225.000000
2212.647236	177.666667
2214.261782	212.666667
2215.874335	198.333333
2217.488252	188.000000
2219.100178	207.000000
2220.713467	184.333333
2222.324766	183.333333
2223.934075	196.333333
2225.544748	184.666667
2227.153432	185.000000
2228.761803	205.000000
2230.368188	192.333333
2231.975936	178.666667
2233.581697	206.333333
2235.187147	209.666667
2236.790612	179.000000
2238.395440	193.666667
2239.998284	174.000000
2241.599145	200.333333
2243.201369	175.000000
2244.801611	178.333333
2246.403215	193.000000
2248.001166	160.333333
2249.600480	195.333333
2251.197814	180.666667
2252.794840	165.000000
2254.393228	201.000000
2255.987967	190.666667
2257.580729	224.666667
2259.174854	190.000000
2260.770340	169.666667
2262.362181	196.333333
2263.953716	200.666667
2265.546613	198.333333
2267.134200	203.000000
2268.726483	196.666667
2270.313460	164.000000
2271.903464	201.666667
2273.488164	184.666667
2275.077558	208.333333
2276.661650	204.666667
2278.247102	191.333333
2279.830586	214.333333
2281.417095	199.333333
2282.999971	186.666667
2284.582544	189.000000
2286.164813	177.666667
2287.743452	159.333333
2289.325116	168.333333
2290.903151	197.333333
2292.484209	163.000000
2294.061640	166.000000
2295.637108	169.000000
2297.215598	183.666667
2298.790464	165.333333
2300.365029	214.000000
2301.939294	180.666667
2303.513258	207.333333
2305.086921	156.333333
2306.660285	187.333333
2308.230030	172.000000
2309.799476	161.000000
2311.371940	196.333333
2312.939130	159.333333
2314.509338	137.333333
2316.075931	197.333333
2317.643884	198.666667
2319.209881	202.000000
2320.775581	196.333333
2322.340983	171.333333
2323.904432	185.333333
2325.469240	169.000000
2327.030440	216.333333
2328.594654	202.000000
2330.153606	187.000000
2331.715573	198.000000
2333.275588	176.333333
2334.835309	209.666667
2336.393080	171.666667
2337.950556	199.333333
2339.507738	192.333333
2341.062972	191.333333
2342.617913	180.666667
2344.172559	188.000000
2345.726912	187.000000
2347.280972	181.333333
2348.834737	163.000000
2350.386558	185.000000
2351.936437	161.333333
2353.489323	214.666667
2355.036966	180.333333
2356.587618	196.666667
2358.134678	173.333333
2359.683096	182.000000
2361.231223	184.333333
2362.775761	214.000000
2364.321657	156.000000
2365.865615	177.000000
2367.410930	193.666667
2368.952660	209.333333
2370.495747	185.666667
2372.036898	173.666667
2373.577760	168.666667
2375.118333	158.333333
2376.658617	140.000000
2378.198612	203.000000
2379.735029	165.000000
2381.274447	158.666667
2382.810287	204.333333
2384.347485	178.000000
2385.881107	204.666667
2387.417729	193.666667
2388.952421	173.333333
2390.485183	200.666667
2392.017658	193.333333
2393.548205	197.000000
2395.081750	191.666667
2396.610084	167.333333
2398.139774	159.333333
2399.669179	174.000000
2401.198299	198.333333
2402.727134	173.333333
2404.250763	178.666667
2405.779028	193.333333
2407.302091	154.666667
2408.829787	200.000000
2410.350644	144.333333
2411.876134	187.666667
2413.398063	193.333333
2414.921348	210.666667
2416.442711	210.000000
2417.962155	221.666667
2419.482954	188.000000
2421.001835	175.333333
2422.520433	165.333333
2424.037114	180.000000
2425.555149	170.333333
2427.072903	199.000000
2428.587106	132.333333
2430.101028	210.000000
2431.614670	198.333333
2433.129667	206.333333
2434.641115	176.333333
2436.153918	234.000000
2437.664807	206.000000
2439.175418	202.333333
2440.684117	212.666667
2442.195802	210.000000
2443.703944	185.666667
2445.211808	212.333333
2446.719394	220.666667
2448.223439	216.333333
2449.730469	195.000000
2451.235591	235.000000
2452.740436	228.666667
2454.243374	223.333333
2455.746036	203.666667
2457.248421	237.333333
2458.748901	210.333333
2460.250734	217.000000
2461.750662	190.333333
2463.250315	241.666667
2464.749693	209.333333
2466.247168	206.666667
2467.742741	196.333333
2469.241294	217.000000
2470.736319	204.333333
2472.232696	201.333333
2473.725547	171.333333
2475.219751	198.000000
2476.713681	207.333333
2478.204087	184.333333
2479.697471	186.000000
2481.188957	171.333333
2482.678546	176.000000
2484.167863	189.000000
2485.655284	173.666667
2487.145681	166.333333
2488.632560	190.666667
2490.120790	216.000000
2491.605503	209.666667
2493.089947	196.000000
2494.575741	168.333333
2496.059644	223.333333
2497.544897	175.000000
2499.025017	171.000000
2500.508110	167.333333
2501.989312	203.000000
2503.470245	124.333333
2504.949289	204.333333
2506.428064	149.000000
2507.906571	183.000000
2509.384810	178.666667
2510.862780	186.333333
2512.337245	178.000000
2513.814680	167.333333
2515.288611	152.333333
2516.763892	193.000000
2518.238906	164.333333
2519.710419	160.333333
2521.183283	179.000000
2522.654264	181.000000
2524.126595	180.666667
2525.593812	164.666667
2527.063996	211.666667
2528.532299	200.333333
2530.000337	143.000000
2531.468110	178.000000
2532.935618	192.000000
2534.402861	191.333333
2535.866612	144.000000
2537.331713	181.666667
2538.794937	130.666667
2540.259510	197.333333
2541.720595	169.000000
2543.183029	202.000000
2544.645200	176.333333
2546.103885	183.333333
2547.567141	188.000000
2549.025302	174.333333
2550.484811	174.333333
2551.939226	178.666667
2553.398212	178.666667
2554.855326	177.333333
2556.310569	191.666667
2557.765550	211.666667
2559.218663	161.333333
2560.673124	212.333333
2562.125715	217.666667
2563.578047	163.666667
2565.028512	183.666667
2566.481932	193.000000
2567.930270	173.333333
2569.381563	175.666667
2570.830991	198.666667
2572.276946	172.666667
2573.725856	158.666667
2575.171296	178.666667
2576.618083	181.000000
2578.063008	153.000000
2579.507674	187.333333
2580.953688	178.000000
2582.396236	221.000000
2583.840131	206.666667
2585.280561	183.666667
2586.722338	218.333333
2588.162256	177.000000
2589.603521	173.666667
2591.041324	173.333333
2592.482077	186.000000
2593.917768	178.666667
2595.356408	146.333333
2596.793190	178.000000
2598.228117	175.333333
2599.665991	177.000000
2601.098808	187.333333
2602.532972	187.000000
2603.965282	171.333333
2605.398938	195.000000
2606.830741	193.333333
2608.262290	167.666667
2609.693587	175.666667
2611.123031	192.666667
2612.552223	219.666667
2613.979565	204.666667
2615.408252	196.000000
2616.836688	161.666667
2618.261676	190.000000
2619.688011	175.666667
2621.112497	214.666667
2622.538329	172.333333
2623.960717	240.333333
2625.384451	188.333333
2626.806338	207.666667
2628.227976	203.333333
2629.647768	218.000000
2631.068906	198.000000
2632.489794	227.333333
2633.907244	229.000000
2635.327633	240.333333
2636.744585	249.666667
2638.161288	297.666667
2639.577743	299.666667
2640.993950	282.666667
2642.409909	294.000000
2643.824027	324.000000
2645.237897	323.000000
2646.649929	326.666667
2648.063304	305.333333
2649.473250	380.000000
2650.886132	394.333333
2652.295585	386.333333
2653.704792	435.666667
2655.112163	505.333333
2656.522468	502.333333
2657.930938	558.666667
2659.337572	609.000000
2660.743961	615.000000
2662.148516	693.000000
2663.554415	671.333333
2664.958481	748.333333
2666.362302	814.333333
2667.765879	798.333333
2669.167625	818.666667
2670.570714	874.666667
2671.970385	947.000000
2673.371400	974.333333
2674.768999	1009.000000
2676.169527	993.666667
2677.566641	968.666667
2678.965098	981.333333
2680.361728	971.666667
2681.758115	969.000000
2683.154260	988.333333
2684.548579	922.333333
2685.944241	869.666667
2687.336494	835.333333
2688.730089	796.333333
2690.121860	763.666667
2691.514974	682.000000
2692.906264	617.000000
2694.295731	579.666667
2695.684958	540.666667
2697.073946	498.666667
2698.464275	505.000000
2699.849621	452.333333
2701.237890	417.000000
2702.624339	418.000000
2704.010549	330.333333
2705.396520	347.666667
2706.779093	354.000000
2708.163008	357.000000
2709.546685	313.666667
2710.930123	299.333333
2712.310167	291.000000
2713.691551	279.000000
2715.071121	252.666667
2716.452031	221.333333
2717.831127	255.666667
2719.208409	234.666667
2720.587032	246.000000
2721.963842	222.666667
2723.340415	210.000000
2724.716753	228.666667
2726.091280	214.000000
2727.467147	185.000000
2728.839627	200.000000
2730.215023	191.000000
2731.585459	223.000000
2732.957236	201.666667
2734.328778	205.333333
2735.698512	198.666667
2737.069587	182.666667
2738.438853	172.000000
2739.807886	166.666667
2741.175113	210.000000
2742.542106	176.666667
2743.908867	186.666667
2745.275396	176.000000
2746.640119	141.666667
2748.004610	182.666667
2749.368870	162.666667
2750.732897	183.333333
2752.096693	176.333333
2753.457115	131.333333
2754.820447	158.000000
2756.178837	182.000000
2757.540137	180.333333
2758.898067	126.666667
2760.258905	173.000000
2761.617944	154.666667
2762.973614	167.000000
2764.332192	143.000000
2765.687403	157.666667
2767.042385	181.666667
2768.395571	151.333333
2769.751662	162.000000
2771.104390	154.666667
2772.456890	133.333333
2773.809161	171.333333
2775.162770	161.333333
2776.513019	173.666667
2777.861473	160.666667
2779.212833	143.333333
2780.560833	150.333333
2781.910171	187.000000
2783.257717	136.000000
2784.605037	168.000000
2785.952130	155.000000
2787.297432	191.666667
2788.642507	153.333333
2789.987357	163.666667
2791.331981	130.333333
2792.673253	137.000000
2794.015863	117.333333
2795.358247	151.666667
2796.700406	154.666667
2798.039216	145.666667
2799.380926	177.666667
2800.719288	149.000000
2802.058986	149.333333
2803.396900	156.666667
2804.733029	151.333333
2806.068934	173.666667
2807.406177	138.000000
2808.741636	128.000000
2810.076872	172.000000
2811.410325	133.666667
2812.745115	137.333333
2814.076565	145.000000
2815.410910	188.666667
2816.740357	177.666667
2818.071141	148.000000
2819.401703	146.000000
2820.730486	140.666667
2822.060605	163.666667
2823.388946	125.666667
2824.717066	142.666667
2826.043408	143.666667
2827.371087	169.000000
2828.695432	129.333333
2830.021114	151.000000
2831.345020	136.333333
2832.668707	145.000000
2833.993729	158.333333
2835.315421	143.000000
2836.636895	131.333333
2837.958150	163.333333
2839.279186	177.666667
2840.598449	149.666667
2841.919048	139.333333
2843.237876	132.333333
2844.556485	135.000000
2845.873323	141.666667
2847.189944	123.666667
2848.506348	135.333333
2849.820982	129.666667
2851.136952	137.666667
2852.449601	92.333333
2853.763585	111.333333
2855.077353	159.333333
2856.390904	136.000000
2857.702689	124.666667
2859.012707	112.000000
2860.324060	143.333333
2861.632098	141.666667
2862.941470	86.000000
2864.250628	142.666667
2865.559570	131.666667
2866.866748	145.000000
2868.172164	115.333333
2869.478913	154.333333
2870.783901	132.666667
2872.088675	130.666667
2873.391687	113.333333
2874.697580	131.000000
2875.998619	143.333333
2877.300992	122.333333
2878.601605	168.666667
2879.903552	127.333333
2881.205285	112.333333
2882.503715	121.666667
2883.803478	118.333333
2885.101484	131.666667
2886.399278	127.333333
2887.695316	145.333333
2888.992687	109.333333
2890.288302	144.333333
2891.583706	153.333333
2892.878899	109.333333
2894.170795	129.333333
2895.465567	125.000000
2896.757042	132.000000
2898.049850	152.000000
2899.342448	127.000000
2900.631752	138.000000
2901.922388	156.333333
2903.211273	126.333333
2904.501490	142.000000
2905.788416	144.333333
2907.076674	125.000000
2908.363183	138.000000
2909.649483	151.333333
2910.935576	111.000000
2912.219920	114.333333
2913.507135	128.666667
2914.789524	133.000000
2916.073245	131.000000
2917.355220	143.666667
2918.636987	123.000000
2919.917010	119.333333
2921.199902	141.333333
2922.481049	120.333333
2923.758914	124.333333
2925.039648	102.666667
2926.317101	116.000000
2927.594348	121.333333
2928.869853	155.333333
2930.148226	125.666667
2931.421785	151.333333
2932.698211	122.000000
2933.972896	123.333333
2935.245840	136.000000
2936.520116	114.000000
2937.792652	129.666667
2939.064983	109.333333
2940.334042	93.666667
2941.605966	124.000000
2942.876152	92.666667
2944.146134	129.333333
2945.415913	109.000000
2946.683956	107.333333
2947.950262	143.666667
2949.216367	114.333333
2950.483801	153.333333
2951.749501	106.333333
2953.014998	114.666667
2954.280293	125.666667
2955.542323	119.666667
2956.805683	130.000000
2958.068842	101.000000
2959.330269	142.000000
2960.593025	98.666667
2961.854049	87.666667
2963.113343	108.666667
2964.372437	120.000000
2965.631330	117.666667
2966.890023	128.666667
2968.148516	94.333333
2969.405280	145.000000
2970.661844	134.666667
2971.916681	134.333333
2973.172846	107.666667
2974.425757	160.000000
2975.679997	101.666667
2976.934037	112.000000
2978.186353	95.333333
2979.438469	135.333333
2980.688861	123.666667
2981.942108	133.666667
2983.190578	122.000000
2984.441903	117.333333
2985.689978	145.333333
2986.937857	123.666667
2988.185538	95.333333
2989.433022	122.666667
2990.678785	114.666667
2991.924352	122.000000
2993.171246	112.666667
2994.414896	92.000000
2995.659874	133.000000
2996.901608	130.666667
2998.146194	114.666667
2999.389061	114.666667
3000.628687	84.666667
3001.871163	142.000000
3003.110399	130.666667
3004.350963	122.333333
3005.589810	96.666667
3006.828463	120.333333
3008.065400	92.333333
3009.303665	137.666667
3010.540214	112.666667
3011.776570	121.000000
3013.012732	101.666667
3014.247180	135.666667
3015.481436	124.000000
3016.715498	160.000000
3017.947848	113.666667
3019.178486	101.333333
3020.411970	98.666667
3021.643742	116.000000
3022.873804	115.000000
3024.103673	72.000000
3025.331833	142.000000
3026.561320	117.000000
3027.789097	110.000000
3029.016683	123.333333
3030.245596	136.000000
3031.469766	101.666667
3032.696779	117.333333
3033.920568	129.000000
3035.145684	102.000000
3036.369093	146.333333
3037.592312	69.666667
3038.813826	86.666667
3040.038181	115.333333
3041.257801	108.333333
3042.478747	133.000000
3043.699504	124.333333
3044.918557	74.000000
3046.138935	114.000000
3047.356097	110.666667
3048.574585	131.666667
3049.791370	117.666667
3051.007968	121.333333
3052.224377	102.666667
3053.437574	98.666667
3054.653608	114.000000
3055.866430	137.333333
3057.082089	101.000000
3058.293025	83.666667
3059.505286	111.333333
3060.717361	109.000000
3061.929248	121.000000
3063.139439	115.666667
3064.349443	126.000000
3065.559261	120.666667
3066.767383	97.000000
3067.975320	128.666667
3069.181561	129.666667
3070.389127	117.666667
3071.594998	109.666667
3072.800685	101.666667
3074.006186	79.000000
3075.209994	112.333333
3076.415126	103.000000
3077.618565	114.666667
3078.820313	117.000000
3080.021876	78.333333
3081.223256	71.333333
3082.424452	95.333333
3083.623958	113.000000
3084.823281	119.666667
3086.023927	68.000000
3087.222883	104.000000
3088.418645	92.000000
3089.617236	70.333333
3090.812633	88.333333
3092.009353	91.666667
3093.202881	82.666667
3094.399237	79.333333
3095.593907	116.333333
3096.785385	74.666667
3097.981196	107.666667
3099.172312	104.666667
3100.364752	103.333333
3101.554004	118.666667
3102.746081	84.666667
3103.936475	93.000000
3105.123683	72.666667
3106.312213	108.000000
3107.502066	98.000000
3108.688735	111.666667
3109.875223	101.333333
3111.061533	130.333333
3112.249164	82.000000
3113.433613	98.333333
3114.616383	79.666667
3115.801975	119.000000
3116.985888	102.333333
3118.168122	125.000000
3119.350177	99.666667
3120.532054	97.000000
3121.713753	114.666667
3122.893775	90.666667
3124.072120	106.333333
3125.253285	111.000000
3126.431275	100.666667
3127.609089	109.000000
3128.786725	86.000000
3129.962686	113.000000
3131.138470	104.666667
3132.315576	100.666667
3133.491007	122.333333
3134.664765	114.333333
3135.836850	74.000000
3137.010257	114.333333
3138.183487	81.000000
3139.355046	65.666667
3140.527925	84.000000
3141.697637	119.000000
3142.868670	91.333333
3144.038033	90.666667
3145.205725	80.666667
3146.376233	93.333333
3147.542083	113.666667
3148.712241	81.666667
3149.877743	101.333333
3151.043070	91.666667
3152.208224	53.333333
3153.373205	90.666667
3154.539505	112.333333
3155.701153	133.666667
3156.864120	87.000000
3158.026915	106.666667
3159.189537	96.000000
3160.350494	74.333333
3161.511278	81.333333
3162.671890	84.666667
3163.830838	89.333333
3164.989615	115.000000
3166.148220	75.666667
3167.306652	81.333333
3168.464914	102.333333
3169.621513	96.000000
3170.776451	81.000000
3171.932708	94.666667
3173.087304	86.333333
3174.241730	64.333333
3175.394496	66.666667
3176.547091	135.333333
3177.699517	94.333333
3178.851773	124.000000
3180.003858	126.666667
3181.152798	105.000000
3182.304544	74.333333
3183.454632	95.000000
3184.603064	96.333333
3185.751326	92.666667
3186.899420	106.666667
3188.047345	112.000000
3189.193614	74.333333
3190.339715	115.666667
3191.484162	83.666667
3192.628441	81.333333
3193.772552	92.666667
3194.917980	86.333333
3196.060270	98.333333
3197.202393	100.333333
3198.344348	61.000000
3199.486136	67.333333
3200.627757	70.666667
3201.766243	77.666667
3202.906046	109.333333
3204.047167	120.000000
3205.185153	89.333333
3206.321490	93.333333
3207.457661	68.333333
3208.595149	79.000000
3209.730989	104.666667
3210.868146	143.666667
3212.000690	65.666667
3213.137516	80.333333
3214.269730	78.333333
3215.403261	92.333333
3216.536628	87.666667
3217.666867	94.333333
3218.799904	70.333333
3219.929815	92.666667
3221.061042	119.666667
3222.189145	126.333333
3223.320044	111.333333
3224.449299	99.666667
3225.576911	91.000000
3226.701400	96.000000
3227.830165	97.333333
3228.955808	78.666667
3230.081289	77.666667
3231.205128	121.333333
3232.331761	95.000000
3233.453797	115.000000
3234.577149	87.333333
3235.700339	96.000000
3236.823366	120.000000
3237.944755	127.666667
3239.065981	111.333333
3240.185570	93.333333
3241.304997	100.000000
3242.422786	101.333333
3243.543367	147.333333
3244.660835	137.000000
3245.778142	99.333333
3246.895289	140.000000
3248.010800	115.333333
3249.127625	134.000000
3250.241341	105.333333
3251.357846	111.333333
3252.472717	118.333333
3253.584479	101.666667
3254.696081	99.666667
3255.808999	107.333333
3256.921757	95.666667
3258.031409	84.666667
3259.142376	104.666667
3260.253184	109.000000
3261.362360	79.000000
3262.469906	97.666667
3263.578765	86.000000
3264.687467	88.666667
3265.793066	71.000000
3266.899979	106.000000
3268.005263	86.000000
3269.111861	81.666667
3270.215359	88.000000
3271.320172	82.000000
3272.424827	113.666667
3273.526383	102.666667
3274.627783	101.333333
3275.730497	88.666667
3276.833055	79.000000
3277.932516	115.000000
3279.034761	83.666667
3280.133910	93.666667
3281.231435	74.666667
3282.328804	81.666667
3283.428955	78.666667
3284.526014	93.333333
3285.622917	89.000000
3286.719665	79.000000
3287.811855	57.666667
3288.908293	63.666667
3290.003109	67.333333
3291.097771	77.333333
3292.190811	106.666667
3293.283696	94.666667
3294.374962	76.000000
3295.467539	72.666667
3296.558497	82.000000
3297.647835	99.333333
3298.737020	92.000000
3299.827518	86.333333
3300.914931	78.333333
3302.002191	69.000000
3303.090764	117.000000
3304.179185	83.333333
3305.263058	72.333333
3306.351173	100.666667
3307.436206	85.000000
3308.519624	111.333333
3309.604354	76.000000
3310.687468	75.000000
3311.771895	89.000000
3312.853243	109.333333
3313.935903	88.333333
3315.016949	102.333333
3316.097844	105.000000
3317.177125	89.333333
3318.256256	66.666667
3319.336699	112.666667
3320.414067	70.666667
3321.492747	90.666667
3322.569815	75.333333
3323.646734	79.666667
3324.722041	79.666667
3325.797199	125.000000
3326.873668	64.666667
3327.947067	82.333333
3329.020317	26.000000
3330.094877	90.333333
3331.167829	67.666667
3332.239172	78.333333
3333.311826	85.333333
3334.381414	93.333333
3335.452312	81.000000
3336.521603	104.000000
3337.592205	54.000000
3338.661200	83.333333
3339.728589	78.333333
3340.794373	91.000000
3341.864383	83.000000
3342.931330	87.666667
3343.995215	79.333333
3345.061868	110.000000
3346.126916	70.666667
3347.190361	89.666667
3348.253660	73.666667
3349.316812	104.333333
3350.379818	78.333333
3351.442678	84.000000
3352.503936	80.333333
3353.562137	79.000000
3354.624558	80.666667
3355.683924	90.333333
3356.743144	71.000000
3357.803673	99.000000
3358.859694	82.666667
3359.918478	134.000000
3360.972755	62.666667
3362.029796	84.333333
3363.085238	83.000000
3364.141990	65.666667
3365.197143	65.666667
3366.250699	40.666667
3367.302659	41.666667
3368.357380	85.666667
3369.409052	69.000000
3370.460581	79.666667
3371.513418	67.666667
3372.563208	74.333333
3373.614307	55.333333
3374.662360	110.333333
3375.713172	76.666667
3376.760940	84.666667
3377.808565	98.000000
3378.856047	74.000000
3379.901937	67.333333
3380.949135	77.666667
3381.993291	42.333333
3383.040205	51.666667
3384.085527	94.333333
3385.127808	110.333333
3386.169949	90.333333
3387.213397	85.000000
3388.256704	77.333333
3389.298422	109.000000
3390.339998	68.000000
3391.381433	78.000000
3392.421280	73.000000
3393.459538	54.000000
3394.499104	64.666667
3395.538530	70.000000
3396.576368	73.000000
3397.612619	70.666667
3398.648731	71.000000
3399.686150	60.666667
3400.720536	103.000000
3401.756229	67.333333
3402.791783	80.000000
3403.824306	86.333333
3404.859582	80.333333
3405.891827	94.333333
3406.923934	73.333333
3407.954457	72.666667
3408.986287	50.666667
3410.017979	85.333333
3411.046643	67.666667
3412.075170	80.666667
3413.105003	81.000000
3414.134699	84.000000
3415.161369	58.000000
3416.189346	110.000000
3417.214298	52.666667
3418.242000	71.666667
3419.266679	54.333333
3420.292664	93.333333
3421.317069	63.000000
3422.341338	73.666667
3423.364028	89.666667
3424.386582	83.666667
3425.410442	56.666667
3426.431282	56.000000
3427.451986	79.000000
3428.473997	81.666667
3429.492989	110.333333
3430.511845	99.000000
3431.532008	50.333333
3432.549154	72.666667
