-117.790675	9.333333
-115.121075	-11.666667
-112.454410	8.000000
-109.788497	-3.000000
-107.125516	-24.333333
-104.461106	13.666667
-101.799626	28.333333
-99.136716	2.666667
-96.478914	24.000000
-93.819681	-4.000000
-91.161197	33.000000
-88.505638	-10.000000
-85.848650	20.666667
-83.196759	-4.666667
-80.543439	-0.333333
-77.893039	-6.000000
-75.241209	11.666667
-72.594470	-8.000000
-69.946301	53.666667
-67.298876	-17.000000
-64.654364	30.000000
-62.008424	10.000000
-59.367565	-13.000000
-56.725277	-25.333333
-54.085897	54.666667
-51.445089	18.666667
-48.805021	-25.000000
-46.170025	-1.333333
-43.533600	15.000000
-40.900079	32.000000
-38.265129	14.000000
-35.635244	12.666667
-33.001767	37.333333
-30.373352	46.333333
-27.745670	68.333333
-25.116561	52.000000
-22.492508	106.000000
-19.864866	173.666667
-17.242277	174.666667
-14.620419	300.000000
-11.999293	512.000000
-9.378896	1159.000000
-6.761387	4009.000000
-4.142450	12398.000000
-1.526399	29775.000000
1.088924	39182.333333
3.703520	26477.666667
6.315233	2110.666667
8.928375	351.333333
11.536483	175.000000
14.148173	89.333333
16.754832	118.666667
19.362919	113.000000
21.970282	54.666667
24.572620	79.666667
27.178536	40.000000
29.779430	74.000000
32.381753	55.666667
34.979057	63.333333
37.579937	0.333333
40.175803	21.000000
42.773096	20.333333
45.369670	15.333333
47.961235	24.666667
50.554228	42.000000
53.144360	19.666667
55.735920	41.666667
58.324620	10.333333
60.914747	18.666667
63.499876	18.000000
66.086432	8.666667
68.672273	58.333333
71.255261	21.000000
73.839676	-1.000000
76.416961	6.333333
78.997813	-2.333333
81.575816	12.000000
84.153109	-12.000000
86.731828	11.000000
89.305566	24.333333
91.880730	15.000000
94.453051	13.333333
97.024664	54.333333
99.593438	32.000000
102.163638	-0.666667
104.730999	21.333333
107.299787	14.000000
109.865737	19.333333
112.428853	42.666667
114.995525	10.666667
117.552976	29.333333
120.116112	-2.000000
122.674289	70.666667
125.236019	20.000000
127.792794	72.000000
130.350994	116.000000
132.904242	155.000000
135.456791	212.333333
138.012891	309.333333
140.564044	330.000000
143.114498	347.000000
145.664256	373.333333
148.211194	443.333333
150.757436	422.000000
153.305105	472.333333
155.852077	448.666667
158.394113	429.000000
160.935456	421.333333
163.476107	443.666667
166.018182	421.000000
168.557447	453.666667
171.093902	398.333333
173.629667	431.000000
176.166857	395.666667
178.703355	431.666667
181.237048	417.000000
183.767938	403.000000
186.298139	375.666667
188.829765	387.333333
191.358590	392.666667
193.884616	437.666667
196.409957	403.333333
198.936722	409.000000
201.460691	423.666667
203.983974	409.666667
206.506573	404.000000
209.026379	352.666667
211.545502	419.000000
214.063942	412.000000
216.583806	404.000000
219.096669	431.333333
221.613063	422.333333
224.128775	425.333333
226.639598	441.666667
229.151845	395.666667
231.661309	438.333333
234.170095	428.333333
236.678203	425.666667
239.187734	450.333333
241.692386	394.333333
244.196361	440.000000
246.701760	438.666667
249.202284	465.000000
251.706331	387.666667
254.203408	465.333333
256.704007	424.333333
259.201835	438.000000
261.698990	425.333333
264.195472	505.333333
266.687092	445.000000
269.182230	472.333333
271.674603	458.333333
274.166305	479.333333
276.655244	464.666667
279.145606	431.666667
281.633207	475.333333
284.118048	487.666667
286.606403	437.333333
289.087819	464.333333
291.572749	461.000000
294.052834	469.666667
296.536431	463.000000
299.015185	506.000000
301.495363	514.666667
303.972788	485.666667
306.449550	464.666667
308.925649	535.666667
311.398999	487.000000
313.871687	580.000000
316.343714	609.000000
318.815080	700.000000
321.283702	714.666667
323.751664	697.333333
326.221049	646.666667
328.685611	607.333333
331.153676	533.333333
333.616922	515.666667
336.079511	505.666667
338.541442	498.666667
341.002717	554.000000
343.461258	565.333333
345.921221	543.000000
348.378452	560.000000
350.835027	485.000000
353.290949	539.333333
355.744142	573.333333
358.198756	540.333333
360.648569	551.666667
363.101879	553.333333
365.550389	518.333333
367.998249	526.333333
370.447530	486.333333
372.892018	549.333333
375.337928	501.000000
377.783189	546.000000
380.225731	541.666667
382.667625	535.000000
385.108871	523.666667
387.547402	481.333333
389.987355	520.666667
392.424594	539.000000
394.859121	506.000000
397.297136	544.000000
399.730374	540.666667
402.165034	515.000000
404.594920	550.666667
407.028292	578.000000
409.456894	546.333333
411.884855	521.666667
414.314236	571.333333
416.738852	567.666667
419.164890	549.666667
421.590287	594.333333
424.015044	575.333333
426.435043	546.666667
428.856463	566.333333
431.275186	536.666667
433.695330	544.000000
436.112779	568.333333
438.531648	550.000000
440.947824	595.333333
443.359253	559.333333
445.774158	598.333333
448.186373	520.333333
450.597954	575.666667
453.008901	507.333333
455.417162	548.666667
457.824790	500.333333
460.231787	544.333333
462.638151	514.333333
465.041833	534.666667
467.444885	525.000000
469.847307	533.000000
472.249100	525.666667
474.648214	495.333333
477.048748	468.666667
479.448653	504.666667
481.843835	505.000000
484.242484	533.666667
486.636413	481.000000
489.029716	490.333333
491.422393	475.666667
493.814445	501.000000
496.207916	468.000000
498.596674	465.333333
500.982766	386.000000
503.370278	410.000000
505.757166	367.333333
508.141391	367.333333
510.527035	339.666667
512.910016	349.333333
515.290337	317.333333
517.672077	352.000000
520.051158	318.333333
522.431658	325.000000
524.809500	272.666667
527.184687	326.000000
529.559256	264.666667
531.935244	296.000000
534.308578	285.333333
536.683331	340.666667
539.053397	247.333333
541.422848	281.666667
543.793718	273.666667
546.159906	276.333333
548.527513	245.333333
550.892474	267.333333
553.256822	236.000000
555.620558	259.000000
557.985711	246.333333
560.346191	276.333333
562.708090	260.000000
565.067349	276.333333
567.423969	265.666667
569.784034	294.666667
572.137409	237.333333
574.494228	248.666667
576.848411	257.000000
579.201987	230.000000
581.554954	234.000000
583.905290	233.666667
586.257042	254.333333
588.602118	208.333333
590.952658	250.333333
593.296525	222.666667
595.645852	238.000000
597.990532	255.333333
600.332587	243.333333
602.676058	262.000000
605.016907	232.666667
607.357154	255.333333
609.694780	233.333333
612.035841	212.000000
614.372265	229.333333
616.710105	241.000000
619.045327	196.333333
621.377934	258.333333
623.711958	191.333333
626.043367	216.666667
628.374178	232.666667
630.704391	209.000000
633.034006	185.666667
635.358999	239.666667
637.689433	164.000000
640.015245	232.000000
642.338451	230.333333
644.663072	233.333333
646.985089	176.000000
649.306511	202.666667
651.625330	155.000000
653.945565	189.000000
656.265207	199.666667
658.582248	195.000000
660.898698	146.333333
663.212549	187.666667
665.527815	203.666667
667.840485	220.666667
670.154570	162.000000
672.464055	214.666667
674.774956	190.666667
677.083264	200.666667
679.390984	168.000000
681.700119	198.000000
684.004661	201.333333
686.308617	185.333333
688.611986	184.666667
690.916770	142.666667
693.216968	153.666667
695.518581	184.333333
697.819608	162.333333
700.116053	214.000000
702.413914	191.333333
704.711191	182.000000
707.007885	176.666667
709.300003	183.666667
711.595532	173.000000
713.886488	221.000000
716.178858	161.666667
718.468652	182.000000
720.757867	178.000000
723.046501	220.000000
725.332564	124.333333
727.620040	182.333333
729.904946	149.666667
732.189273	175.666667
734.471032	197.000000
736.754206	206.333333
739.036801	158.333333
741.314842	191.666667
743.594296	131.333333
745.873175	237.333333
748.151478	186.000000
750.425232	199.333333
752.700400	154.666667
754.974994	222.000000
757.247029	213.666667
759.520476	192.666667
761.791366	205.333333
764.059700	224.000000
766.329447	173.000000
768.596640	203.333333
770.863262	174.000000
773.129315	250.000000
775.392815	166.666667
777.657729	234.000000
779.922073	210.000000
782.181888	229.666667
784.443116	169.000000
786.703776	194.333333
788.961889	180.333333
791.217458	223.666667
793.476418	194.000000
795.728879	209.333333
797.986707	190.666667
800.240015	179.666667
802.490784	185.000000
804.742965	231.000000
806.992608	198.000000
809.243662	210.333333
811.490205	169.000000
813.738161	224.000000
815.983581	202.000000
818.230413	193.000000
820.476684	171.666667
822.718451	206.000000
824.963600	177.000000
827.202277	195.666667
829.444337	202.333333
831.681898	161.333333
833.920870	138.000000
836.157316	190.000000
838.395174	172.333333
840.630506	158.333333
842.863314	170.000000
845.097534	162.666667
847.329232	154.666667
849.560375	164.666667
851.790963	164.666667
854.020997	173.333333
856.250476	166.666667
858.475474	159.000000
860.703847	149.000000
862.927741	181.000000
865.153045	138.666667
867.373874	193.000000
869.598075	172.000000
871.817803	167.000000
874.038942	163.666667
876.259530	180.333333
878.477608	188.000000
880.697097	165.333333
882.912119	162.666667
885.126593	164.000000
887.340520	152.666667
889.553899	187.333333
891.766732	184.333333
893.979017	175.333333
896.188801	174.000000
898.398039	170.333333
900.606731	155.666667
902.812925	187.666667
905.020528	175.000000
907.225634	192.666667
909.430196	151.333333
911.632262	186.000000
913.835738	179.333333
916.036720	192.333333
918.237161	202.666667
920.439010	160.000000
922.634467	173.666667
924.833284	138.666667
927.027663	152.000000
929.225398	174.000000
931.418698	184.666667
933.613407	177.000000
935.805630	175.666667
937.997315	189.666667
940.188462	192.666667
942.377126	187.666667
944.565253	171.000000
946.750900	191.000000
948.939899	176.000000
951.124475	202.666667
953.308516	193.666667
955.495907	144.666667
957.674995	204.000000
959.857432	204.000000
962.039336	207.666667
964.218766	242.000000
966.395723	189.000000
968.574088	191.666667
970.753859	229.666667
972.927282	225.666667
975.104051	224.333333
977.276414	231.333333
979.450183	231.000000
981.619549	193.333333
983.792260	227.333333
985.962504	208.000000
988.132220	255.333333
990.301407	259.000000
992.466197	239.000000
994.634328	268.000000
996.798065	261.333333
998.963208	258.666667
1001.125893	204.333333
1003.288051	261.000000
1005.447753	265.666667
1007.606931	255.333333
1009.767515	238.666667
1011.925644	279.666667
1014.083249	260.000000
1016.240331	291.000000
1018.396890	250.666667
1020.549069	302.333333
1022.702654	243.666667
1024.855718	294.000000
1027.006334	261.000000
1029.158355	270.666667
1031.306003	275.000000
1033.456983	280.000000
1035.603592	295.666667
1037.749683	312.666667
1039.895254	320.666667
1042.042231	285.666667
1044.182920	297.333333
1046.326937	318.000000
1048.468514	300.666667
1050.609575	310.000000
1052.752040	282.000000
1054.888226	322.666667
1057.027738	290.000000
1059.162894	328.333333
1061.301375	283.000000
1063.435503	302.000000
1065.569116	314.666667
1067.704135	284.000000
1069.834804	313.000000
1071.966878	315.666667
1074.096523	281.666667
1076.225656	300.666667
1078.354277	251.333333
1080.482387	309.333333
1082.608071	276.000000
1084.733245	242.666667
1086.859823	254.333333
1088.982064	284.333333
1091.105708	248.333333
1093.225019	272.333333
1095.349558	258.666667
1097.467852	271.000000
1099.587551	225.666667
1101.704831	261.000000
1103.821605	207.666667
1105.937872	272.666667
1108.051724	215.333333
1110.166979	220.333333
1112.277912	206.000000
1114.392156	231.333333
1116.502080	207.333333
1118.613408	226.000000
1120.724232	206.666667
1122.830739	221.333333
1124.940555	248.666667
1127.046057	238.666667
1129.152962	192.333333
1131.253652	228.333333
1133.359554	205.333333
1135.461147	236.666667
1137.564143	196.666667
1139.666638	218.333333
1141.762927	186.666667
1143.864422	228.333333
1145.961615	202.333333
1148.058309	212.000000
1150.154506	215.666667
1152.250204	245.333333
1154.345405	184.000000
1156.438209	207.000000
1158.532415	185.666667
1160.620430	229.000000
1162.713643	210.666667
1164.800668	191.000000
1166.890993	170.333333
1168.977029	214.333333
1171.066363	223.000000
1173.149516	204.333333
1175.234072	220.666667
1177.320028	185.333333
1179.401703	214.333333
1181.484780	183.333333
1183.565471	190.000000
1185.645670	169.333333
1187.725378	157.666667
1189.804595	203.333333
1191.881430	175.666667
1193.955884	194.333333
1196.033630	162.333333
1198.107105	204.000000
1200.181981	179.000000
1202.252590	217.000000
1204.324601	190.666667
1206.394235	190.000000
1208.465270	188.000000
1210.535817	180.333333
1212.602103	151.666667
1214.669790	215.333333
1216.735105	151.666667
1218.801820	213.000000
1220.864279	160.666667
1222.930023	198.000000
1224.991514	147.000000
1227.054404	179.000000
1229.114927	189.666667
1231.174967	138.000000
1233.234523	170.666667
1235.291714	185.000000
1237.348424	174.000000
1239.402771	174.333333
1241.460398	150.000000
1243.515663	198.000000
1245.566687	137.666667
1247.619111	188.333333
1249.671055	147.666667
1251.720641	176.000000
1253.769748	132.000000
1255.818377	188.666667
1257.866527	111.333333
1259.914199	198.333333
1261.957640	144.333333
1264.004356	179.000000
1266.048720	171.666667
1268.092606	182.000000
1270.134142	129.666667
1272.173328	141.333333
1274.215786	148.666667
1276.254022	168.666667
1278.293657	124.000000
1280.332817	167.000000
1282.367759	151.000000
1284.404099	142.666667
1286.438094	140.666667
1288.473488	156.333333
1290.504668	152.333333
1292.537247	158.000000
1294.569353	128.666667
1296.599119	152.000000
1298.630283	160.666667
1300.657239	165.333333
1302.685593	143.666667
1304.709743	159.333333
1306.737157	144.000000
1308.760370	152.000000
1310.784979	142.333333
1312.807255	170.000000
1314.830928	141.000000
1316.852268	182.666667
1318.873140	146.333333
1320.893546	160.000000
1322.909757	140.333333
1324.927367	149.333333
1326.942648	126.666667
1328.961188	160.333333
1330.975538	122.000000
1332.987563	162.333333
1335.002845	126.666667
1337.013942	122.333333
1339.026436	140.666667
1341.034747	142.666667
1343.046314	99.666667
1345.051841	186.333333
1347.060624	156.000000
1349.065229	215.000000
1351.073088	138.333333
1353.080485	156.000000
1355.081851	116.666667
1357.084614	150.333333
1359.086916	130.000000
1361.088759	173.333333
1363.090143	166.666667
1365.089212	160.666667
1367.087823	129.333333
1369.085976	139.333333
1371.083671	133.000000
1373.077202	162.333333
1375.072130	135.000000
1377.066601	175.333333
1379.060615	146.666667
1381.052322	152.000000
1383.043573	147.333333
1385.032519	149.666667
1387.022860	133.000000
1389.012746	158.666667
1391.000329	156.333333
1392.987458	151.666667
1394.972285	123.000000
1396.958506	134.333333
1398.942428	161.333333
1400.925897	137.666667
1402.908914	147.000000
1404.889633	159.000000
1406.871746	130.666667
1408.851562	157.000000
1410.830928	163.000000
1412.806154	163.000000
1414.784620	162.666667
1416.760792	164.666667
1418.736514	130.000000
1420.711787	156.000000
1422.684769	216.000000
1424.657303	158.000000
1426.629390	140.333333
1428.601028	150.666667
1430.568538	155.333333
1432.541123	167.666667
1434.505901	151.000000
1436.475752	184.333333
1438.441478	159.333333
1440.408598	144.333333
1442.373433	140.000000
1444.334150	147.666667
1446.299934	151.000000
1448.259763	142.000000
1450.220985	154.666667
1452.183600	184.333333
1454.142100	125.666667
1456.100158	181.333333
1458.057773	162.666667
1460.014947	168.666667
1461.969845	187.333333
1463.926135	147.666667
1465.880151	121.666667
1467.833727	183.000000
1469.785030	160.000000
1471.737725	182.333333
1473.688149	137.000000
1475.638134	189.000000
1477.587679	161.333333
1479.534956	168.666667
1481.479966	149.333333
1483.426367	159.000000
1485.372332	134.000000
1487.317858	214.666667
1489.261120	191.666667
1491.203945	173.000000
1493.144507	172.000000
1495.086460	159.666667
1497.026152	149.333333
1498.965408	207.000000
1500.904230	169.333333
1502.840791	169.333333
1504.778744	178.333333
1506.714439	187.333333
1508.649700	198.000000
1510.582704	168.666667
1512.515276	160.000000
1514.447416	184.333333
1516.379124	213.000000
1518.308578	237.333333
1520.239423	174.000000
1522.169837	186.000000
1524.096178	190.666667
1526.023909	176.666667
1527.949390	180.333333
1529.874442	217.666667
1531.799065	201.000000
1533.723259	212.666667
1535.645206	211.000000
1537.568542	229.000000
1539.489633	229.333333
1541.408479	248.666667
1543.328715	214.666667
1545.246707	261.666667
1547.164273	255.666667
1549.079597	254.333333
1550.996311	297.000000
1552.908970	280.000000
1554.824833	323.666667
1556.738456	373.333333
1558.649842	394.000000
1560.562616	372.333333
1562.471341	409.333333
1564.381456	473.333333
1566.291147	587.666667
1568.200414	657.000000
1570.107448	837.333333
1572.012249	1054.666667
1573.918439	1304.000000
1575.822397	1630.000000
1577.725935	1877.666667
1579.629051	2120.333333
1581.529939	2061.000000
1583.432214	1954.666667
1585.332262	1674.666667
1587.233698	1358.000000
1589.131099	1015.333333
1591.028082	829.333333
1592.924647	637.000000
1594.822600	579.333333
1596.714718	478.333333
1598.610029	458.666667
1600.504923	345.666667
1602.397595	395.000000
1604.289851	303.666667
1606.179887	296.333333
1608.069507	248.333333
1609.958712	294.666667
1611.847501	235.000000
1613.734074	242.666667
1615.622033	226.000000
1617.505976	271.000000
1619.391307	212.666667
1621.276223	223.333333
1623.158927	180.666667
1625.043016	220.000000
1626.923095	210.666667
1628.804560	216.000000
1630.683815	171.000000
1632.564456	213.000000
1634.439293	176.000000
1636.319112	229.666667
1638.194925	163.333333
1640.070328	182.000000
1641.947118	178.000000
1643.818110	200.333333
1645.692284	190.000000
1647.562460	174.333333
1649.435816	160.333333
1651.306969	208.000000
1653.175920	150.333333
1655.046257	163.333333
1656.912600	175.000000
1658.780329	234.333333
1660.645860	165.000000
1662.512775	149.666667
1664.375702	144.000000
1666.240014	164.333333
1668.102130	155.000000
1669.963842	137.666667
1671.826938	186.000000
1673.687840	146.666667
1675.546548	134.333333
1677.404853	154.333333
1679.264543	153.333333
1681.118466	162.333333
1682.975561	139.333333
1684.832254	173.333333
1686.684971	175.666667
1688.540859	170.000000
1690.392772	173.000000
1692.244285	180.333333
1694.095397	162.333333
1695.946109	200.666667
1697.796420	154.666667
1699.644547	141.000000
1701.494057	147.333333
1703.337819	183.000000
1705.186531	168.666667
1707.029496	157.666667
1708.875627	180.333333
1710.717797	151.333333
1712.563131	163.333333
1714.402725	171.333333
1716.243703	159.666667
1718.086064	151.333333
1719.924469	139.000000
1721.764257	192.333333
1723.601870	144.000000
1725.439087	170.333333
1727.274131	165.666667
1729.110558	167.000000
1730.944813	152.000000
1732.778673	145.666667
1734.612140	141.333333
1736.441660	173.333333
1738.274339	141.333333
1740.103074	191.666667
1741.934967	159.000000
1743.762917	182.666667
1745.590475	132.000000
1747.417641	154.000000
1749.244416	157.000000
1751.070800	179.666667
1752.893247	161.333333
1754.718848	218.000000
1756.540515	144.000000
1758.363564	167.000000
1760.184452	156.666667
1762.004950	167.666667
1763.826830	136.333333
1765.643010	182.333333
1767.462342	167.666667
1769.277747	174.666667
1771.096302	126.000000
1772.910932	168.333333
1774.725176	130.666667
1776.539032	201.000000
1778.352502	178.666667
1780.163819	180.000000
1781.976517	161.333333
1783.788828	141.000000
1785.597222	120.666667
1787.406997	142.666667
1789.212856	171.333333
1791.021862	168.000000
1792.826954	135.666667
1794.633426	146.666667
1796.439515	140.666667
1798.241694	169.333333
1800.047016	148.333333
1801.848430	165.333333
1803.651224	155.666667
1805.450112	132.000000
1807.250381	175.666667
1809.050268	153.333333
1810.848014	140.666667
1812.645379	170.333333
1814.442363	131.666667
1816.238967	169.333333
1818.033432	134.666667
1819.829276	179.000000
1821.619466	156.666667
1823.414552	156.666667
1825.203985	129.666667
1826.996555	161.000000
1828.786990	136.666667
1830.575291	182.333333
1832.366727	157.333333
1834.152517	192.333333
1835.939687	151.000000
1837.724725	176.666667
1839.512897	133.333333
1841.297183	145.000000
1843.079340	138.666667
1844.862875	160.666667
1846.644282	134.666667
1848.427068	166.666667
1850.205974	144.333333
1851.986258	171.000000
1853.764416	126.666667
1855.543953	140.333333
1857.321365	179.333333
1859.096653	143.000000
1860.873320	127.000000
1862.647864	160.333333
1864.423785	143.666667
1866.194087	171.333333
1867.967515	118.333333
1869.738824	184.333333
1871.509763	147.333333
1873.282078	155.333333
1875.048781	151.000000
1876.818608	166.333333
1878.584572	158.000000
1880.353660	168.333333
1882.118886	139.666667
1883.883744	161.666667
1885.649978	136.000000
1887.412354	207.666667
1889.174363	153.333333
1890.936005	184.000000
1892.697279	165.000000
1894.458186	165.000000
1896.218727	167.333333
1897.977158	160.000000
1899.735224	147.000000
1901.491181	188.666667
1903.248516	156.333333
1905.005484	160.666667
1906.760347	167.666667
1908.513104	158.333333
1910.265498	194.333333
1912.019267	158.666667
1913.770933	141.000000
1915.520497	161.333333
1917.271437	144.333333
1919.022013	124.333333
1920.768751	173.666667
1922.516864	158.000000
1924.262878	142.666667
1926.010268	131.000000
1927.755559	152.000000
1929.498753	192.333333
1931.243323	160.333333
1932.985796	169.333333
1934.727909	109.000000
1936.469662	166.000000
1938.211056	150.333333
1939.950356	152.333333
1941.689297	118.000000
1943.427879	168.000000
1945.164369	126.000000
1946.900502	147.000000
1948.638009	168.000000
1950.371695	170.666667
1952.106754	131.666667
1953.839726	170.000000
1955.572341	133.333333
1957.304599	165.000000
1959.036501	169.333333
1960.766317	153.333333
1962.494049	121.333333
1964.223154	176.333333
1965.951905	161.000000
1967.678572	179.333333
1969.404885	136.333333
1971.132571	154.333333
1972.854721	151.666667
1974.579972	150.000000
1976.301417	158.000000
1978.025961	168.333333
1979.748426	165.666667
1981.467087	199.333333
1983.188847	132.666667
1984.906805	168.666667
1986.626137	172.333333
1988.341668	159.000000
1990.062021	125.666667
1991.778574	149.666667
1993.491332	139.666667
1995.207185	154.333333
1996.920965	144.333333
1998.634396	177.666667
2000.345756	181.333333
2002.058489	187.333333
2003.767430	150.000000
2005.479465	163.000000
2007.185990	146.333333
2008.895608	155.000000
2010.603158	128.666667
2012.310361	180.000000
2014.015498	134.000000
2015.720288	161.666667
2017.426450	123.333333
2019.128830	163.000000
2020.832582	131.333333
2022.534270	168.666667
2024.235614	148.666667
2025.936612	170.666667
2027.635550	201.333333
2029.335858	163.000000
2031.032392	127.666667
2032.730297	157.666667
2034.426144	175.666667
2036.125075	171.666667
2037.818521	157.333333
2039.513339	173.333333
2041.207813	154.000000
2042.898519	182.666667
2044.592309	167.333333
2046.282332	146.000000
2047.973726	150.000000
2049.663067	170.666667
2051.353778	139.333333
2053.040727	172.000000
2054.727335	123.000000
2056.415314	216.000000
2058.099533	146.666667
2059.785122	187.666667
2061.470372	142.666667
2063.153574	193.666667
2064.838145	153.666667
2066.517254	197.333333
2068.201148	125.333333
2069.879582	146.000000
2071.561092	133.666667
2073.238852	157.666667
2074.916274	165.333333
2076.595067	123.333333
2078.271816	114.666667
2079.946524	161.000000
2081.622601	133.666667
2083.296638	192.333333
2084.970339	180.333333
2086.643705	169.000000
2088.315033	170.333333
2089.986026	145.000000
2091.656685	174.666667
2093.327009	136.333333
2094.997000	111.666667
2096.664955	159.666667
2098.332577	179.000000
2099.998165	158.666667
2101.665121	126.333333
2103.330044	149.666667
2104.994634	153.333333
2106.657193	137.333333
2108.321120	149.333333
2109.983017	198.666667
2111.644582	170.333333
2113.305817	157.333333
2114.965022	150.666667
2116.623898	162.666667
2118.282443	128.000000
2119.940659	162.000000
2121.595151	131.000000
2123.252708	147.666667
2124.909936	155.666667
2126.563442	117.000000
2128.218316	128.000000
2129.869472	149.000000
2131.523689	167.000000
2133.174190	142.666667
2134.826057	125.000000
2136.472516	172.000000
2138.123730	154.333333
2139.771230	152.333333
2141.420097	136.333333
2143.066946	153.333333
2144.713468	170.000000
2146.359665	143.666667
2148.002154	136.000000
2149.647701	177.666667
2151.289541	157.000000
2152.934438	121.333333
2154.575630	165.666667
2156.216498	192.333333
2157.857043	144.666667
2159.495575	145.333333
2161.135473	164.666667
2162.771671	159.000000
2164.409235	169.333333
2166.046476	165.000000
2167.681708	109.000000
2169.316619	159.000000
2170.951208	142.333333
2172.585475	142.000000
2174.216050	150.666667
2175.849675	167.666667
2177.479609	146.000000
2179.110908	156.000000
2180.740203	186.000000
2182.369177	170.333333
2183.997833	173.666667
2185.626169	154.000000
2187.252502	143.666667
2188.878517	157.000000
2190.502531	153.000000
2192.127909	150.333333
2193.751288	149.666667
2195.376030	148.666667
2196.997092	154.000000
2198.617837	178.666667
2200.239947	173.000000
2201.860059	148.666667
2203.478174	125.666667
2205.095974	178.000000
2206.713459	147.000000
2208.330628	167.333333
2209.947482	146.000000
2211.564021	151.000000
2213.178566	152.333333
2214.791119	129.000000
2216.405036	120.000000
2218.016962	155.333333
2219.630251	167.333333
2221.241550	140.333333
2222.850859	147.000000
2224.461532	153.000000
2226.070216	120.000000
2227.678588	123.000000
2229.284972	112.333333
2230.892720	132.666667
2232.498481	162.000000
2234.103931	158.666667
2235.707397	134.000000
2237.312225	149.666667
2238.915069	123.333333
2240.515930	188.000000
2242.118154	108.666667
2243.718395	167.333333
2245.319999	125.666667
2246.917951	131.000000
2248.517265	140.666667
2250.114599	141.333333
2251.711625	158.000000
2253.310012	182.666667
2254.904751	157.333333
2256.497514	155.333333
2258.091638	130.666667
2259.687124	122.666667
2261.278966	162.000000
2262.870501	147.666667
2264.463397	147.000000
2266.050984	162.333333
2267.643268	154.666667
2269.230244	139.333333
2270.820249	167.000000
2272.404949	154.666667
2273.994343	116.333333
2275.578434	122.333333
2277.163887	151.333333
2278.747370	150.333333
2280.333880	170.000000
2281.916756	182.666667
2283.499328	167.000000
2285.081597	139.333333
2286.660237	144.666667
2288.241900	125.000000
2289.819935	140.333333
2291.400993	139.666667
2292.978425	139.333333
2294.553893	139.000000
2296.132382	138.333333
2297.707248	162.000000
2299.281813	157.333333
2300.856078	153.333333
2302.430042	122.000000
2304.003706	136.666667
2305.577069	148.333333
2307.146814	163.666667
2308.716260	128.000000
2310.288725	145.000000
2311.855914	156.333333
2313.426122	174.333333
2314.992715	110.666667
2316.560668	135.000000
2318.126666	116.333333
2319.692365	141.666667
2321.257768	137.666667
2322.821217	153.000000
2324.386024	122.000000
2325.947224	198.666667
2327.511438	219.000000
2329.070391	233.000000
2330.632357	189.666667
2332.192373	154.000000
2333.752093	136.000000
2335.309864	136.666667
2336.867341	143.000000
2338.424522	171.666667
2339.979757	151.333333
2341.534697	181.333333
2343.089344	160.333333
2344.643697	145.000000
2346.197756	159.000000
2347.751521	152.000000
2349.303343	138.000000
2350.853221	160.333333
2352.406107	156.333333
2353.953751	143.333333
2355.504402	170.333333
2357.051463	153.666667
2358.599881	136.000000
2360.148007	142.666667
2361.692546	132.333333
2363.238442	150.000000
2364.782399	138.000000
2366.327714	154.000000
2367.869444	133.333333
2369.412531	164.000000
2370.953683	170.666667
2372.494545	137.333333
2374.035118	146.333333
2375.575402	158.000000
2377.115397	113.666667
2378.651813	184.666667
2380.191231	142.000000
2381.727072	178.000000
2383.264269	136.000000
2384.797892	205.000000
2386.334514	152.000000
2387.869205	173.000000
2389.401967	144.333333
2390.934443	154.333333
2392.464990	150.333333
2393.998535	170.000000
2395.526869	137.666667
2397.056559	169.000000
2398.585964	169.666667
2400.115083	161.333333
2401.643918	191.000000
2403.167548	151.666667
2404.695813	157.000000
2406.218875	145.000000
2407.746571	140.000000
2409.267428	183.666667
2410.792918	177.333333
2412.314847	134.666667
2413.838132	137.666667
2415.359496	172.000000
2416.878940	121.000000
2418.399739	156.000000
2419.918619	173.666667
2421.437217	148.000000
2422.953898	177.666667
2424.471933	171.333333
2425.989687	169.000000
2427.503890	196.666667
2429.017812	164.333333
2430.531455	170.333333
2432.046451	189.333333
2433.557899	198.666667
2435.070702	163.000000
2436.581592	193.666667
2438.092202	208.000000
2439.600901	205.000000
2441.112587	209.333333
2442.620729	175.000000
2444.128592	179.333333
2445.636178	199.666667
2447.140223	199.000000
2448.647254	163.666667
2450.152376	180.666667
2451.657221	196.000000
2453.160159	177.333333
2454.662820	226.666667
2456.165205	199.333333
2457.665685	190.666667
2459.167518	186.000000
2460.667447	173.333333
2462.167100	174.000000
2463.666478	159.000000
2465.163952	160.333333
2466.659526	184.666667
2468.158079	173.666667
2469.653103	202.666667
2471.149481	166.333333
2472.642332	181.000000
2474.136535	144.666667
2475.630465	172.000000
2477.120872	149.333333
2478.614255	194.666667
2480.105741	165.666667
2481.595330	171.333333
2483.084647	213.333333
2484.572069	160.000000
2486.062466	168.666667
2487.549344	157.000000
2489.037574	143.666667
2490.522288	141.000000
2492.006731	161.666667
2493.492526	189.000000
2494.976428	152.333333
2496.461682	166.666667
2497.941802	126.666667
2499.424894	182.333333
2500.906096	173.000000
2502.387029	159.333333
2503.866073	142.666667
2505.344849	148.333333
2506.823355	175.000000
2508.301594	146.000000
2509.779564	170.000000
2511.254030	150.333333
2512.731464	148.666667
2514.205395	185.666667
2515.680677	162.333333
2517.155691	167.333333
2518.627204	103.000000
2520.100068	154.000000
2521.571048	138.666667
2523.043379	174.666667
2524.510597	141.666667
2525.980780	176.333333
2527.449083	160.333333
2528.917121	173.333333
2530.384894	142.666667
2531.852402	155.000000
2533.319645	176.000000
2534.783396	174.333333
2536.248498	159.333333
2537.711721	185.000000
2539.176295	129.333333
2540.637379	160.333333
2542.099813	180.000000
2543.561984	194.333333
2545.020669	150.333333
2546.483926	191.333333
2547.942086	175.666667
2549.401595	138.333333
2550.856011	132.333333
2552.314996	165.333333
2553.772110	141.666667
2555.227353	165.333333
2556.682335	130.000000
2558.135447	120.666667
2559.589908	120.000000
2561.042500	162.000000
2562.494832	130.666667
2563.945296	155.000000
2565.398716	199.666667
2566.847054	170.666667
2568.298348	166.666667
2569.747775	149.333333
2571.193731	130.000000
2572.642641	195.333333
2574.088080	178.666667
2575.534868	186.000000
2576.979792	135.000000
2578.424459	169.000000
2579.870473	179.666667
2581.313020	179.666667
2582.756915	167.333333
2584.197345	182.000000
2585.639123	160.333333
2587.079040	187.333333
2588.520305	158.333333
2589.958109	178.000000
2591.398862	171.000000
2592.834552	151.666667
2594.273192	151.666667
2595.709975	154.666667
2597.144901	154.000000
2598.582776	161.000000
2600.015593	132.000000
2601.449756	210.000000
2602.882066	175.666667
2604.315722	171.000000
2605.747525	177.000000
2607.179075	167.666667
2608.610371	150.666667
2610.039816	195.333333
2611.469008	168.666667
2612.896349	161.000000
2614.325037	155.333333
2615.753472	220.000000
2617.178460	155.000000
2618.604795	194.333333
2620.029281	164.000000
2621.455113	173.333333
2622.877501	177.333333
2624.301235	214.333333
2625.723123	168.666667
2627.144760	223.333333
2628.564552	176.666667
2629.985690	190.333333
2631.406578	205.666667
2632.824028	205.666667
2634.244417	198.333333
2635.661369	234.666667
2637.078073	186.666667
2638.494528	236.333333
2639.910735	211.333333
2641.326693	185.333333
2642.740811	205.333333
2644.154682	214.666667
2645.566713	198.333333
2646.980089	272.333333
2648.390035	173.666667
2649.802916	230.000000
2651.212370	227.000000
2652.621577	250.000000
2654.028948	245.333333
2655.439253	256.000000
2656.847722	298.333333
2658.254356	281.000000
2659.660745	233.333333
2661.065300	296.000000
2662.471199	271.333333
2663.875265	312.666667
2665.279087	295.000000
2666.682664	304.000000
2668.084409	338.000000
2669.487498	351.000000
2670.887170	346.333333
2672.288184	364.333333
2673.685783	371.333333
2675.086312	366.333333
2676.483426	363.333333
2677.881883	391.333333
2679.278512	386.666667
2680.674899	390.000000
2682.071045	390.333333
2683.465364	413.333333
2684.861026	375.666667
2686.253278	402.666667
2687.646874	396.666667
2689.038645	402.666667
2690.431758	355.000000
2691.823048	403.333333
2693.212515	402.666667
2694.601743	439.000000
2695.990730	402.000000
2697.381060	432.333333
2698.766405	416.333333
2700.154674	407.666667
2701.541123	433.333333
2702.927333	430.000000
2704.313305	483.333333
2705.695878	493.000000
2707.079792	494.666667
2708.463469	571.666667
2709.846908	542.000000
2711.226951	522.333333
2712.608336	518.000000
2713.987905	625.000000
2715.368816	647.333333
2716.747912	672.000000
2718.125193	619.000000
2719.503816	616.000000
2720.880626	614.666667
2722.257200	603.000000
2723.633538	542.333333
2725.008064	612.333333
2726.383931	509.000000
2727.756411	546.000000
2729.131808	518.333333
2730.502243	500.666667
2731.874020	419.333333
2733.245563	465.333333
2734.615297	430.666667
2735.986371	442.000000
2737.355638	358.333333
2738.724671	370.666667
2740.091897	335.333333
2741.458891	332.000000
2742.825652	330.666667
2744.192180	310.666667
2745.556903	288.666667
2746.921395	305.000000
2748.285654	287.666667
2749.649682	283.666667
2751.013477	294.333333
2752.373899	266.333333
2753.737232	241.333333
2755.095622	204.666667
2756.456922	188.333333
2757.814851	224.000000
2759.175690	180.333333
2760.534728	184.000000
2761.890398	197.666667
2763.248976	186.000000
2764.604188	154.333333
2765.959170	172.333333
2767.312355	170.000000
2768.668447	175.000000
2770.021175	150.333333
2771.373674	185.333333
2772.725945	179.666667
2774.079555	151.666667
2775.429803	152.333333
2776.778258	203.333333
2778.129617	166.000000
2779.477617	165.333333
2780.826956	156.333333
2782.174502	149.666667
2783.521821	129.333333
2784.868914	182.000000
2786.214216	153.000000
2787.559292	119.000000
2788.904142	124.000000
2790.248765	151.333333
2791.590037	162.000000
2792.932647	139.333333
2794.275031	150.000000
2795.617191	168.333333
2796.956001	160.333333
2798.297710	155.000000
2799.636072	135.000000
2800.975771	147.000000
2802.313684	111.000000
2803.649813	155.666667
2804.985719	144.666667
2806.322961	125.333333
2807.658420	170.000000
2808.993656	156.666667
2810.327110	186.666667
2811.661900	136.666667
2812.993349	159.666667
2814.327694	162.666667
2815.657141	148.333333
2816.987925	129.333333
2818.318487	135.666667
2819.647270	149.333333
2820.977390	143.333333
2822.305730	149.000000
2823.633850	151.000000
2824.960193	165.333333
2826.287871	151.333333
2827.612217	156.000000
2828.937898	105.666667
2830.261804	149.666667
2831.585491	159.000000
2832.910513	170.333333
2834.232206	121.333333
2835.553679	137.333333
2836.874934	108.000000
2838.195970	154.333333
2839.515234	129.000000
2840.835833	148.333333
2842.154660	135.333333
2843.473269	164.333333
2844.790108	97.333333
2846.106729	180.666667
2847.423132	133.333333
2848.737767	136.666667
2850.053736	144.333333
2851.366385	137.666667
2852.680370	141.333333
2853.994138	143.666667
2855.307689	136.000000
2856.619473	148.000000
2857.929492	112.000000
2859.240844	127.333333
2860.548882	128.666667
2861.858255	160.333333
2863.167412	130.000000
2864.476354	154.666667
2865.783533	102.666667
2867.088948	184.666667
2868.395698	115.333333
2869.700685	105.333333
2871.005459	154.666667
2872.308471	141.666667
2873.614365	128.666667
2874.915403	126.333333
2876.217776	92.000000
2877.518389	165.666667
2878.820336	123.333333
2880.122070	143.333333
2881.420500	135.000000
2882.720263	137.000000
2884.018268	134.666667
2885.316062	157.666667
2886.612100	142.666667
2887.909471	104.333333
2889.205086	108.333333
2890.500490	145.333333
2891.795684	148.333333
2893.087579	138.333333
2894.382351	110.666667
2895.673826	127.000000
2896.966635	107.666667
2898.259232	128.333333
2899.548536	101.000000
2900.839172	145.333333
2902.128057	143.000000
2903.418275	99.333333
2904.705201	126.000000
2905.993459	100.000000
2907.279967	108.000000
2908.566268	142.333333
2909.852360	91.666667
2911.136704	140.666667
2912.423920	130.333333
2913.706309	132.333333
2914.990029	124.666667
2916.272004	118.000000
2917.553772	124.333333
2918.833794	163.000000
2920.116686	127.666667
2921.397833	148.333333
2922.675698	111.000000
2923.956432	117.000000
2925.233885	137.000000
2926.511133	148.666667
2927.786638	75.666667
2929.065011	134.666667
2930.338569	143.666667
2931.614995	140.666667
2932.889680	79.000000
2934.162625	102.666667
2935.436900	121.000000
2936.709436	127.333333
2937.981768	103.333333
2939.250827	120.333333
2940.522750	160.333333
2941.792936	141.666667
2943.062919	117.666667
2944.332698	156.666667
2945.600740	117.666667
2946.867047	133.333333
2948.133151	98.000000
2949.400585	119.666667
2950.666285	119.666667
2951.931782	132.333333
2953.197077	115.000000
2954.459107	134.000000
2955.722468	119.666667
2956.985627	135.333333
2958.247053	115.333333
2959.509809	124.000000
2960.770834	135.333333
2962.030128	143.333333
2963.289221	120.000000
2964.548114	93.333333
2965.806807	98.333333
2967.065300	109.000000
2968.322064	128.666667
2969.578628	118.000000
2970.833465	136.333333
2972.089631	130.000000
2973.342541	130.333333
2974.596781	116.000000
2975.850822	95.000000
2977.103137	127.666667
2978.355254	150.000000
2979.605646	124.666667
2980.858893	117.000000
2982.107363	116.666667
2983.358687	115.000000
2984.606763	112.000000
2985.854641	92.333333
2987.102322	149.333333
2988.349807	98.333333
2989.595570	137.666667
2990.841136	111.666667
2992.088031	149.000000
2993.331680	124.000000
2994.576658	102.000000
2995.818393	95.000000
2997.062979	123.333333
2998.305845	89.666667
2999.545471	138.333333
3000.787948	96.666667
3002.027184	139.333333
3003.267748	112.000000
3004.506595	136.333333
3005.745248	101.000000
3006.982185	110.000000
3008.220449	129.000000
3009.456999	131.000000
3010.693354	134.000000
3011.929516	134.666667
3013.163965	91.333333
3014.398220	133.333333
3015.632282	109.333333
3016.864632	126.333333
3018.095270	112.666667
3019.328754	117.666667
3020.560526	119.333333
3021.790588	121.333333
3023.020458	89.000000
3024.248618	131.666667
3025.478104	120.666667
3026.705882	141.666667
3027.933468	105.666667
3029.162380	120.000000
3030.386550	90.666667
3031.613563	132.000000
3032.837353	126.000000
3034.062468	147.666667
3035.285877	124.333333
3036.509097	143.666667
3037.730611	99.000000
3038.954966	142.000000
3040.174586	92.000000
3041.395531	130.333333
3042.616288	140.333333
3043.835341	114.666667
3045.055720	131.000000
3046.272882	120.666667
3047.491369	120.000000
3048.708155	85.666667
3049.924752	111.666667
3051.141162	130.666667
3052.354358	130.333333
3053.570392	111.666667
3054.783214	125.666667
3055.998873	129.000000
3057.209809	95.333333
3058.422070	128.666667
3059.634145	115.000000
3060.846033	110.666667
3062.056223	74.666667
3063.266227	134.666667
3064.476046	101.000000
3065.684168	116.666667
3066.892104	92.000000
3068.098346	129.000000
3069.305911	127.333333
3070.511783	118.833333
3071.717469	110.333333
3072.922970	120.000000
3074.126779	116.333333
3075.331911	107.000000
3076.535350	151.333333
3077.737097	133.666667
3078.938661	137.000000
3080.140041	119.000000
3081.341237	130.000000
3082.540743	125.000000
3083.740065	124.666667
3084.940711	120.000000
3086.139668	121.666667
3087.335429	121.000000
3088.534020	107.000000
3089.729417	135.333333
3090.926137	62.000000
3092.119665	131.666667
3093.316022	77.666667
3094.510691	139.666667
3095.702170	113.666667
3096.897980	106.000000
3098.089097	151.000000
3099.281536	141.000000
3100.470788	95.000000
3101.662866	104.333333
3102.853259	99.000000
3104.040467	115.000000
3105.228998	95.666667
3106.418851	120.666667
3107.605519	108.666667
3108.792008	99.000000
3109.978317	119.333333
3111.165948	119.000000
3112.350398	78.333333
3113.533167	104.000000
3114.718760	104.000000
3115.902672	132.000000
3117.084906	108.666667
3118.266962	101.000000
3119.448839	115.333333
3120.630538	122.000000
3121.810559	98.333333
3122.988904	112.666667
3124.170070	103.000000
3125.348060	88.333333
3126.525873	120.000000
3127.703509	103.000000
3128.879470	131.666667
3130.055255	115.000000
3131.232360	107.666667
3132.407791	92.000000
3133.581549	98.000000
3134.753635	99.000000
3135.927041	98.333333
3137.100272	110.000000
3138.271830	81.000000
3139.444710	79.666667
3140.614422	96.666667
3141.785455	124.666667
3142.954817	113.666667
3144.122510	110.666667
3145.293018	85.000000
3146.458867	109.000000
3147.629026	89.666667
3148.794527	120.333333
3149.959855	107.333333
3151.125009	114.333333
3152.289989	97.000000
3153.456290	113.666667
3154.617937	97.666667
3155.780905	123.333333
3156.943699	104.333333
3158.106321	103.333333
3159.267278	87.333333
3160.428062	93.666667
3161.588674	72.000000
3162.747623	143.666667
3163.906399	84.333333
3165.065004	111.000000
3166.223437	107.000000
3167.381698	108.666667
3168.538297	105.000000
3169.693235	119.666667
3170.849492	84.666667
3172.004089	97.000000
3173.158514	116.666667
3174.311280	85.000000
3175.463876	116.666667
3176.616301	121.000000
3177.768557	91.000000
3178.920643	112.666667
3180.069582	111.000000
3181.221328	88.000000
3182.371417	110.333333
3183.519848	107.333333
3184.668111	103.666667
3185.816204	113.666667
3186.964129	89.000000
3188.110399	114.000000
3189.256500	114.333333
3190.400946	113.333333
3191.545225	77.666667
3192.689336	130.000000
3193.834765	87.666667
3194.977055	85.666667
3196.119177	80.333333
3197.261133	103.666667
3198.402921	92.000000
3199.544542	125.333333
3200.683027	102.000000
3201.822830	127.333333
3202.963951	101.000000
3204.101937	87.000000
3205.238274	61.000000
3206.374445	138.000000
3207.511934	110.000000
3208.647774	141.333333
3209.784930	110.666667
3210.917474	111.666667
3212.054300	112.000000
3213.186514	108.000000
3214.320046	71.666667
3215.453412	124.000000
3216.583651	81.333333
3217.716688	110.666667
3218.846599	101.333333
3219.977827	81.666667
3221.105929	96.000000
3222.236828	96.333333
3223.366084	100.666667
3224.493695	85.333333
3225.618185	106.666667
3226.746950	112.333333
3227.872593	130.666667
3228.998073	107.333333
3230.121912	99.333333
3231.248545	121.333333
3232.370581	121.333333
3233.493933	123.333333
3234.617123	118.333333
3235.740151	150.000000
3236.861539	127.666667
3237.982766	115.000000
3239.102354	126.333333
3240.221781	157.666667
3241.339570	155.666667
3242.460152	162.000000
3243.577619	117.666667
3244.694927	145.333333
3245.812073	161.666667
3246.927584	176.666667
3248.044410	140.000000
3249.158125	157.000000
3250.274631	134.000000
3251.389501	92.000000
3252.501263	97.666667
3253.612866	128.333333
3254.725783	78.666667
3255.838542	100.333333
3256.948194	93.000000
3258.059161	111.666667
3259.169969	29.333333
3260.279145	113.000000
3261.386690	94.000000
3262.495550	99.666667
3263.604251	143.333333
3264.709850	103.000000
3265.816764	93.666667
3266.922048	128.000000
3268.028646	72.333333
3269.132144	123.333333
3270.236956	91.333333
3271.341611	116.000000
3272.443167	90.333333
3273.544568	107.666667
3274.647282	105.666667
3275.749839	95.666667
3276.849301	73.666667
3277.951545	130.000000
3279.050695	77.666667
3280.148219	131.000000
3281.245588	95.666667
3282.345740	124.666667
3283.442798	80.000000
3284.539701	101.000000
3285.636450	96.666667
3286.728639	64.000000
3287.825078	106.666667
3288.919894	111.333333
3290.014555	101.666667
3291.107595	96.333333
3292.200481	94.333333
3293.291746	104.000000
3294.384324	63.666667
3295.475281	95.333333
3296.564620	72.666667
3297.653804	93.333333
3298.744302	97.333333
3299.831715	93.000000
3300.918976	63.666667
3302.007549	110.666667
3303.095969	66.333333
3304.179842	101.000000
3305.267957	75.333333
3306.352991	94.000000
3307.436409	66.666667
3308.521138	78.333333
3309.604253	67.666667
3310.688679	108.333333
3311.770027	87.333333
3312.852687	81.666667
3313.933733	94.000000
3315.014628	94.000000
3316.093910	96.666667
3317.173041	104.000000
3318.253483	85.000000
3319.330852	90.666667
3320.409532	74.333333
3321.486600	126.000000
3322.563518	99.000000
3323.638825	56.666667
3324.713983	94.666667
3325.790453	132.333333
3326.863851	82.333333
3327.937101	117.000000
3329.011662	103.000000
3330.084613	134.666667
3331.155957	72.000000
3332.228611	88.000000
3333.298198	86.000000
3334.369096	96.666667
3335.438387	78.000000
3336.508989	99.000000
3337.577984	107.333333
3338.645373	105.666667
3339.711157	92.000000
3340.781167	93.000000
3341.848114	86.666667
3342.911999	61.666667
3343.978652	107.333333
3345.043700	97.333333
3346.107146	82.000000
3347.170444	85.333333
3348.233597	73.000000
3349.296603	106.333333
3350.359462	75.333333
3351.420720	114.000000
3352.478921	88.333333
3353.541343	102.000000
3354.600708	83.333333
3355.659928	97.333333
3356.720458	62.333333
3357.776478	95.000000
3358.835263	92.333333
3359.889540	106.666667
3360.946580	81.666667
3362.002023	88.000000
3363.058774	63.333333
3364.113928	106.000000
3365.167484	53.333333
3366.219443	121.333333
3367.274164	91.333333
3368.325836	105.666667
3369.377365	85.333333
3370.430203	95.000000
3371.479993	74.000000
3372.531091	100.000000
3373.579144	70.333333
3374.629957	122.000000
3375.677724	89.000000
3376.725349	80.333333
3377.772832	91.666667
3378.818721	89.333333
3379.865919	54.000000
3380.910075	106.666667
3381.956989	107.333333
3383.002311	101.333333
3384.044593	73.666667
3385.086733	92.666667
3386.130181	110.333333
3387.173489	72.666667
3388.215206	108.333333
3389.256782	101.666667
3390.298218	83.000000
3391.338064	84.666667
3392.376323	83.666667
3393.415889	120.666667
3394.455314	71.333333
3395.493153	69.666667
3396.529404	82.333333
3397.565515	75.666667
3398.602934	64.000000
3399.637320	77.666667
3400.673013	121.333333
3401.708567	112.000000
3402.741090	68.666667
3403.776366	82.000000
3404.808611	44.333333
3405.840718	107.000000
3406.871241	46.666667
3407.903072	115.000000
3408.934763	84.000000
3409.963428	106.000000
3410.991954	94.666667
3412.021788	115.666667
3413.051483	55.333333
3414.078153	105.333333
3415.106130	82.333333
3416.131082	72.000000
3417.158784	88.333333
3418.183463	86.333333
3419.209448	75.333333
3420.233853	73.333333
3421.258122	78.000000
3422.280812	95.000000
3423.303366	76.000000
3424.327226	126.333333
3425.348066	73.333333
3426.368771	83.000000
3427.390781	88.666667
3428.409773	65.333333
3429.428630	89.666667
3430.448792	111.666667
3431.465938	101.333333
