-117.018713	-6.750000
-114.349113	5.350000
-111.682448	4.850000
-109.016535	2.500000
-106.353555	0.100000
-103.689144	9.200000
-101.027664	11.450000
-98.364755	8.200000
-95.706952	6.250000
-93.047720	10.100000
-90.389236	4.250000
-87.733677	-5.900000
-85.076688	2.350000
-82.424798	4.950000
-79.771478	6.300000
-77.121077	-3.000000
-74.469248	3.400000
-71.822509	4.600000
-69.174340	8.400000
-66.526914	3.450000
-63.882403	-17.050000
-61.236462	6.200000
-58.595603	-3.700000
-55.953315	-3.200000
-53.313936	-8.900000
-50.673128	1.550000
-48.033059	1.450000
-45.398064	-5.450000
-42.761639	-1.850000
-40.128117	-1.600000
-37.493167	-2.250000
-34.863283	5.250000
-32.229805	13.950000
-29.601390	-5.750000
-26.973709	8.850000
-24.344599	3.700000
-21.720547	14.600000
-19.092904	23.350000
-16.470316	26.250000
-13.848458	21.400000
-11.227331	64.200000
-8.606935	129.350000
-5.989426	474.650000
-3.370489	1454.600000
-0.754438	4374.750000
1.860886	5475.450000
4.475481	3619.900000
7.087195	388.450000
9.700337	57.050000
12.308445	24.150000
14.920134	28.000000
17.526793	11.350000
20.134881	10.000000
22.742243	-4.600000
25.344581	7.250000
27.950498	11.500000
30.551392	1.100000
33.153714	-11.250000
35.751018	14.650000
38.351899	10.600000
40.947764	5.050000
43.545057	-2.300000
46.141632	5.250000
48.733197	-7.300000
51.326190	-8.750000
53.916322	-1.600000
56.507881	5.700000
59.096582	0.300000
61.686709	3.600000
64.271837	0.900000
66.858393	12.500000
69.444235	-1.150000
72.027222	4.450000
74.611637	2.900000
77.188923	-1.150000
79.769775	-6.100000
82.347778	5.400000
84.925070	5.700000
87.503790	13.800000
90.077527	-7.800000
92.652691	6.750000
95.225012	16.200000
97.796626	7.100000
100.365399	4.150000
102.935599	12.950000
105.502960	12.150000
108.071748	-4.250000
110.637699	13.550000
113.200815	14.700000
115.767487	17.650000
118.324937	26.900000
120.888073	41.800000
123.446250	41.100000
126.007981	51.250000
128.564755	74.350000
131.122955	109.700000
133.676203	157.300000
136.228753	223.550000
138.784853	297.900000
141.336005	432.350000
143.886460	538.600000
146.436217	634.200000
148.983155	718.650000
151.529398	753.700000
154.077066	778.100000
156.624038	769.400000
159.166075	780.750000
161.707418	768.250000
164.248068	795.100000
166.790144	786.400000
169.329408	779.650000
171.865863	788.500000
174.401628	784.050000
176.938818	796.700000
179.475317	772.950000
182.009010	787.550000
184.539899	792.150000
187.070100	772.600000
189.601727	768.550000
192.130552	776.800000
194.656578	775.700000
197.181918	784.250000
199.708683	793.150000
202.232652	775.700000
204.755936	778.200000
207.278534	815.600000
209.798340	790.400000
212.317463	792.550000
214.835903	805.150000
217.355768	811.250000
219.868630	795.500000
222.385024	802.550000
224.900737	836.600000
227.411559	851.900000
229.923806	846.250000
232.433270	852.350000
234.942056	860.050000
237.450164	854.500000
239.959696	867.850000
242.464347	849.550000
244.968322	859.200000
247.473721	874.250000
249.974245	862.700000
252.478292	883.000000
254.975369	866.350000
257.475969	867.400000
259.973797	872.950000
262.470952	872.150000
264.967434	871.500000
267.459053	883.950000
269.954192	886.650000
272.446564	892.950000
274.938266	897.850000
277.427205	891.000000
279.917567	882.350000
282.405168	902.300000
284.890009	908.700000
287.378365	914.350000
289.859781	904.050000
292.344711	909.650000
294.824796	912.800000
297.308393	941.500000
299.787147	934.300000
302.267324	964.200000
304.744750	971.050000
307.221512	943.100000
309.697610	947.400000
312.170960	925.200000
314.643649	931.350000
317.115676	927.800000
319.587041	941.000000
322.055663	963.400000
324.523625	954.900000
326.993010	962.950000
329.457572	936.500000
331.925638	925.450000
334.388883	907.700000
336.851472	909.850000
339.313404	927.400000
341.774679	918.800000
344.233219	922.350000
346.693183	897.150000
349.150413	896.650000
351.606989	941.950000
354.062911	919.650000
356.516103	912.500000
358.970718	923.050000
361.420531	927.700000
363.873840	914.300000
366.322350	902.250000
368.770210	919.050000
371.219492	906.500000
373.663979	907.100000
376.109890	895.550000
378.555150	913.200000
380.997692	918.150000
383.439586	904.800000
385.880832	924.450000
388.319364	911.150000
390.759316	898.250000
393.196555	904.350000
395.631083	893.200000
398.069097	910.700000
400.502336	905.750000
402.936995	914.250000
405.366882	896.900000
407.800254	911.500000
410.228856	903.550000
412.656816	897.100000
415.086198	911.650000
417.510814	926.100000
419.936852	904.800000
422.362249	907.450000
424.787006	917.100000
427.207004	915.350000
429.628424	943.000000
432.047148	931.600000
434.467292	925.650000
436.884741	930.350000
439.303610	928.050000
441.719785	903.200000
444.131214	922.550000
446.546119	911.700000
448.958335	920.250000
451.369916	925.950000
453.780863	924.900000
456.189123	927.950000
458.596752	910.500000
461.003748	937.150000
463.410113	909.400000
465.813795	935.800000
468.216847	920.450000
470.619269	912.650000
473.021061	946.100000
475.420175	935.000000
477.820709	925.800000
480.220614	936.050000
482.615797	945.550000
485.014446	964.800000
487.408374	974.100000
489.801677	977.150000
492.194355	987.350000
494.586407	1019.850000
496.979877	1029.000000
499.368635	1087.650000
501.754727	1115.350000
504.142239	1200.900000
506.529128	1338.800000
508.913352	1586.700000
511.298996	2029.950000
513.681978	2946.250000
516.062299	4854.250000
518.444039	8265.500000
520.823120	11145.800000
523.203619	10448.950000
525.581462	6969.500000
527.956648	3915.150000
530.331218	2551.250000
532.707205	1991.650000
535.080540	1640.050000
537.455292	1467.000000
539.825358	1355.350000
542.194810	1265.900000
544.565679	1195.750000
546.931867	1151.450000
549.299474	1101.250000
551.664435	1091.200000
554.028784	1047.000000
556.392519	1033.100000
558.757672	1011.150000
561.118153	1015.050000
563.480052	1000.350000
565.839310	1018.050000
568.195930	974.050000
570.555996	988.150000
572.909370	958.350000
575.266189	974.800000
577.620373	969.100000
579.973948	970.350000
582.326916	941.700000
584.677251	952.650000
587.029004	947.600000
589.374080	950.250000
591.724619	947.300000
594.068486	955.850000
596.417814	947.050000
598.762493	942.700000
601.104548	946.750000
603.448020	938.850000
605.788869	944.050000
608.129115	956.050000
610.466741	955.850000
612.807802	955.650000
615.144226	945.550000
617.482066	965.500000
619.817289	932.200000
622.149895	964.200000
624.483919	938.300000
626.815328	936.950000
629.146139	951.150000
631.476352	934.500000
633.805968	942.900000
636.130960	940.350000
638.461394	933.850000
640.787207	925.950000
643.110412	944.350000
645.435034	934.050000
647.757050	931.500000
650.078472	937.200000
652.397291	934.700000
654.717527	954.400000
657.037169	937.050000
659.354210	932.600000
661.670659	949.900000
663.984510	944.500000
666.299777	948.100000
668.612447	956.350000
670.926532	944.650000
673.236017	971.050000
675.546918	948.400000
677.855226	944.750000
680.162946	964.250000
682.472080	951.500000
684.776622	942.150000
687.080578	949.900000
689.383948	946.250000
691.688732	954.050000
693.988929	944.800000
696.290542	924.500000
698.591569	934.550000
700.888015	925.350000
703.185876	916.650000
705.483153	927.800000
707.779847	926.250000
710.071965	918.700000
712.367494	901.200000
714.658449	930.650000
716.950819	914.500000
719.240614	901.350000
721.529828	913.550000
723.818463	916.750000
726.104525	922.450000
728.392002	920.600000
730.676907	910.900000
732.961235	929.000000
735.242994	919.900000
737.526167	926.950000
739.808763	926.450000
742.086803	913.600000
744.366257	924.800000
746.645136	945.250000
748.923440	932.400000
751.197193	931.650000
753.472361	940.350000
755.746955	948.450000
758.018990	928.400000
760.292438	952.950000
762.563328	931.500000
764.831662	937.900000
767.101409	956.800000
769.368601	958.550000
771.635224	945.000000
773.901276	963.150000
776.164777	969.000000
778.429691	960.650000
780.694035	944.150000
782.953850	955.650000
785.215077	944.900000
787.475737	984.850000
789.733851	954.850000
791.989420	970.000000
794.248379	969.350000
796.500840	986.800000
798.758668	965.500000
801.011977	986.050000
803.262746	973.400000
805.514927	990.350000
807.764569	977.550000
810.015623	998.100000
812.262167	981.750000
814.510122	1001.800000
816.755543	997.350000
819.002375	987.650000
821.248646	992.500000
823.490412	993.150000
825.735562	971.750000
827.974239	982.250000
830.216298	977.700000
832.453859	975.050000
834.692832	986.650000
836.929278	994.800000
839.167135	959.500000
841.402467	974.300000
843.635276	969.000000
845.869495	994.050000
848.101193	1000.500000
850.332336	990.300000
852.562924	1012.700000
854.792958	992.650000
857.022438	988.400000
859.247436	1002.200000
861.475808	979.700000
863.699702	984.350000
865.925007	1000.950000
868.145836	997.900000
870.370037	994.700000
872.589765	979.500000
874.810903	979.700000
877.031491	996.050000
879.249570	992.750000
881.469058	983.200000
883.684080	993.400000
885.898554	986.100000
888.112481	998.350000
890.325861	976.350000
892.538693	975.800000
894.750978	987.650000
896.960762	983.200000
899.170000	981.600000
901.378693	970.250000
903.584886	969.150000
905.792489	993.500000
907.997595	976.600000
910.202157	993.450000
912.404224	1001.950000
914.607700	995.250000
916.808682	1010.700000
919.009122	996.150000
921.210971	1008.650000
923.406429	1001.000000
925.605245	1007.050000
927.799624	1046.750000
929.997360	1069.700000
932.190660	1092.550000
934.385369	1124.750000
936.577591	1172.450000
938.769276	1216.450000
940.960423	1237.500000
943.149087	1253.700000
945.337215	1288.150000
947.522861	1257.900000
949.711861	1264.200000
951.896437	1263.250000
954.080478	1275.700000
956.267869	1278.050000
958.446956	1262.900000
960.629394	1273.950000
962.811298	1268.250000
964.990727	1277.050000
967.167684	1284.800000
969.346049	1299.700000
971.525821	1305.100000
973.699244	1326.600000
975.876013	1328.200000
978.048375	1324.200000
980.222145	1306.100000
982.391511	1298.500000
984.564221	1298.350000
986.734466	1300.000000
988.904181	1273.550000
991.073368	1241.250000
993.238158	1189.400000
995.406290	1186.200000
997.570026	1157.700000
999.735170	1135.300000
1001.897854	1121.900000
1004.060013	1120.250000
1006.219715	1115.150000
1008.378892	1108.550000
1010.539476	1096.100000
1012.697605	1114.850000
1014.855211	1089.350000
1017.012293	1088.450000
1019.168851	1070.250000
1021.321030	1080.400000
1023.474616	1080.700000
1025.627680	1060.200000
1027.778295	1068.900000
1029.930316	1057.800000
1032.077965	1055.450000
1034.228945	1070.300000
1036.375554	1049.850000
1038.521644	1057.000000
1040.667216	1044.200000
1042.814193	1035.150000
1044.954881	1040.350000
1047.098898	1027.800000
1049.240476	1045.700000
1051.381536	1024.350000
1053.524002	1017.850000
1055.660187	1031.450000
1057.799699	1016.750000
1059.934855	1025.400000
1062.073336	1017.000000
1064.207464	1016.450000
1066.341078	1026.700000
1068.476096	1016.250000
1070.606766	1023.050000
1072.738840	1028.350000
1074.868485	993.500000
1076.997617	999.100000
1079.126239	1010.650000
1081.254349	1006.700000
1083.380033	1010.750000
1085.505207	1021.550000
1087.631785	994.700000
1089.754025	1016.700000
1091.877670	1004.750000
1093.996980	996.500000
1096.121519	1014.550000
1098.239814	1000.900000
1100.359512	1031.550000
1102.476793	1007.450000
1104.593566	991.200000
1106.709833	1011.350000
1108.823685	1020.050000
1110.938940	1010.600000
1113.049873	1036.900000
1115.164118	1002.550000
1117.274042	1016.800000
1119.385370	1008.450000
1121.496193	1009.250000
1123.602700	994.650000
1125.712516	990.600000
1127.818019	991.500000
1129.924924	980.150000
1132.025614	998.700000
1134.131516	984.100000
1136.233109	1004.850000
1138.336105	993.900000
1140.438600	981.500000
1142.534888	1000.850000
1144.636383	994.950000
1146.733576	1002.950000
1148.830271	988.600000
1150.926467	979.900000
1153.022165	1007.500000
1155.117366	993.900000
1157.210170	990.500000
1159.304376	997.150000
1161.392391	1010.400000
1163.485604	1000.400000
1165.572630	1000.150000
1167.662954	993.500000
1169.748990	987.850000
1171.838324	1019.050000
1173.921477	1011.250000
1176.006033	1000.600000
1178.091990	964.500000
1180.173665	1005.700000
1182.256741	991.900000
1184.337432	1018.500000
1186.417632	991.700000
1188.497340	993.600000
1190.576557	1001.850000
1192.653391	1011.950000
1194.727845	1006.150000
1196.805591	998.750000
1198.879066	999.850000
1200.953943	1013.100000
1203.024552	1004.400000
1205.096562	1008.150000
1207.166196	1006.800000
1209.237231	1010.400000
1211.307779	1007.800000
1213.374065	998.700000
1215.441752	989.450000
1217.507066	1000.700000
1219.573781	997.950000
1221.636241	1018.050000
1223.701985	990.350000
1225.763475	1005.850000
1227.826366	1015.900000
1229.886888	1003.500000
1231.946928	1004.100000
1234.006484	1027.500000
1236.063676	1028.050000
1238.120385	1015.350000
1240.174732	1020.750000
1242.232360	1012.100000
1244.287624	1021.900000
1246.338649	1018.450000
1248.391073	1007.750000
1250.443017	1006.100000
1252.492603	1028.300000
1254.541710	1026.400000
1256.590338	1011.250000
1258.638488	1021.500000
1260.686160	1019.950000
1262.729601	1031.600000
1264.776318	1006.250000
1266.820681	1015.700000
1268.864568	1024.350000
1270.906103	1026.500000
1272.945289	1009.950000
1274.987748	1024.050000
1277.025984	1029.650000
1279.065619	1028.100000
1281.104778	1027.850000
1283.139720	1011.450000
1285.176060	1014.050000
1287.210056	1032.150000
1289.245449	1026.750000
1291.276629	1043.100000
1293.309208	1045.950000
1295.341315	1047.800000
1297.371081	1024.150000
1299.402244	1048.950000
1301.429200	1064.250000
1303.457555	1055.300000
1305.481704	1049.350000
1307.509119	1068.650000
1309.532331	1050.950000
1311.556941	1059.150000
1313.579216	1072.050000
1315.602889	1041.550000
1317.624229	1048.650000
1319.645102	1030.500000
1321.665507	1041.050000
1323.681719	1052.950000
1325.699328	1032.700000
1327.714609	1028.300000
1329.733149	1031.450000
1331.747499	1031.900000
1333.759524	1015.500000
1335.774807	1032.550000
1337.785904	1009.000000
1339.798397	1007.650000
1341.806708	1027.050000
1343.818275	1010.100000
1345.823803	997.450000
1347.832586	997.150000
1349.837191	1009.400000
1351.845050	1001.700000
1353.852447	1012.450000
1355.853813	1000.900000
1357.856575	1005.000000
1359.858878	1013.700000
1361.860721	1008.100000
1363.862104	1002.050000
1365.861173	1008.900000
1367.859785	990.900000
1369.857937	1000.000000
1371.855632	1001.250000
1373.849164	1005.400000
1375.844091	997.400000
1377.838562	1001.700000
1379.832576	995.600000
1381.824283	1000.100000
1383.815534	1004.450000
1385.804480	1011.300000
1387.794821	994.400000
1389.784708	1004.200000
1391.772290	1007.500000
1393.759419	1014.700000
1395.744246	1001.850000
1397.730468	1028.900000
1399.714389	1015.900000
1401.697858	1028.700000
1403.680875	1014.550000
1405.661594	1024.300000
1407.643707	1003.350000
1409.623523	1031.100000
1411.602889	1015.500000
1413.578116	1036.450000
1415.556581	1033.350000
1417.532753	1009.400000
1419.508475	1033.000000
1421.483749	1013.450000
1423.456731	1022.500000
1425.429265	1027.800000
1427.401351	1013.650000
1429.372990	1031.400000
1431.340500	1027.200000
1433.313084	1035.850000
1435.277862	1032.000000
1437.247713	1046.000000
1439.213439	1051.350000
1441.180559	1037.000000
1443.145395	1040.500000
1445.106111	1030.950000
1447.071895	1020.950000
1449.031724	1029.500000
1450.992947	1048.550000
1452.955561	1038.750000
1454.914061	1042.600000
1456.872119	1018.000000
1458.829735	1041.950000
1460.786908	1015.700000
1462.741806	1048.050000
1464.698097	1031.200000
1466.652113	1013.500000
1468.605688	1030.500000
1470.556991	1045.500000
1472.509686	1031.200000
1474.460110	1017.800000
1476.410095	1019.800000
1478.359641	1037.300000
1480.306918	1025.800000
1482.251927	1019.200000
1484.198329	1034.200000
1486.144293	1014.400000
1488.089820	1015.600000
1490.033081	1011.950000
1491.975906	1022.000000
1493.916468	1014.900000
1495.858422	1015.000000
1497.798113	1019.000000
1499.737369	1004.550000
1501.676191	1009.700000
1503.612753	997.500000
1505.550706	1028.050000
1507.486400	1018.750000
1509.421661	1042.500000
1511.354665	1018.750000
1513.287237	1029.400000
1515.219377	1016.600000
1517.151085	1006.000000
1519.080540	1017.300000
1521.011385	1013.400000
1522.941798	1020.500000
1524.868139	1021.800000
1526.795870	1033.300000
1528.721352	1014.300000
1530.646404	1022.900000
1532.571027	1016.650000
1534.495220	1035.000000
1536.417167	1018.400000
1538.340504	1020.050000
1540.261594	1017.600000
1542.180440	1014.950000
1544.100676	1035.000000
1546.018668	1053.900000
1547.936234	1035.000000
1549.851559	1046.950000
1551.768273	1019.300000
1553.680932	1037.900000
1555.596794	1021.550000
1557.510418	1026.200000
1559.421803	1048.650000
1561.334578	1008.200000
1563.243303	999.900000
1565.153417	1028.800000
1567.063108	1000.700000
1568.972376	1009.200000
1570.879409	1009.000000
1572.784210	1015.400000
1574.690400	1021.150000
1576.594359	1007.600000
1578.497896	1029.500000
1580.401013	1024.400000
1582.301900	1018.400000
1584.204176	1006.050000
1586.104223	1006.650000
1588.005659	998.600000
1589.903061	996.950000
1591.800044	1006.350000
1593.696609	1006.300000
1595.594561	1009.700000
1597.486679	1012.500000
1599.381991	997.300000
1601.276885	994.850000
1603.169557	1003.150000
1605.061812	1014.600000
1606.951848	1017.750000
1608.841468	1019.800000
1610.730673	1010.300000
1612.619462	1025.400000
1614.506035	1005.700000
1616.393995	1030.350000
1618.277938	1019.500000
1620.163268	1022.500000
1622.048185	1021.150000
1623.930888	1002.800000
1625.814978	999.150000
1627.695056	990.650000
1629.576522	1021.300000
1631.455776	1010.500000
1633.336418	1005.000000
1635.211255	1012.200000
1637.091073	1035.650000
1638.966887	1008.250000
1640.842290	1017.200000
1642.719079	1026.350000
1644.590071	1007.850000
1646.464246	1000.900000
1648.334421	1024.200000
1650.207777	1013.150000
1652.078930	998.600000
1653.947881	1004.950000
1655.818218	1013.700000
1657.684562	992.350000
1659.552291	1005.500000
1661.417821	975.600000
1663.284737	990.200000
1665.147663	975.100000
1667.011976	986.050000
1668.874092	974.800000
1670.735803	977.000000
1672.598899	969.850000
1674.459801	990.750000
1676.318510	960.700000
1678.176815	955.350000
1680.036504	955.450000
1681.890427	961.500000
1683.747523	969.800000
1685.604215	972.500000
1687.456932	956.100000
1689.312820	953.450000
1691.164734	973.100000
1693.016247	966.500000
1694.867359	948.050000
1696.718070	965.250000
1698.568381	958.950000
1700.416508	959.850000
1702.266019	946.700000
1704.109780	932.350000
1705.958492	942.800000
1707.801457	927.350000
1709.647588	958.000000
1711.489758	959.200000
1713.335093	947.700000
1715.174687	962.250000
1717.015665	949.200000
1718.858026	956.900000
1720.696430	936.600000
1722.536218	974.000000
1724.373831	948.450000
1726.211049	960.650000
1728.046093	952.000000
1729.882520	948.950000
1731.716774	946.300000
1733.550635	948.900000
1735.384101	949.100000
1737.213621	915.250000
1739.046301	925.850000
1740.875035	910.700000
1742.706928	905.550000
1744.534878	916.400000
1746.362436	914.750000
1748.189603	909.850000
1750.016378	921.250000
1751.842761	913.300000
1753.665208	910.650000
1755.490810	905.850000
1757.312477	917.900000
1759.135525	893.500000
1760.956413	904.350000
1762.776912	908.800000
1764.598791	888.950000
1766.414971	916.250000
1768.234303	904.000000
1770.049708	901.200000
1771.868264	894.550000
1773.682894	902.700000
1775.497137	903.450000
1777.310994	909.350000
1779.124464	905.250000
1780.935780	892.600000
1782.748478	884.200000
1784.560790	892.850000
1786.369183	889.250000
1788.178958	909.400000
1789.984818	898.050000
1791.793823	896.950000
1793.598915	903.300000
1795.405388	905.200000
1797.211476	892.300000
1799.013655	901.550000
1800.818978	893.900000
1802.620391	899.100000
1804.423186	901.650000
1806.222074	905.300000
1808.022343	908.400000
1809.822230	885.350000
1811.619975	907.400000
1813.417340	916.800000
1815.214324	893.650000
1817.010929	900.800000
1818.805393	888.250000
1820.601238	888.450000
1822.391427	900.050000
1824.186513	895.100000
1825.975946	900.550000
1827.768517	895.800000
1829.558952	894.700000
1831.347252	889.900000
1833.138688	886.000000
1834.924479	884.950000
1836.711649	883.450000
1838.496687	885.750000
1840.284858	875.400000
1842.069145	887.600000
1843.851301	885.300000
1845.634837	886.500000
1847.416244	898.600000
1849.199029	900.200000
1850.977935	880.500000
1852.758219	893.100000
1854.536378	882.500000
1856.315914	888.300000
1858.093326	856.450000
1859.868615	896.900000
1861.645281	881.950000
1863.419825	876.950000
1865.195746	895.300000
1866.966048	889.250000
1868.739477	864.800000
1870.510786	886.450000
1872.281724	862.400000
1874.054040	875.450000
1875.820742	871.550000
1877.590569	877.250000
1879.356533	887.850000
1881.125621	880.050000
1882.890847	863.650000
1884.655705	871.400000
1886.421939	875.500000
1888.184316	880.000000
1889.946324	884.100000
1891.707966	883.400000
1893.469240	867.300000
1895.230148	864.000000
1896.990688	861.250000
1898.749120	875.600000
1900.507185	872.050000
1902.263143	872.300000
1904.020477	871.300000
1905.777446	863.500000
1907.532308	852.950000
1909.285066	859.950000
1911.037459	867.950000
1912.791229	874.650000
1914.542895	866.700000
1916.292458	850.350000
1918.043398	864.700000
1919.793974	869.100000
1921.540712	848.200000
1923.288825	869.250000
1925.034840	876.250000
1926.782229	865.550000
1928.527520	883.000000
1930.270715	853.000000
1932.015284	858.800000
1933.757757	848.600000
1935.499871	871.350000
1937.241624	877.500000
1938.983017	855.350000
1940.722317	873.950000
1942.461258	864.400000
1944.199840	867.650000
1945.936331	869.950000
1947.672463	869.250000
1949.409971	868.550000
1951.143656	882.500000
1952.878716	873.150000
1954.611687	877.400000
1956.344302	881.250000
1958.076560	878.300000
1959.808462	883.150000
1961.538279	893.650000
1963.266010	868.250000
1964.995116	881.850000
1966.723866	878.650000
1968.450533	862.850000
1970.176846	904.050000
1971.904533	878.700000
1973.626683	884.650000
1975.351934	874.200000
1977.073378	892.350000
1978.797922	889.600000
1980.520387	875.800000
1982.239048	876.000000
1983.960809	888.400000
1985.678767	881.050000
1987.398098	874.200000
1989.113630	889.250000
1990.833982	896.500000
1992.550536	887.850000
1994.263293	891.050000
1995.979146	899.050000
1997.692927	889.650000
1999.406358	895.100000
2001.117718	892.950000
2002.830450	894.200000
2004.539392	909.400000
2006.251426	911.700000
2007.957951	896.300000
2009.667569	900.350000
2011.375119	905.900000
2013.082322	915.750000
2014.787459	905.650000
2016.492250	905.050000
2018.198412	911.900000
2019.900791	916.350000
2021.604543	896.800000
2023.306232	907.050000
2025.007575	895.200000
2026.708574	902.050000
2028.407511	901.050000
2030.107820	912.950000
2031.804353	888.600000
2033.502258	904.750000
2035.198105	899.900000
2036.897037	897.450000
2038.590483	879.900000
2040.285300	902.050000
2041.979774	906.300000
2043.670481	911.350000
2045.364270	900.300000
2047.054294	893.350000
2048.745688	897.100000
2050.435028	885.050000
2052.125740	891.500000
2053.812688	870.250000
2055.499296	882.550000
2057.187275	863.400000
2058.871494	877.650000
2060.557083	890.450000
2062.242333	884.050000
2063.925535	892.050000
2065.610107	877.000000
2067.289215	868.550000
2068.973110	876.750000
2070.651543	883.900000
2072.333054	865.450000
2074.010813	870.750000
2075.688236	884.350000
2077.367028	872.150000
2079.043777	875.450000
2080.718485	883.550000
2082.394563	885.050000
2084.068599	874.250000
2085.742301	883.650000
2087.415667	884.050000
2089.086994	855.150000
2090.757987	857.950000
2092.428646	861.800000
2094.098971	885.600000
2095.768962	867.700000
2097.436917	879.000000
2099.104538	885.950000
2100.770126	885.300000
2102.437082	871.550000
2104.102005	882.500000
2105.766596	879.500000
2107.429155	886.800000
2109.093082	894.800000
2110.754978	887.800000
2112.416544	883.150000
2114.077778	885.200000
2115.736983	896.600000
2117.395859	893.300000
2119.054405	900.600000
2120.712620	914.700000
2122.367113	898.700000
2124.024670	899.200000
2125.681897	891.300000
2127.335404	877.500000
2128.990278	897.650000
2130.641433	875.350000
2132.295651	875.450000
2133.946151	887.100000
2135.598019	898.950000
2137.244478	882.600000
2138.895691	886.850000
2140.543192	883.050000
2142.192059	902.200000
2143.838907	896.650000
2145.485430	886.700000
2147.131627	877.700000
2148.774116	899.250000
2150.419662	904.100000
2152.061502	875.300000
2153.706399	890.150000
2155.347591	879.100000
2156.988459	880.200000
2158.629004	896.900000
2160.267536	874.300000
2161.907434	874.800000
2163.543632	869.000000
2165.181196	878.050000
2166.818438	883.350000
2168.453670	874.850000
2170.088580	881.650000
2171.723169	866.100000
2173.357437	875.750000
2174.988011	870.850000
2176.621637	873.900000
2178.251571	881.800000
2179.882870	881.200000
2181.512164	877.550000
2183.141139	884.700000
2184.769794	865.300000
2186.398130	883.700000
2188.024463	893.400000
2189.650478	866.800000
2191.274492	887.000000
2192.899871	881.900000
2194.523249	883.450000
2196.147992	866.400000
2197.769054	878.400000
2199.389799	880.600000
2201.011908	875.750000
2202.632020	873.750000
2204.250136	869.950000
2205.867936	866.700000
2207.485420	874.350000
2209.102590	857.800000
2210.719443	868.000000
2212.335982	870.300000
2213.950528	865.250000
2215.563081	858.350000
2217.176998	875.650000
2218.788924	870.300000
2220.402213	846.100000
2222.013512	856.550000
2223.622821	849.900000
2225.233493	870.400000
2226.842177	858.500000
2228.450549	850.200000
2230.056934	836.550000
2231.664681	852.500000
2233.270443	848.300000
2234.875893	864.250000
2236.479358	858.750000
2238.084186	852.950000
2239.687030	862.150000
2241.287891	865.350000
2242.890115	858.600000
2244.490357	849.950000
2246.091961	846.700000
2247.689912	843.150000
2249.289226	854.250000
2250.886560	831.450000
2252.483586	870.450000
2254.081973	855.250000
2255.676713	843.750000
2257.269475	845.900000
2258.863600	834.500000
2260.459086	859.700000
2262.050927	834.450000
2263.642462	848.600000
2265.235359	834.050000
2266.822946	840.900000
2268.415229	839.800000
2270.002205	823.300000
2271.592210	835.350000
2273.176910	839.950000
2274.766304	842.000000
2276.350395	827.900000
2277.935848	836.950000
2279.519332	840.000000
2281.105841	815.650000
2282.688717	827.150000
2284.271290	819.700000
2285.853559	813.650000
2287.432198	835.800000
2289.013862	818.700000
2290.591897	833.300000
2292.172955	809.950000
2293.750386	811.000000
2295.325854	812.050000
2296.904344	821.050000
2298.479210	805.400000
2300.053775	800.250000
2301.628039	816.950000
2303.202003	800.300000
2304.775667	813.050000
2306.349031	802.250000
2307.918776	817.450000
2309.488222	806.400000
2311.060686	798.050000
2312.627876	815.900000
2314.198083	813.400000
2315.764677	799.350000
2317.332629	815.400000
2318.898627	805.600000
2320.464327	809.300000
2322.029729	803.850000
2323.593178	802.100000
2325.157986	814.550000
2326.719186	814.950000
2328.283399	821.650000
2329.842352	831.950000
2331.404318	830.000000
2332.964334	808.350000
2334.524054	805.800000
2336.081826	828.100000
2337.639302	823.400000
2339.196484	806.300000
2340.751718	821.500000
2342.306659	815.250000
2343.861305	798.650000
2345.415658	812.100000
2346.969717	807.850000
2348.523483	813.300000
2350.075304	798.100000
2351.625182	803.400000
2353.178069	822.000000
2354.725712	796.250000
2356.276364	821.250000
2357.823424	809.700000
2359.371842	784.350000
2360.919969	800.000000
2362.464507	812.150000
2364.010403	798.000000
2365.554361	792.050000
2367.099675	796.900000
2368.641405	798.450000
2370.184493	790.000000
2371.725644	790.350000
2373.266506	777.000000
2374.807079	781.500000
2376.347363	789.950000
2377.887358	793.350000
2379.423774	777.800000
2380.963192	788.300000
2382.499033	792.050000
2384.036231	781.700000
2385.569853	789.650000
2387.106475	787.600000
2388.641167	779.850000
2390.173929	792.650000
2391.706404	768.200000
2393.236951	801.600000
2394.770496	783.850000
2396.298830	788.750000
2397.828520	777.350000
2399.357925	771.350000
2400.887045	764.950000
2402.415879	779.050000
2403.939509	774.150000
2405.467774	775.450000
2406.990837	784.950000
2408.518533	784.700000
2410.039390	767.200000
2411.564879	769.250000
2413.086809	790.700000
2414.610093	784.750000
2416.131457	789.800000
2417.650901	767.100000
2419.171700	788.350000
2420.690580	770.150000
2422.209179	779.250000
2423.725859	771.900000
2425.243895	787.000000
2426.761649	763.450000
2428.275851	771.300000
2429.789774	763.450000
2431.303416	778.550000
2432.818412	773.300000
2434.329861	764.800000
2435.842663	762.500000
2437.353553	773.800000
2438.864164	774.400000
2440.372863	769.500000
2441.884548	782.850000
2443.392690	763.550000
2444.900554	774.600000
2446.408139	750.500000
2447.912185	774.350000
2449.419215	762.250000
2450.924337	784.200000
2452.429182	776.700000
2453.932120	784.750000
2455.434782	782.650000
2456.937167	765.250000
2458.437647	763.650000
2459.939480	754.600000
2461.439408	763.300000
2462.939061	766.550000
2464.438439	755.400000
2465.935914	759.200000
2467.431487	756.250000
2468.930040	774.450000
2470.425065	759.200000
2471.921442	759.700000
2473.414293	766.500000
2474.908497	755.550000
2476.402427	766.250000
2477.892833	758.300000
2479.386217	766.450000
2480.877703	758.800000
2482.367292	770.450000
2483.856609	751.800000
2485.344030	737.850000
2486.834427	756.500000
2488.321306	760.550000
2489.809536	766.350000
2491.294249	763.300000
2492.778692	742.150000
2494.264487	740.650000
2495.748390	741.500000
2497.233643	740.600000
2498.713763	750.300000
2500.196856	733.800000
2501.678058	762.150000
2503.158991	731.000000
2504.638035	747.450000
2506.116810	741.150000
2507.595317	733.150000
2509.073555	750.050000
2510.551526	760.300000
2512.025991	746.000000
2513.503426	761.350000
2514.977356	751.550000
2516.452638	746.150000
2517.927652	748.250000
2519.399165	745.350000
2520.872029	781.450000
2522.343010	745.000000
2523.815341	744.200000
2525.282558	753.900000
2526.752742	740.600000
2528.221045	734.100000
2529.689083	746.250000
2531.156855	747.550000
2532.624363	753.800000
2534.091607	756.950000
2535.555358	759.900000
2537.020459	741.350000
2538.483683	757.600000
2539.948256	761.250000
2541.409341	777.000000
2542.871775	780.650000
2544.333946	753.950000
2545.792630	765.500000
2547.255887	760.250000
2548.714047	766.950000
2550.173557	777.000000
2551.627972	750.600000
2553.086958	767.500000
2554.544072	767.950000
2555.999314	751.150000
2557.454296	751.150000
2558.907408	768.000000
2560.361869	752.600000
2561.814461	742.950000
2563.266793	744.850000
2564.717257	754.200000
2566.170678	752.000000
2567.619016	753.250000
2569.070309	754.350000
2570.519737	766.550000
2571.965692	752.050000
2573.414602	745.950000
2574.860042	758.350000
2576.306829	749.400000
2577.751753	766.200000
2579.196420	736.600000
2580.642434	753.300000
2582.084982	744.800000
2583.528876	752.150000
2584.969306	752.750000
2586.411084	737.250000
2587.851002	742.750000
2589.292267	728.750000
2590.730070	724.350000
2592.170823	750.350000
2593.606514	723.900000
2595.045153	737.650000
2596.481936	746.100000
2597.916863	759.050000
2599.354737	739.800000
2600.787554	773.050000
2602.221718	744.550000
2603.654028	738.100000
2605.087684	750.300000
2606.519487	729.200000
2607.951036	748.350000
2609.382332	734.950000
2610.811777	735.750000
2612.240969	723.300000
2613.668310	729.600000
2615.096998	735.850000
2616.525433	731.250000
2617.950422	743.450000
2619.376756	735.400000
2620.801243	741.200000
2622.227075	714.700000
2623.649463	724.800000
2625.073196	731.350000
2626.495084	716.100000
2627.916721	735.550000
2629.336514	728.350000
2630.757652	726.850000
2632.178540	718.650000
2633.595989	732.200000
2635.016378	721.900000
2636.433330	729.250000
2637.850034	718.350000
2639.266489	745.150000
2640.682696	733.250000
2642.098655	723.950000
2643.512773	712.750000
2644.926643	741.650000
2646.338674	707.200000
2647.752050	709.850000
2649.161996	718.250000
2650.574878	718.750000
2651.984331	721.250000
2653.393538	724.250000
2654.800909	712.500000
2656.211214	727.650000
2657.619683	714.800000
2659.026318	709.550000
2660.432707	708.300000
2661.837262	709.650000
2663.243161	717.600000
2664.647227	708.750000
2666.051048	716.050000
2667.454625	715.500000
2668.856371	722.050000
2670.259460	712.250000
2671.659131	705.200000
2673.060146	725.700000
2674.457745	719.300000
2675.858273	731.600000
2677.255387	698.650000
2678.653844	699.100000
2680.050474	726.800000
2681.446861	714.650000
2682.843006	704.300000
2684.237325	730.700000
2685.632987	732.650000
2687.025240	716.600000
2688.418835	707.650000
2689.810606	715.350000
2691.203720	709.050000
2692.595010	706.250000
2693.984477	713.250000
2695.373704	705.250000
2696.762692	700.900000
2698.153021	706.800000
2699.538367	713.300000
2700.926636	710.000000
2702.313085	710.500000
2703.699295	691.350000
2705.085266	697.350000
2706.467839	700.900000
2707.851754	708.550000
2709.235430	709.100000
2710.618869	700.900000
2711.998912	697.400000
2713.380297	703.300000
2714.759867	695.400000
2716.140777	721.300000
2717.519873	706.500000
2718.897155	693.950000
2720.275778	686.300000
2721.652587	696.450000
2723.029161	705.700000
2724.405499	703.200000
2725.780025	689.200000
2727.155892	703.250000
2728.528373	700.150000
2729.903769	701.150000
2731.274205	693.600000
2732.645981	718.300000
2734.017524	696.350000
2735.387258	685.350000
2736.758332	699.300000
2738.127599	697.500000
2739.496632	679.950000
2740.863859	698.500000
2742.230852	677.650000
2743.597613	703.900000
2744.964141	698.400000
2746.328865	702.000000
2747.693356	687.500000
2749.057616	695.250000
2750.421643	697.500000
2751.785438	679.350000
2753.145861	686.650000
2754.509193	681.300000
2755.867583	685.850000
2757.228883	663.450000
2758.586813	694.150000
2759.947651	679.050000
2761.306689	666.950000
2762.662360	668.750000
2764.020938	687.100000
2765.376149	673.050000
2766.731131	683.000000
2768.084316	666.050000
2769.440408	664.300000
2770.793136	674.500000
2772.145636	673.850000
2773.497907	673.450000
2774.851516	652.600000
2776.201765	684.750000
2777.550219	664.000000
2778.901578	658.750000
2780.249579	677.400000
2781.598917	662.150000
2782.946463	663.000000
2784.293783	670.400000
2785.640875	658.400000
2786.986177	663.800000
2788.331253	648.750000
2789.676103	659.500000
2791.020727	652.000000
2792.361999	678.500000
2793.704608	653.850000
2795.046993	671.600000
2796.389152	679.850000
2797.727962	653.350000
2799.069672	673.250000
2800.408033	647.000000
2801.747732	669.200000
2803.085646	654.950000
2804.421774	657.000000
2805.757680	673.900000
2807.094923	658.250000
2808.430382	646.550000
2809.765617	664.650000
2811.099071	666.650000
2812.433861	671.350000
2813.765311	659.200000
2815.099656	664.750000
2816.429102	667.400000
2817.759886	681.250000
2819.090449	666.600000
2820.419232	643.800000
2821.749351	651.650000
2823.077692	667.350000
2824.405812	659.800000
2825.732154	660.050000
2827.059832	644.100000
2828.384178	673.550000
2829.709860	650.150000
2831.033766	640.350000
2832.357452	653.400000
2833.682474	660.600000
2835.004167	661.100000
2836.325641	644.600000
2837.646895	654.950000
2838.967932	648.250000
2840.287195	644.000000
2841.607794	667.500000
2842.926621	663.250000
2844.245231	634.200000
2845.562069	644.150000
2846.878690	654.050000
2848.195094	635.750000
2849.509728	653.800000
2850.825697	640.600000
2852.138347	656.550000
2853.452331	638.500000
2854.766099	657.000000
2856.079650	662.150000
2857.391435	644.650000
2858.701453	650.400000
2860.012806	631.350000
2861.320844	640.250000
2862.630216	641.750000
2863.939373	636.150000
2865.248316	655.700000
2866.555494	651.750000
2867.860910	651.150000
2869.167659	669.000000
2870.472647	651.950000
2871.777420	640.300000
2873.080433	649.700000
2874.386326	648.250000
2875.687365	642.300000
2876.989737	645.450000
2878.290351	645.750000
2879.592297	656.550000
2880.894031	633.900000
2882.192461	633.100000
2883.492224	636.700000
2884.790230	626.400000
2886.088024	655.750000
2887.384062	618.900000
2888.681432	632.000000
2889.977048	630.900000
2891.272452	633.650000
2892.567645	631.100000
2893.859541	629.950000
2895.154312	647.400000
2896.445788	633.200000
2897.738596	622.000000
2899.031194	627.800000
2900.320497	631.250000
2901.611134	634.000000
2902.900019	626.600000
2904.190236	625.100000
2905.477162	644.450000
2906.765420	633.800000
2908.051929	640.050000
2909.338229	618.150000
2910.624321	631.550000
2911.908665	628.250000
2913.195881	644.300000
2914.478270	622.750000
2915.761991	613.800000
2917.043965	629.700000
2918.325733	615.050000
2919.605755	633.150000
2920.888648	633.100000
2922.169794	621.950000
2923.447659	624.350000
2924.728393	628.900000
2926.005847	617.950000
2927.283094	618.900000
2928.558599	618.350000
2929.836972	628.600000
2931.110531	606.700000
2932.386957	632.750000
2933.661642	625.650000
2934.934586	629.000000
2936.208862	618.850000
2937.481398	621.600000
2938.753729	619.650000
2940.022788	628.000000
2941.294712	601.150000
2942.564898	610.000000
2943.834880	617.150000
2945.104659	615.200000
2946.372702	622.100000
2947.639008	596.250000
2948.905112	588.100000
2950.172547	605.000000
2951.438246	591.300000
2952.703744	600.100000
2953.969039	596.400000
2955.231069	615.150000
2956.494429	607.550000
2957.757588	614.750000
2959.019015	612.200000
2960.281771	587.300000
2961.542795	614.650000
2962.802089	607.800000
2964.061182	596.100000
2965.320076	594.150000
2966.578769	612.050000
2967.837261	586.950000
2969.094025	601.850000
2970.350590	593.250000
2971.605426	597.550000
2972.861592	600.850000
2974.114503	590.800000
2975.368742	602.900000
2976.622783	589.300000
2977.875098	597.400000
2979.127215	595.450000
2980.377607	596.500000
2981.630854	597.000000
2982.879324	591.450000
2984.130649	594.150000
2985.378724	581.050000
2986.626602	588.250000
2987.874284	590.150000
2989.121768	578.200000
2990.367531	603.000000
2991.613098	585.600000
2992.859992	592.400000
2994.103642	588.150000
2995.348619	590.150000
2996.590354	582.800000
2997.834940	588.800000
2999.077807	582.800000
3000.317433	574.700000
3001.559909	585.650000
3002.799145	574.350000
3004.039709	576.650000
3005.278556	579.400000
3006.517209	574.950000
3007.754146	582.500000
3008.992411	555.500000
3010.228960	593.500000
3011.465316	569.150000
3012.701478	579.950000
3013.935926	578.800000
3015.170181	584.000000
3016.404244	586.050000
3017.636593	571.450000
3018.867231	570.350000
3020.100715	573.200000
3021.332488	574.950000
3022.562549	593.550000
3023.792419	566.000000
3025.020579	578.150000
3026.250066	569.050000
3027.477843	575.500000
3028.705429	568.950000
3029.934341	566.050000
3031.158511	575.450000
3032.385524	571.950000
3033.609314	564.800000
3034.834429	572.850000
3036.057839	574.700000
3037.281058	554.950000
3038.502572	552.750000
3039.726927	560.550000
3040.946547	552.600000
3042.167493	566.750000
3043.388249	558.200000
3044.607303	566.050000
3045.827681	550.650000
3047.044843	568.550000
3048.263330	552.700000
3049.480116	566.500000
3050.696713	566.600000
3051.913123	574.300000
3053.126319	555.500000
3054.342353	568.700000
3055.555175	569.400000
3056.770834	569.400000
3057.981771	546.550000
3059.194032	561.500000
3060.406106	547.050000
3061.617994	561.600000
3062.828185	561.150000
3064.038189	553.950000
3065.248007	564.400000
3066.456129	565.950000
3067.664066	553.850000
3068.870307	555.600000
3070.077873	563.550000
3071.283744	558.175000
3072.489430	552.800000
3073.694932	552.050000
3074.898740	549.450000
3076.103872	545.950000
3077.307311	565.150000
3078.509059	548.300000
3079.710622	547.000000
3080.912002	553.400000
3082.113198	560.800000
3083.312704	553.700000
3084.512027	552.150000
3085.712673	555.200000
3086.911629	541.950000
3088.107391	552.050000
3089.305981	540.150000
3090.501378	546.300000
3091.698099	539.700000
3092.891627	541.000000
3094.087983	547.200000
3095.282652	549.300000
3096.474131	539.600000
3097.669942	545.700000
3098.861058	545.500000
3100.053498	538.200000
3101.242749	543.700000
3102.434827	517.550000
3103.625221	531.900000
3104.812429	546.650000
3106.000959	529.950000
3107.190812	538.950000
3108.377480	525.000000
3109.563969	531.700000
3110.750279	517.950000
3111.937910	515.700000
3113.122359	522.750000
3114.305129	531.500000
3115.490721	529.950000
3116.674634	510.550000
3117.856867	535.450000
3119.038923	514.750000
3120.220800	523.100000
3121.402499	518.300000
3122.582521	521.200000
3123.760866	516.400000
3124.942031	518.600000
3126.120021	528.700000
3127.297834	517.600000
3128.475470	511.950000
3129.651431	519.300000
3130.827216	511.950000
3132.004321	529.700000
3133.179753	510.550000
3134.353511	516.650000
3135.525596	518.950000
3136.699003	537.200000
3137.872233	523.200000
3139.043792	529.150000
3140.216671	530.150000
3141.386383	506.250000
3142.557416	525.600000
3143.726778	510.450000
3144.894471	525.800000
3146.064979	514.450000
3147.230829	529.850000
3148.400987	511.450000
3149.566488	515.400000
3150.731816	517.600000
3151.896970	518.000000
3153.061951	520.600000
3154.228251	505.950000
3155.389898	502.800000
3156.552866	509.850000
3157.715661	495.550000
3158.878283	510.050000
3160.039239	484.600000
3161.200024	516.850000
3162.360636	511.650000
3163.519584	497.050000
3164.678361	504.100000
3165.836965	505.750000
3166.995398	503.350000
3168.153660	488.250000
3169.310259	490.900000
3170.465197	489.650000
3171.621454	485.150000
3172.776050	484.400000
3173.930476	493.350000
3175.083242	476.950000
3176.235837	494.250000
3177.388263	490.850000
3178.540518	493.200000
3179.692604	489.050000
3180.841543	485.300000
3181.993289	486.950000
3183.143378	470.600000
3184.291810	481.150000
3185.440072	480.650000
3186.588166	492.900000
3187.736091	484.000000
3188.882360	501.050000
3190.028461	505.050000
3191.172908	485.300000
3192.317187	505.100000
3193.461297	478.550000
3194.606726	493.350000
3195.749016	492.300000
3196.891139	489.900000
3198.033094	492.700000
3199.174882	474.900000
3200.316503	498.900000
3201.454989	478.050000
3202.594792	494.000000
3203.735912	477.050000
3204.873899	493.000000
3206.010235	483.950000
3207.146407	492.350000
3208.283895	494.950000
3209.419735	466.350000
3210.556892	484.900000
3211.689436	479.900000
3212.826261	472.150000
3213.958476	468.800000
3215.092007	487.950000
3216.225373	478.500000
3217.355613	486.650000
3218.488650	479.700000
3219.618561	457.850000
3220.749788	467.800000
3221.877891	468.950000
3223.008790	477.750000
3224.138045	474.000000
3225.265657	457.900000
3226.390146	474.850000
3227.518911	483.900000
3228.644554	467.250000
3229.770034	463.350000
3230.893873	461.250000
3232.020507	466.900000
3233.142543	453.150000
3234.265895	456.700000
3235.389085	464.350000
3236.512112	465.850000
3237.633501	466.900000
3238.754727	448.200000
3239.874315	480.450000
3240.993742	463.950000
3242.111532	459.050000
3243.232113	444.950000
3244.349581	466.050000
3245.466888	451.050000
3246.584035	450.650000
3247.699545	475.600000
3248.816371	461.900000
3249.930087	459.150000
3251.046592	456.500000
3252.161462	439.700000
3253.273224	461.950000
3254.384827	445.500000
3255.497745	460.950000
3256.610503	463.850000
3257.720155	468.300000
3258.831122	459.750000
3259.941930	443.250000
3261.051106	452.500000
3262.158651	456.800000
3263.267511	459.650000
3264.376212	462.600000
3265.481811	459.250000
3266.588725	466.950000
3267.694009	451.600000
3268.800607	447.800000
3269.904105	456.200000
3271.008917	443.200000
3272.113572	460.550000
3273.215129	445.550000
3274.316529	455.900000
3275.419243	448.200000
3276.521801	455.100000
3277.621262	452.700000
3278.723507	445.200000
3279.822656	437.550000
3280.920180	435.600000
3282.017550	441.100000
3283.117701	445.900000
3284.214760	455.000000
3285.311663	430.100000
3286.408411	441.950000
3287.500600	445.600000
3288.597039	432.500000
3289.691855	442.250000
3290.786517	444.200000
3291.879556	430.500000
3292.972442	425.250000
3294.063707	443.450000
3295.156285	435.400000
3296.247243	442.550000
3297.336581	432.050000
3298.425766	432.600000
3299.516263	446.750000
3300.603677	422.450000
3301.690937	429.600000
3302.779510	437.300000
3303.867930	419.850000
3304.951804	413.100000
3306.039919	450.400000
3307.124952	433.250000
3308.208370	421.800000
3309.293100	425.700000
3310.376214	428.650000
3311.460641	414.800000
3312.541989	426.200000
3313.624649	428.500000
3314.705694	435.500000
3315.786589	419.100000
3316.865871	422.300000
3317.945002	432.250000
3319.025445	427.100000
3320.102813	431.300000
3321.181493	426.200000
3322.258561	405.700000
3323.335479	440.800000
3324.410787	423.300000
3325.485945	414.000000
3326.562414	424.250000
3327.635813	434.000000
3328.709062	426.700000
3329.783623	416.600000
3330.856575	418.900000
3331.927918	424.000000
3333.000572	414.600000
3334.070159	412.600000
3335.141058	415.900000
3336.210349	412.300000
3337.280950	415.550000
3338.349946	415.000000
3339.417335	413.000000
3340.483119	398.500000
3341.553129	412.050000
3342.620076	403.000000
3343.683961	410.800000
3344.750613	396.950000
3345.815662	402.900000
3346.879107	404.700000
3347.942406	407.600000
3349.005558	396.100000
3350.068564	401.150000
3351.131424	407.100000
3352.192681	406.300000
3353.250882	411.050000
3354.313304	393.300000
3355.372670	394.700000
3356.431890	414.500000
3357.492419	399.200000
3358.548440	410.600000
3359.607224	398.000000
3360.661501	400.750000
3361.718542	421.100000
3362.773984	400.500000
3363.830736	413.550000
3364.885889	400.350000
3365.939445	404.600000
3366.991404	402.400000
3368.046126	403.900000
3369.097798	399.800000
3370.149327	407.800000
3371.202164	416.350000
3372.251954	398.700000
3373.303053	419.550000
3374.351105	411.600000
3375.401918	405.100000
3376.449685	402.600000
3377.497310	392.100000
3378.544793	398.500000
3379.590683	396.250000
3380.637881	392.900000
3381.682037	399.500000
3382.728951	390.400000
3383.774273	385.850000
3384.816554	408.600000
3385.858694	403.500000
3386.902143	394.500000
3387.945450	401.050000
3388.987167	391.700000
3390.028744	392.250000
3391.070179	408.650000
3392.110026	390.300000
3393.148284	387.900000
3394.187850	392.250000
3395.227276	392.200000
3396.265114	399.150000
3397.301365	394.150000
3398.337477	400.000000
3399.374895	382.850000
3400.409281	381.800000
3401.444975	392.300000
3402.480529	392.750000
3403.513052	383.800000
3404.548327	390.200000
3405.580573	382.050000
3406.612680	388.050000
3407.643203	382.000000
3408.675033	396.800000
3409.706725	390.250000
3410.735389	385.450000
3411.763916	394.800000
3412.793749	379.350000
3413.823445	389.900000
3414.850115	379.600000
3415.878091	390.450000
3416.903044	382.400000
3417.930746	384.500000
3418.955424	384.150000
3419.981409	385.000000
3421.005815	379.800000
3422.030084	377.000000
3423.052774	391.150000
3424.075328	383.700000
3425.099188	383.500000
3426.120028	381.900000
3427.140732	376.900000
3428.162742	375.700000
3429.181734	380.650000
3430.200591	366.000000
3431.220754	383.750000
3432.237900	377.300000
