-117.300111	6.700000
-114.630511	8.190000
-111.963846	11.760000
-109.297933	10.890000
-106.634952	13.420000
-103.970542	5.340000
-101.309062	13.850000
-98.646153	15.520000
-95.988350	14.370000
-93.329118	15.660000
-90.670634	13.440000
-88.015074	7.550000
-85.358086	8.420000
-82.706196	12.100000
-80.052875	13.010000
-77.402475	7.510000
-74.750645	14.540000
-72.103906	16.200000
-69.455738	14.040000
-66.808312	14.600000
-64.163800	15.370000
-61.517860	12.080000
-58.877001	11.620000
-56.234713	14.220000
-53.595334	13.120000
-50.954525	10.130000
-48.314457	15.320000
-45.679461	14.800000
-43.043037	18.330000
-40.409515	13.780000
-37.774565	16.140000
-35.144680	21.030000
-32.511203	13.910000
-29.882788	18.060000
-27.255107	24.530000
-24.625997	26.480000
-22.001944	23.190000
-19.374302	28.170000
-16.751713	36.630000
-14.129856	51.670000
-11.508729	79.100000
-8.888332	188.040000
-6.270824	578.440000
-3.651887	1829.220000
-1.035835	3738.410000
1.579488	4114.770000
4.194084	2394.710000
6.805797	267.050000
9.418939	52.610000
12.027047	28.220000
14.638737	32.510000
17.245396	22.340000
19.853483	24.750000
22.460846	24.660000
25.063184	26.900000
27.669100	16.140000
30.269994	14.850000
32.872316	15.850000
35.469621	15.360000
38.070501	12.340000
40.666366	23.200000
43.263660	17.360000
45.860234	17.360000
48.451799	17.450000
51.044792	15.560000
53.634924	21.560000
56.226484	13.580000
58.815184	17.570000
61.405311	20.140000
63.990439	21.280000
66.576995	21.770000
69.162837	16.070000
71.745825	21.490000
74.330239	23.090000
76.907525	19.240000
79.488377	18.110000
82.066380	19.450000
84.643673	19.230000
87.222392	22.000000
89.796129	21.990000
92.371294	24.390000
94.943615	21.710000
97.515228	25.640000
100.084001	21.660000
102.654201	24.430000
105.221563	35.650000
107.790350	35.450000
110.356301	34.720000
112.919417	43.540000
115.486089	48.970000
118.043540	69.330000
120.606676	79.420000
123.164852	110.410000
125.726583	166.090000
128.283357	236.000000
130.841558	353.460000
133.394805	527.440000
135.947355	756.940000
138.503455	967.710000
141.054607	1060.420000
143.605062	1149.180000
146.154819	1223.490000
148.701757	1275.110000
151.248000	1310.550000
153.795668	1335.520000
156.342640	1343.370000
158.884677	1334.550000
161.426020	1326.710000
163.966670	1336.220000
166.508746	1334.550000
169.048010	1337.080000
171.584466	1334.700000
174.120230	1340.630000
176.657420	1331.370000
179.193919	1334.210000
181.727612	1334.020000
184.258501	1332.180000
186.788703	1332.430000
189.320329	1339.340000
191.849154	1343.360000
194.375180	1333.680000
196.900520	1327.690000
199.427285	1328.780000
201.951254	1335.020000
204.474538	1333.700000
206.997137	1331.850000
209.516943	1326.180000
212.036066	1314.000000
214.554506	1319.330000
217.074370	1323.250000
219.587233	1326.100000
222.103627	1324.480000
224.619339	1330.380000
227.130161	1328.400000
229.642408	1337.630000
232.151873	1337.390000
234.660659	1330.780000
237.168766	1338.550000
239.678298	1330.140000
242.182949	1344.580000
244.686924	1337.930000
247.192323	1342.940000
249.692847	1345.260000
252.196895	1333.890000
254.693971	1341.310000
257.194571	1337.520000
259.692399	1343.180000
262.189554	1337.250000
264.686036	1353.530000
267.177655	1348.700000
269.672794	1352.330000
272.165166	1354.450000
274.656868	1363.430000
277.145807	1358.330000
279.636170	1351.400000
282.123770	1350.320000
284.608611	1359.020000
287.096967	1352.350000
289.578383	1351.750000
292.063313	1352.240000
294.543398	1361.920000
297.026995	1354.460000
299.505749	1361.570000
301.985927	1368.960000
304.463352	1372.710000
306.940114	1369.280000
309.416213	1382.940000
311.889563	1388.900000
314.362251	1405.420000
316.834278	1436.600000
319.305644	1475.940000
321.774265	1492.700000
324.242228	1491.330000
326.711612	1453.200000
329.176174	1428.480000
331.644240	1421.660000
334.107486	1403.880000
336.570074	1407.110000
339.032006	1398.740000
341.493281	1395.130000
343.951822	1399.100000
346.411785	1393.180000
348.869015	1388.080000
351.325591	1383.830000
353.781513	1382.040000
356.234705	1387.780000
358.689320	1381.520000
361.139133	1390.950000
363.592442	1382.370000
366.040953	1372.370000
368.488812	1380.230000
370.938094	1373.000000
373.382582	1380.170000
375.828492	1373.760000
378.273752	1370.180000
380.716294	1377.340000
383.158188	1384.050000
385.599435	1392.330000
388.037966	1390.490000
390.477919	1391.510000
392.915158	1394.630000
395.349685	1401.290000
397.787700	1402.940000
400.220938	1397.680000
402.655597	1391.760000
405.085484	1395.430000
407.518856	1394.610000
409.947458	1400.400000
412.375418	1396.840000
414.804800	1398.590000
417.229416	1407.800000
419.655454	1394.790000
422.080851	1395.870000
424.505608	1406.130000
426.925607	1405.170000
429.347027	1402.490000
431.765750	1404.330000
434.185894	1407.850000
436.603343	1405.500000
439.022212	1398.650000
441.438388	1411.120000
443.849816	1408.420000
446.264722	1399.070000
448.676937	1415.020000
451.088518	1401.800000
453.499465	1400.730000
455.907726	1394.120000
458.315354	1402.370000
460.722350	1402.700000
463.128715	1395.080000
465.532397	1394.740000
467.935449	1389.740000
470.337871	1384.450000
472.739663	1382.970000
475.138778	1381.670000
477.539312	1378.190000
479.939217	1375.550000
482.334399	1372.240000
484.733048	1374.950000
487.126977	1371.940000
489.520280	1368.000000
491.912957	1357.460000
494.305009	1355.640000
496.698479	1337.880000
499.087237	1335.770000
501.473329	1322.620000
503.860841	1315.870000
506.247730	1304.620000
508.631955	1300.130000
511.017598	1296.110000
513.400580	1285.700000
515.780901	1288.000000
518.162641	1285.740000
520.541722	1278.700000
522.922222	1276.580000
525.300064	1269.630000
527.675251	1271.820000
530.049820	1266.020000
532.425807	1274.150000
534.799142	1271.010000
537.173894	1271.870000
539.543961	1264.070000
541.913412	1279.670000
544.284281	1265.570000
546.650470	1263.450000
549.018077	1264.180000
551.383038	1259.280000
553.747386	1254.320000
556.111121	1258.700000
558.476274	1258.910000
560.836755	1249.900000
563.198654	1258.220000
565.557912	1254.090000
567.914533	1257.530000
570.274598	1254.580000
572.627972	1256.040000
574.984791	1256.470000
577.338975	1256.830000
579.692551	1262.270000
582.045518	1253.100000
584.395853	1252.510000
586.747606	1251.510000
589.092682	1253.900000
591.443222	1252.080000
593.787088	1252.330000
596.136416	1247.200000
598.481095	1245.370000
600.823150	1240.850000
603.166622	1251.280000
605.507471	1240.650000
607.847718	1242.890000
610.185344	1246.410000
612.526405	1235.210000
614.862828	1235.360000
617.200668	1218.570000
619.535891	1214.250000
621.868498	1220.870000
624.202521	1229.010000
626.533930	1227.830000
628.864741	1229.450000
631.194955	1224.800000
633.524570	1217.890000
635.849563	1221.870000
638.179996	1234.260000
640.505809	1234.970000
642.829014	1245.030000
645.153636	1249.370000
647.475652	1239.060000
649.797074	1242.640000
652.115894	1249.160000
654.436129	1243.250000
656.755771	1253.880000
659.072812	1250.910000
661.389261	1254.110000
663.703112	1258.830000
666.018379	1261.910000
668.331049	1270.430000
670.645134	1262.260000
672.954619	1269.980000
675.265520	1277.180000
677.573828	1261.330000
679.881548	1267.000000
682.190682	1265.700000
684.495224	1261.000000
686.799180	1252.410000
689.102550	1253.740000
691.407334	1249.470000
693.707532	1242.100000
696.009144	1241.140000
698.310172	1226.090000
700.606617	1228.080000
702.904478	1231.190000
705.201755	1218.800000
707.498449	1216.460000
709.790567	1209.840000
712.086096	1216.380000
714.377051	1231.400000
716.669421	1228.720000
718.959216	1224.090000
721.248430	1236.270000
723.537065	1231.260000
725.823127	1248.830000
728.110604	1251.800000
730.395509	1239.080000
732.679837	1249.590000
734.961596	1243.330000
737.244769	1246.920000
739.527365	1249.380000
741.805405	1253.120000
744.084860	1244.610000
746.363738	1252.510000
748.642042	1254.720000
750.915796	1249.070000
753.190963	1251.810000
755.465557	1257.520000
757.737592	1251.260000
760.011040	1254.440000
762.281930	1245.020000
764.550264	1252.990000
766.820011	1251.460000
769.087204	1247.040000
771.353826	1251.490000
773.619878	1249.890000
775.883379	1256.720000
778.148293	1247.140000
780.412637	1259.100000
782.672452	1248.370000
784.933679	1246.990000
787.194339	1242.730000
789.452453	1249.210000
791.708022	1246.480000
793.966982	1249.270000
796.219443	1249.580000
798.477270	1254.900000
800.730579	1255.610000
802.981348	1259.400000
805.233529	1261.130000
807.483171	1255.290000
809.734226	1251.140000
811.980769	1244.740000
814.228724	1237.480000
816.474145	1247.100000
818.720977	1241.650000
820.967248	1228.200000
823.209014	1233.000000
825.454164	1236.280000
827.692841	1241.520000
829.934900	1237.590000
832.172461	1244.900000
834.411434	1252.870000
836.647880	1240.080000
838.885737	1238.120000
841.121069	1234.140000
843.353878	1239.180000
845.588098	1231.760000
847.819795	1219.440000
850.050938	1221.370000
852.281526	1207.820000
854.511560	1208.580000
856.741040	1203.340000
858.966038	1213.270000
861.194411	1194.610000
863.418304	1199.700000
865.643609	1193.860000
867.864438	1190.320000
870.088639	1189.880000
872.308367	1181.050000
874.529505	1181.470000
876.750094	1182.930000
878.968172	1186.890000
881.187660	1184.770000
883.402682	1185.390000
885.617157	1195.440000
887.831083	1192.220000
890.044463	1185.400000
892.257295	1190.880000
894.469581	1193.670000
896.679364	1199.900000
898.888602	1200.700000
901.097295	1202.160000
903.303489	1205.370000
905.511092	1206.130000
907.716197	1207.240000
909.920759	1211.250000
912.122826	1229.190000
914.326302	1220.070000
916.527284	1227.680000
918.727724	1228.780000
920.929573	1239.280000
923.125031	1236.270000
925.323848	1242.220000
927.518226	1233.960000
929.715962	1232.590000
931.909262	1227.660000
934.103971	1234.480000
936.296194	1235.750000
938.487878	1239.240000
940.679025	1243.040000
942.867689	1249.440000
945.055817	1252.060000
947.241464	1244.690000
949.430463	1252.130000
951.615039	1256.040000
953.799080	1258.770000
955.986471	1262.490000
958.165558	1269.540000
960.347996	1276.990000
962.529900	1278.190000
964.709329	1290.080000
966.886286	1294.530000
969.064651	1307.440000
971.244423	1312.590000
973.417846	1316.050000
975.594615	1315.340000
977.766977	1317.790000
979.940747	1309.980000
982.110113	1303.830000
984.282823	1311.760000
986.453068	1303.430000
988.622784	1304.760000
990.791971	1310.060000
992.956761	1305.240000
995.124892	1319.240000
997.288629	1314.750000
999.453772	1309.470000
1001.616456	1318.260000
1003.778615	1317.930000
1005.938317	1332.240000
1008.097494	1329.590000
1010.258078	1331.520000
1012.416208	1331.530000
1014.573813	1329.580000
1016.730895	1334.340000
1018.887453	1331.270000
1021.039632	1341.630000
1023.193218	1334.400000
1025.346282	1347.170000
1027.496897	1342.110000
1029.648919	1345.040000
1031.796567	1347.750000
1033.947547	1347.140000
1036.094156	1338.450000
1038.240246	1340.970000
1040.385818	1342.390000
1042.532795	1342.850000
1044.673483	1339.530000
1046.817501	1332.140000
1048.959078	1339.000000
1051.100139	1341.390000
1053.242604	1347.210000
1055.378790	1343.380000
1057.518301	1346.230000
1059.653458	1335.580000
1061.791939	1347.650000
1063.926066	1347.070000
1066.059680	1345.460000
1068.194699	1340.520000
1070.325368	1345.220000
1072.457442	1348.510000
1074.587087	1345.560000
1076.716220	1347.310000
1078.844841	1343.060000
1080.972951	1337.760000
1083.098635	1336.850000
1085.223809	1340.870000
1087.350387	1349.930000
1089.472627	1342.250000
1091.596272	1345.200000
1093.715582	1339.760000
1095.840122	1338.390000
1097.958416	1341.650000
1100.078115	1334.150000
1102.195395	1337.990000
1104.312169	1326.380000
1106.428436	1349.820000
1108.542287	1339.850000
1110.657543	1336.550000
1112.768475	1336.780000
1114.882720	1332.360000
1116.992644	1324.690000
1119.103972	1335.600000
1121.214795	1322.280000
1123.321302	1336.640000
1125.431119	1333.350000
1127.536621	1336.750000
1129.643526	1336.980000
1131.744216	1331.180000
1133.850118	1340.450000
1135.951711	1340.090000
1138.054707	1349.930000
1140.157202	1339.040000
1142.253490	1341.880000
1144.354986	1351.020000
1146.452178	1348.050000
1148.548873	1343.430000
1150.645069	1343.490000
1152.740768	1346.200000
1154.835968	1347.420000
1156.928772	1356.180000
1159.022979	1355.840000
1161.110994	1363.540000
1163.204207	1360.020000
1165.291232	1364.150000
1167.381556	1362.420000
1169.467593	1359.860000
1171.556927	1363.910000
1173.640080	1366.960000
1175.724635	1369.820000
1177.810592	1367.860000
1179.892267	1363.960000
1181.975344	1371.080000
1184.056035	1368.430000
1186.136234	1360.740000
1188.215942	1359.350000
1190.295159	1373.700000
1192.371994	1366.550000
1194.446448	1372.600000
1196.524193	1369.030000
1198.597669	1372.980000
1200.672545	1372.290000
1202.743154	1371.940000
1204.815164	1383.560000
1206.884799	1385.210000
1208.955834	1386.840000
1211.026381	1390.780000
1213.092667	1400.220000
1215.160354	1399.130000
1217.225669	1403.480000
1219.292384	1401.410000
1221.354843	1413.200000
1223.420587	1403.560000
1225.482077	1412.600000
1227.544968	1417.470000
1229.605491	1416.330000
1231.665530	1422.370000
1233.725087	1427.790000
1235.782278	1439.640000
1237.838988	1442.030000
1239.893334	1449.160000
1241.950962	1442.290000
1244.006227	1457.300000
1246.057251	1452.130000
1248.109675	1458.700000
1250.161619	1470.480000
1252.211205	1462.710000
1254.260312	1462.020000
1256.308941	1454.070000
1258.357091	1468.530000
1260.404762	1465.400000
1262.448203	1461.600000
1264.494920	1462.960000
1266.539283	1468.870000
1268.583170	1466.170000
1270.624705	1475.290000
1272.663891	1464.440000
1274.706350	1490.750000
1276.744586	1496.260000
1278.784221	1497.360000
1280.823381	1496.100000
1282.858322	1509.860000
1284.894662	1515.680000
1286.928658	1518.490000
1288.964051	1520.280000
1290.995232	1531.550000
1293.027810	1531.260000
1295.059917	1545.920000
1297.089683	1555.510000
1299.120847	1552.740000
1301.147803	1566.360000
1303.176157	1556.060000
1305.200307	1571.710000
1307.227721	1572.330000
1309.250933	1589.540000
1311.275543	1585.610000
1313.297819	1587.380000
1315.321492	1587.270000
1317.342832	1587.300000
1319.363704	1600.620000
1321.384109	1597.180000
1323.400321	1610.280000
1325.417930	1591.760000
1327.433211	1612.220000
1329.451751	1621.910000
1331.466102	1617.230000
1333.478127	1632.570000
1335.493409	1631.750000
1337.504506	1645.960000
1339.517000	1641.780000
1341.525311	1661.590000
1343.536877	1643.660000
1345.542405	1645.830000
1347.551188	1635.930000
1349.555793	1637.180000
1351.563652	1632.390000
1353.571049	1642.190000
1355.572415	1613.420000
1357.575177	1608.720000
1359.577480	1599.330000
1361.579323	1573.760000
1363.580706	1575.620000
1365.579776	1564.660000
1367.578387	1546.780000
1369.576540	1548.590000
1371.574234	1530.000000
1373.567766	1527.200000
1375.562694	1512.170000
1377.557164	1514.700000
1379.551178	1513.800000
1381.542885	1510.900000
1383.534137	1510.530000
1385.523083	1520.350000
1387.513424	1506.440000
1389.503310	1506.120000
1391.490892	1512.120000
1393.478021	1510.670000
1395.462848	1513.160000
1397.449070	1508.270000
1399.432992	1498.040000
1401.416461	1507.880000
1403.399477	1514.460000
1405.380196	1507.870000
1407.362309	1507.260000
1409.342126	1503.420000
1411.321491	1498.580000
1413.296718	1503.840000
1415.275183	1499.260000
1417.251355	1496.170000
1419.227078	1501.760000
1421.202351	1495.170000
1423.175333	1508.480000
1425.147867	1506.460000
1427.119953	1499.110000
1429.091592	1512.840000
1431.059102	1500.600000
1433.031686	1506.800000
1434.996465	1506.570000
1436.966315	1508.920000
1438.932042	1503.540000
1440.899161	1499.940000
1442.863997	1488.730000
1444.824713	1496.750000
1446.790497	1500.750000
1448.750326	1502.160000
1450.711549	1507.340000
1452.674164	1501.450000
1454.632664	1500.750000
1456.590721	1500.250000
1458.548337	1491.920000
1460.505510	1497.480000
1462.460408	1499.360000
1464.416699	1499.460000
1466.370715	1492.790000
1468.324290	1485.410000
1470.275593	1485.340000
1472.228289	1481.250000
1474.178712	1481.640000
1476.128697	1486.460000
1478.078243	1482.650000
1480.025520	1482.910000
1481.970529	1473.980000
1483.916931	1484.620000
1485.862895	1479.050000
1487.808422	1488.020000
1489.751683	1475.570000
1491.694509	1483.200000
1493.635071	1468.750000
1495.577024	1473.070000
1497.516715	1481.710000
1499.455972	1475.000000
1501.394793	1481.110000
1503.331355	1487.300000
1505.269308	1502.550000
1507.205002	1505.390000
1509.140263	1513.110000
1511.073268	1519.100000
1513.005840	1531.360000
1514.937980	1544.330000
1516.869688	1553.290000
1518.799142	1559.370000
1520.729987	1573.160000
1522.660400	1573.760000
1524.586741	1587.620000
1526.514473	1602.180000
1528.439954	1606.580000
1530.365006	1616.190000
1532.289629	1641.030000
1534.213823	1645.300000
1536.135769	1661.910000
1538.059106	1674.090000
1539.980196	1713.450000
1541.899043	1740.600000
1543.819278	1780.960000
1545.737271	1815.140000
1547.654837	1870.190000
1549.570161	1951.170000
1551.486875	2009.350000
1553.399534	2097.100000
1555.315397	2197.590000
1557.229020	2318.510000
1559.140406	2436.410000
1561.053180	2529.940000
1562.961905	2617.710000
1564.872019	2695.680000
1566.781710	2698.650000
1568.690978	2714.790000
1570.598012	2668.780000
1572.502813	2620.920000
1574.409003	2550.390000
1576.312961	2458.310000
1578.216498	2363.000000
1580.119615	2253.170000
1582.020502	2181.290000
1583.922778	2071.760000
1585.822826	1998.570000
1587.724261	1946.620000
1589.621663	1875.890000
1591.518646	1844.740000
1593.415211	1797.990000
1595.313164	1786.620000
1597.205282	1767.380000
1599.100593	1738.130000
1600.995487	1728.330000
1602.888159	1709.040000
1604.780414	1690.320000
1606.670450	1680.000000
1608.560070	1662.530000
1610.449275	1644.310000
1612.338065	1642.460000
1614.224637	1616.700000
1616.112597	1602.580000
1617.996540	1585.220000
1619.881870	1568.360000
1621.766787	1558.450000
1623.649490	1533.340000
1625.533580	1507.710000
1627.413658	1499.580000
1629.295124	1499.920000
1631.174379	1472.910000
1633.055020	1451.580000
1634.929857	1443.310000
1636.809675	1434.060000
1638.685489	1419.140000
1640.560892	1408.730000
1642.437681	1409.830000
1644.308674	1396.690000
1646.182848	1380.250000
1648.053023	1379.340000
1649.926380	1367.650000
1651.797533	1362.780000
1653.666484	1345.200000
1655.536820	1348.840000
1657.403164	1334.830000
1659.270893	1332.730000
1661.136423	1317.900000
1663.003339	1312.620000
1664.866266	1303.520000
1666.730578	1290.080000
1668.592694	1304.410000
1670.454405	1284.370000
1672.317502	1289.000000
1674.178403	1285.290000
1676.037112	1273.210000
1677.895417	1269.240000
1679.755107	1273.260000
1681.609029	1268.150000
1683.466125	1272.690000
1685.322818	1271.500000
1687.175534	1258.040000
1689.031422	1254.820000
1690.883336	1257.320000
1692.734849	1248.920000
1694.585961	1244.900000
1696.436673	1235.160000
1698.286984	1242.190000
1700.135110	1236.800000
1701.984621	1224.860000
1703.828383	1225.860000
1705.677094	1236.350000
1707.520059	1224.330000
1709.366191	1237.370000
1711.208360	1229.500000
1713.053695	1240.120000
1714.893289	1233.910000
1716.734267	1229.420000
1718.576628	1242.190000
1720.415033	1235.510000
1722.254821	1231.550000
1724.092434	1232.470000
1725.929651	1225.830000
1727.764695	1225.410000
1729.601122	1225.600000
1731.435377	1219.060000
1733.269237	1221.030000
1735.102703	1227.960000
1736.932224	1214.790000
1738.764903	1208.330000
1740.593638	1211.870000
1742.425530	1208.300000
1744.253480	1213.540000
1746.081039	1202.830000
1747.908205	1205.860000
1749.734980	1203.210000
1751.561363	1193.060000
1753.383810	1208.270000
1755.209412	1206.890000
1757.031079	1207.560000
1758.854128	1206.380000
1760.675015	1202.400000
1762.495514	1207.380000
1764.317394	1211.120000
1766.133574	1215.350000
1767.952906	1203.200000
1769.768311	1199.960000
1771.586866	1207.610000
1773.401496	1207.370000
1775.215739	1208.780000
1777.029596	1203.760000
1778.843066	1206.020000
1780.654383	1204.200000
1782.467080	1201.610000
1784.279392	1212.340000
1786.087786	1202.960000
1787.897560	1205.830000
1789.703420	1197.570000
1791.512425	1207.600000
1793.317517	1203.630000
1795.123990	1201.810000
1796.930079	1200.660000
1798.732257	1209.320000
1800.537580	1203.250000
1802.338994	1207.150000
1804.141788	1216.800000
1805.940676	1200.920000
1807.740945	1209.720000
1809.540832	1208.030000
1811.338577	1205.440000
1813.135942	1201.340000
1814.932927	1197.160000
1816.729531	1193.600000
1818.523996	1196.790000
1820.319840	1192.030000
1822.110029	1191.330000
1823.905115	1196.470000
1825.694549	1188.340000
1827.487119	1190.770000
1829.277554	1187.930000
1831.065855	1187.910000
1832.857291	1196.860000
1834.643081	1185.410000
1836.430251	1181.160000
1838.215289	1186.820000
1840.003461	1184.260000
1841.787747	1182.540000
1843.569903	1185.980000
1845.353439	1173.460000
1847.134846	1185.250000
1848.917632	1186.100000
1850.696537	1190.360000
1852.476822	1188.230000
1854.254980	1194.710000
1856.034517	1179.630000
1857.811929	1189.730000
1859.587217	1192.720000
1861.363883	1196.870000
1863.138427	1197.530000
1864.914349	1188.410000
1866.684650	1189.370000
1868.458079	1193.500000
1870.229388	1190.740000
1872.000326	1189.230000
1873.772642	1193.650000
1875.539344	1195.150000
1877.309172	1187.750000
1879.075136	1187.050000
1880.844223	1189.090000
1882.609449	1182.880000
1884.374307	1186.430000
1886.140542	1181.090000
1887.902918	1193.530000
1889.664927	1196.640000
1891.426568	1183.170000
1893.187843	1188.690000
1894.948750	1194.940000
1896.709291	1190.840000
1898.467722	1194.300000
1900.225787	1184.100000
1901.981745	1181.690000
1903.739079	1181.970000
1905.496048	1180.970000
1907.250910	1185.970000
1909.003668	1180.860000
1910.756061	1171.360000
1912.509831	1170.300000
1914.261497	1168.150000
1916.011061	1170.970000
1917.762000	1165.040000
1919.512577	1170.570000
1921.259314	1170.190000
1923.007428	1170.570000
1924.753442	1170.340000
1926.500831	1171.160000
1928.246123	1176.710000
1929.989317	1172.710000
1931.733886	1169.820000
1933.476360	1173.390000
1935.218473	1171.590000
1936.960226	1169.880000
1938.701619	1172.580000
1940.440919	1169.900000
1942.179860	1171.270000
1943.918442	1163.760000
1945.654933	1174.020000
1947.391066	1171.505000
1949.128573	1168.990000
1950.862258	1169.900000
1952.597318	1163.290000
1954.330289	1170.960000
1956.062904	1175.780000
1957.795163	1165.010000
1959.527065	1175.880000
1961.256881	1181.440000
1962.984612	1176.930000
1964.713718	1181.780000
1966.442469	1175.520000
1968.169136	1167.560000
1969.895449	1172.740000
1971.623135	1180.770000
1973.345285	1172.040000
1975.070536	1175.430000
1976.791980	1178.950000
1978.516525	1175.340000
1980.238989	1181.910000
1981.957651	1183.950000
1983.679411	1177.440000
1985.397369	1174.300000
1987.116700	1174.970000
1988.832232	1180.130000
1990.552584	1175.830000
1992.269138	1185.040000
1993.981895	1174.040000
1995.697748	1180.530000
1997.411529	1175.580000
1999.124960	1178.410000
2000.836320	1178.040000
2002.549052	1180.330000
2004.257994	1167.080000
2005.970028	1176.160000
2007.676554	1169.700000
2009.386171	1164.120000
2011.093722	1174.560000
2012.800924	1169.320000
2014.506061	1165.180000
2016.210852	1167.210000
2017.917014	1160.760000
2019.619394	1166.610000
2021.323145	1160.080000
2023.024834	1160.180000
2024.726178	1156.860000
2026.427176	1157.400000
2028.126113	1157.850000
2029.826422	1157.660000
2031.522956	1158.330000
2033.220861	1154.130000
2034.916707	1155.860000
2036.615639	1159.800000
2038.309085	1171.090000
2040.003902	1166.220000
2041.698377	1156.690000
2043.389083	1160.170000
2045.082873	1164.350000
2046.772896	1169.870000
2048.464290	1167.580000
2050.153631	1170.990000
2051.844342	1158.240000
2053.531290	1162.820000
2055.217899	1156.080000
2056.905877	1160.260000
2058.590096	1158.250000
2060.275686	1156.850000
2061.960936	1148.970000
2063.644137	1145.710000
2065.328709	1149.050000
2067.007818	1151.910000
2068.691712	1155.330000
2070.370145	1145.910000
2072.051656	1146.680000
2073.729415	1147.080000
2075.406838	1153.640000
2077.085630	1149.250000
2078.762380	1145.570000
2080.437088	1152.390000
2082.113165	1143.230000
2083.787202	1148.850000
2085.460903	1147.910000
2087.134269	1151.990000
2088.805596	1147.890000
2090.476590	1147.550000
2092.147248	1160.430000
2093.817573	1151.810000
2095.487564	1156.990000
2097.155519	1156.500000
2098.823141	1165.510000
2100.488728	1154.850000
2102.155684	1161.180000
2103.820607	1157.990000
2105.485198	1165.620000
2107.147757	1166.930000
2108.811684	1169.910000
2110.473580	1164.680000
2112.135146	1169.950000
2113.796380	1164.720000
2115.455586	1166.790000
2117.114461	1167.980000
2118.773007	1171.560000
2120.431223	1170.730000
2122.085715	1167.940000
2123.743272	1170.910000
2125.400500	1167.420000
2127.054006	1163.670000
2128.708880	1159.060000
2130.360035	1162.090000
2132.014253	1154.920000
2133.664754	1160.200000
2135.316621	1154.640000
2136.963080	1156.610000
2138.614294	1155.920000
2140.261794	1160.070000
2141.910661	1158.270000
2143.557509	1160.020000
2145.204032	1159.720000
2146.850229	1154.410000
2148.492718	1150.860000
2150.138265	1159.140000
2151.780105	1152.910000
2153.425002	1149.940000
2155.066194	1155.660000
2156.707062	1155.410000
2158.347606	1150.200000
2159.986138	1144.600000
2161.626036	1144.470000
2163.262234	1142.700000
2164.899798	1142.510000
2166.537040	1136.300000
2168.172272	1140.990000
2169.807183	1144.070000
2171.441771	1149.650000
2173.076039	1141.140000
2174.706613	1143.640000
2176.340239	1148.440000
2177.970173	1146.860000
2179.601472	1141.410000
2181.230766	1143.630000
2182.859741	1149.890000
2184.488396	1146.360000
2186.116732	1151.890000
2187.743066	1158.280000
2189.369081	1147.810000
2190.993094	1145.460000
2192.618473	1139.810000
2194.241851	1141.720000
2195.866594	1142.990000
2197.487656	1138.780000
2199.108401	1140.370000
2200.730511	1131.770000
2202.350623	1133.600000
2203.968738	1138.370000
2205.586538	1135.870000
2207.204023	1132.770000
2208.821192	1142.660000
2210.438046	1137.730000
2212.054584	1135.680000
2213.669130	1142.480000
2215.281683	1148.780000
2216.895600	1144.610000
2218.507526	1136.180000
2220.120815	1132.090000
2221.732114	1131.290000
2223.341423	1121.890000
2224.952096	1131.920000
2226.560780	1125.770000
2228.169151	1128.640000
2229.775536	1126.110000
2231.383284	1128.000000
2232.989045	1131.670000
2234.594495	1135.400000
2236.197960	1138.300000
2237.802788	1143.130000
2239.405632	1136.720000
2241.006493	1146.430000
2242.608717	1150.530000
2244.208959	1145.320000
2245.810563	1152.740000
2247.408514	1157.320000
2249.007828	1154.620000
2250.605162	1152.120000
2252.202188	1151.490000
2253.800576	1148.910000
2255.395315	1145.410000
2256.988077	1150.290000
2258.582202	1142.550000
2260.177688	1150.400000
2261.769529	1148.120000
2263.361064	1144.700000
2264.953961	1140.230000
2266.541548	1150.460000
2268.133831	1139.390000
2269.720808	1143.300000
2271.310812	1139.660000
2272.895512	1148.450000
2274.484906	1146.100000
2276.068998	1145.740000
2277.654450	1144.800000
2279.237934	1144.330000
2280.824443	1134.090000
2282.407319	1141.160000
2283.989892	1139.420000
2285.572161	1144.230000
2287.150800	1154.390000
2288.732464	1150.620000
2290.310499	1143.310000
2291.891557	1152.870000
2293.468988	1143.155000
2295.044456	1133.440000
2296.622946	1130.690000
2298.197812	1133.620000
2299.772377	1128.190000
2301.346642	1130.710000
2302.920606	1127.490000
2304.494269	1127.940000
2306.067633	1127.280000
2307.637378	1129.230000
2309.206824	1130.240000
2310.779288	1129.170000
2312.346478	1128.830000
2313.916686	1135.660000
2315.483279	1130.990000
2317.051232	1132.850000
2318.617229	1134.190000
2320.182929	1127.330000
2321.748331	1134.730000
2323.311780	1136.310000
2324.876588	1143.540000
2326.437788	1154.850000
2328.002002	1159.160000
2329.560954	1163.400000
2331.122921	1167.740000
2332.682936	1148.250000
2334.242657	1128.370000
2335.800428	1129.350000
2337.357904	1132.830000
2338.915086	1129.760000
2340.470320	1126.750000
2342.025261	1136.390000
2343.579907	1134.300000
2345.134260	1135.740000
2346.688320	1128.560000
2348.242085	1127.690000
2349.793907	1115.520000
2351.343785	1129.230000
2352.896671	1128.830000
2354.444315	1128.670000
2355.994966	1128.100000
2357.542026	1128.650000
2359.090444	1126.430000
2360.638571	1129.190000
2362.183109	1137.530000
2363.729005	1140.830000
2365.272963	1136.250000
2366.818278	1135.640000
2368.360008	1142.350000
2369.903095	1138.100000
2371.444246	1143.500000
2372.985108	1142.140000
2374.525681	1141.860000
2376.065965	1141.650000
2377.605960	1138.560000
2379.142377	1144.260000
2380.681795	1148.410000
2382.217636	1158.960000
2383.754833	1142.620000
2385.288455	1149.700000
2386.825077	1148.060000
2388.359769	1144.180000
2389.892531	1149.650000
2391.425006	1147.270000
2392.955553	1148.040000
2394.489098	1148.780000
2396.017432	1155.560000
2397.547123	1152.210000
2399.076527	1157.080000
2400.605647	1149.280000
2402.134482	1160.440000
2403.658111	1164.200000
2405.186376	1166.920000
2406.709439	1164.720000
2408.237135	1179.680000
2409.757992	1167.960000
2411.283482	1183.240000
2412.805411	1183.290000
2414.328696	1195.020000
2415.850059	1184.770000
2417.369503	1185.640000
2418.890302	1201.060000
2420.409183	1190.840000
2421.927781	1205.350000
2423.444462	1190.650000
2424.962497	1205.780000
2426.480251	1198.640000
2427.994454	1205.180000
2429.508376	1195.170000
2431.022018	1197.200000
2432.537015	1195.340000
2434.048463	1201.230000
2435.561266	1203.910000
2437.072155	1206.550000
2438.582766	1203.820000
2440.091465	1198.830000
2441.603150	1200.780000
2443.111292	1205.970000
2444.619156	1198.580000
2446.126742	1192.400000
2447.630787	1196.220000
2449.137817	1192.080000
2450.642940	1197.250000
2452.147784	1200.110000
2453.650722	1181.870000
2455.153384	1185.400000
2456.655769	1176.650000
2458.156249	1177.910000
2459.658082	1170.390000
2461.158010	1174.520000
2462.657663	1166.410000
2464.157041	1172.550000
2465.654516	1175.620000
2467.150089	1174.510000
2468.648642	1178.310000
2470.143667	1175.700000
2471.640044	1172.450000
2473.132895	1171.870000
2474.627099	1181.010000
2476.121029	1180.420000
2477.611435	1178.350000
2479.104819	1180.710000
2480.596305	1175.090000
2482.085894	1173.550000
2483.575211	1174.150000
2485.062632	1170.380000
2486.553029	1167.730000
2488.039908	1170.080000
2489.528138	1164.960000
2491.012851	1160.490000
2492.497295	1156.870000
2493.983089	1154.460000
2495.466992	1158.280000
2496.952245	1152.250000
2498.432365	1156.440000
2499.915458	1148.030000
2501.396660	1151.880000
2502.877593	1158.530000
2504.356637	1152.780000
2505.835412	1149.770000
2507.313919	1144.170000
2508.792158	1151.500000
2510.270128	1149.940000
2511.744593	1141.990000
2513.222028	1151.310000
2514.695959	1161.990000
2516.171240	1157.620000
2517.646254	1154.560000
2519.117768	1162.540000
2520.590631	1160.940000
2522.061612	1149.420000
2523.533943	1158.470000
2525.001160	1157.810000
2526.471344	1164.130000
2527.939647	1162.250000
2529.407685	1170.910000
2530.875458	1170.220000
2532.342966	1163.060000
2533.810209	1177.250000
2535.273960	1187.440000
2536.739061	1183.990000
2538.202285	1180.940000
2539.666859	1186.780000
2541.127943	1179.150000
2542.590377	1171.990000
2544.052548	1184.310000
2545.511233	1178.630000
2546.974490	1184.440000
2548.432650	1174.990000
2549.892159	1183.940000
2551.346574	1174.250000
2552.805560	1186.450000
2554.262674	1170.560000
2555.717917	1174.020000
2557.172898	1175.430000
2558.626011	1170.860000
2560.080472	1170.900000
2561.533063	1176.470000
2562.985395	1178.090000
2564.435860	1172.620000
2565.889280	1174.520000
2567.337618	1169.670000
2568.788912	1174.190000
2570.238339	1171.120000
2571.684294	1172.320000
2573.133204	1173.590000
2574.578644	1166.090000
2576.025431	1172.260000
2577.470356	1174.600000
2578.915022	1174.020000
2580.361036	1173.480000
2581.803584	1178.560000
2583.247479	1173.130000
2584.687909	1180.050000
2586.129686	1178.720000
2587.569604	1178.280000
2589.010869	1177.120000
2590.448672	1175.490000
2591.889425	1171.700000
2593.325116	1173.490000
2594.763756	1177.490000
2596.200538	1183.630000
2597.635465	1188.930000
2599.073339	1191.730000
2600.506156	1198.650000
2601.940320	1187.650000
2603.372630	1198.390000
2604.806286	1189.650000
2606.238089	1197.810000
2607.669638	1193.670000
2609.100935	1205.070000
2610.530379	1217.460000
2611.959571	1208.600000
2613.386913	1218.110000
2614.815600	1219.750000
2616.244036	1220.260000
2617.669024	1223.400000
2619.095359	1236.580000
2620.519845	1227.230000
2621.945677	1240.240000
2623.368065	1243.540000
2624.791799	1243.540000
2626.213686	1244.140000
2627.635324	1245.240000
2629.055116	1240.080000
2630.476254	1246.770000
2631.897142	1260.600000
2633.314592	1264.010000
2634.734981	1267.500000
2636.151933	1272.210000
2637.568636	1282.860000
2638.985091	1283.670000
2640.401298	1296.240000
2641.817257	1292.080000
2643.231375	1296.110000
2644.645245	1315.130000
2646.057277	1305.010000
2647.470652	1310.950000
2648.880598	1319.650000
2650.293480	1318.100000
2651.702933	1330.170000
2653.112140	1343.390000
2654.519511	1346.440000
2655.929816	1355.160000
2657.338286	1364.000000
2658.744920	1365.370000
2660.151309	1364.980000
2661.555864	1377.520000
2662.961763	1377.260000
2664.365829	1378.700000
2665.769650	1390.930000
2667.173227	1394.700000
2668.574973	1404.610000
2669.978062	1419.380000
2671.377733	1424.270000
2672.778748	1421.390000
2674.176347	1427.000000
2675.576876	1426.920000
2676.973989	1434.230000
2678.372446	1441.090000
2679.769076	1446.900000
2681.165463	1432.520000
2682.561608	1437.120000
2683.955928	1435.510000
2685.351589	1433.940000
2686.743842	1430.920000
2688.137437	1434.170000
2689.529208	1439.940000
2690.922322	1426.180000
2692.313612	1424.670000
2693.703079	1429.890000
2695.092306	1420.370000
2696.481294	1421.230000
2697.871623	1416.070000
2699.256969	1412.310000
2700.645238	1400.820000
2702.031687	1407.610000
2703.417897	1392.470000
2704.803868	1381.840000
2706.186441	1383.340000
2707.570356	1378.100000
2708.954033	1374.380000
2710.337471	1372.220000
2711.717515	1355.140000
2713.098899	1356.350000
2714.478469	1343.680000
2715.859379	1339.860000
2717.238475	1348.830000
2718.615757	1332.020000
2719.994380	1328.630000
2721.371190	1318.520000
2722.747763	1309.590000
2724.124101	1301.290000
2725.498628	1291.780000
2726.874495	1294.220000
2728.246975	1283.370000
2729.622371	1280.240000
2730.992807	1269.500000
2732.364584	1265.880000
2733.736126	1258.170000
2735.105860	1251.040000
2736.476935	1249.020000
2737.846201	1238.310000
2739.215234	1234.150000
2740.582461	1233.700000
2741.949455	1231.290000
2743.316215	1217.590000
2744.682744	1206.410000
2746.047467	1201.460000
2747.411958	1205.270000
2748.776218	1193.640000
2750.140245	1189.940000
2751.504041	1183.590000
2752.864463	1190.820000
2754.227795	1172.000000
2755.586185	1172.850000
2756.947485	1165.710000
2758.305415	1166.050000
2759.666253	1151.980000
2761.025292	1157.710000
2762.380962	1152.330000
2763.739540	1153.240000
2765.094751	1143.900000
2766.449733	1144.770000
2767.802919	1148.640000
2769.159011	1140.720000
2770.511738	1151.640000
2771.864238	1132.950000
2773.216509	1142.900000
2774.570119	1133.760000
2775.920367	1129.730000
2777.268821	1140.570000
2778.620181	1135.070000
2779.968181	1133.970000
2781.317519	1131.280000
2782.665066	1134.830000
2784.012385	1136.220000
2785.359478	1129.690000
2786.704780	1131.570000
2788.049855	1124.980000
2789.394705	1116.770000
2790.739329	1113.430000
2792.080601	1117.620000
2793.423211	1119.770000
2794.765595	1117.450000
2796.107754	1110.570000
2797.446564	1116.260000
2798.788274	1105.810000
2800.126636	1111.570000
2801.466334	1115.180000
2802.804248	1115.740000
2804.140377	1116.010000
2805.476282	1112.920000
2806.813525	1113.720000
2808.148984	1116.830000
2809.484220	1114.990000
2810.817673	1114.830000
2812.152463	1117.690000
2813.483913	1119.310000
2814.818258	1120.780000
2816.147705	1121.820000
2817.478489	1125.450000
2818.809051	1120.620000
2820.137834	1113.830000
2821.467953	1113.880000
2822.796294	1107.570000
2824.124414	1108.680000
2825.450756	1120.940000
2826.778435	1102.610000
2828.102780	1113.490000
2829.428462	1113.520000
2830.752368	1108.430000
2832.076055	1111.550000
2833.401077	1114.230000
2834.722769	1111.460000
2836.044243	1109.090000
2837.365498	1102.000000
2838.686534	1111.480000
2840.005797	1115.370000
2841.326396	1103.390000
2842.645224	1112.440000
2843.963833	1113.200000
2845.280671	1108.290000
2846.597292	1109.270000
2847.913696	1095.740000
2849.228330	1100.220000
2850.544300	1107.670000
2851.856949	1116.560000
2853.170933	1116.350000
2854.484701	1117.490000
2855.798252	1116.500000
2857.110037	1116.500000
2858.420055	1125.100000
2859.731408	1117.630000
2861.039446	1115.940000
2862.348818	1121.520000
2863.657976	1124.390000
2864.966918	1115.410000
2866.274096	1123.270000
2867.579512	1120.190000
2868.886262	1123.640000
2870.191249	1119.860000
2871.496023	1116.020000
2872.799035	1112.780000
2874.104928	1115.960000
2875.405967	1116.760000
2876.708340	1108.040000
2878.008953	1113.860000
2879.310900	1111.620000
2880.612633	1108.250000
2881.911063	1117.950000
2883.210826	1113.570000
2884.508832	1112.660000
2885.806626	1114.960000
2887.102664	1116.470000
2888.400035	1109.980000
2889.695650	1107.400000
2890.991054	1115.190000
2892.286247	1119.820000
2893.578143	1117.260000
2894.872915	1111.870000
2896.164390	1120.030000
2897.457198	1103.090000
2898.749796	1118.580000
2900.039100	1104.970000
2901.329736	1104.990000
2902.618621	1112.020000
2903.908838	1108.910000
2905.195764	1115.900000
2906.484022	1118.550000
2907.770531	1119.280000
2909.056832	1116.560000
2910.342924	1118.850000
2911.627268	1114.980000
2912.914483	1117.810000
2914.196872	1121.420000
2915.480593	1119.840000
2916.762568	1113.710000
2918.044335	1125.260000
2919.324358	1125.410000
2920.607250	1119.480000
2921.888397	1114.750000
2923.166262	1129.500000
2924.446996	1124.540000
2925.724449	1116.090000
2927.001696	1114.120000
2928.277201	1117.900000
2929.555574	1113.790000
2930.829133	1105.280000
2932.105559	1110.150000
2933.380244	1114.870000
2934.653188	1118.300000
2935.927464	1118.930000
2937.200000	1107.830000
2938.472331	1116.860000
2939.741390	1110.230000
2941.013314	1106.950000
2942.283500	1107.460000
2943.553482	1110.920000
2944.823261	1108.630000
2946.091304	1105.440000
2947.357610	1099.380000
2948.623715	1105.430000
2949.891149	1111.320000
2951.156849	1111.050000
2952.422346	1106.230000
2953.687641	1107.100000
2954.949671	1108.930000
2956.213031	1106.380000
2957.476190	1097.930000
2958.737617	1095.420000
2960.000373	1097.160000
2961.261397	1093.400000
2962.520691	1093.290000
2963.779785	1094.620000
2965.038678	1093.430000
2966.297371	1095.980000
2967.555864	1086.670000
2968.812628	1081.160000
2970.069192	1088.710000
2971.324029	1078.410000
2972.580194	1082.810000
2973.833105	1086.860000
2975.087345	1084.630000
2976.341386	1090.940000
2977.593701	1079.410000
2978.845817	1077.110000
2980.096209	1076.810000
2981.349456	1077.900000
2982.597926	1078.270000
2983.849251	1086.070000
2985.097326	1089.160000
2986.345205	1084.550000
2987.592886	1084.310000
2988.840370	1089.890000
2990.086133	1088.220000
2991.331700	1081.820000
2992.578594	1079.760000
2993.822244	1083.990000
2995.067222	1081.300000
2996.308956	1080.810000
2997.553542	1085.620000
2998.796409	1079.460000
3000.036035	1076.000000
3001.278511	1077.570000
3002.517747	1067.670000
3003.758311	1071.450000
3004.997159	1073.700000
3006.235811	1069.960000
3007.472749	1073.460000
3008.711013	1068.830000
3009.947562	1081.070000
3011.183918	1064.360000
3012.420080	1077.250000
3013.654528	1074.160000
3014.888784	1080.070000
3016.122846	1081.070000
3017.355196	1080.360000
3018.585834	1085.550000
3019.819318	1084.820000
3021.051090	1078.690000
3022.281152	1084.310000
3023.511022	1086.350000
3024.739182	1077.920000
3025.968668	1085.940000
3027.196445	1079.720000
3028.424031	1076.290000
3029.652944	1071.080000
3030.877114	1070.430000
3032.104127	1068.460000
3033.327916	1068.190000
3034.553032	1076.180000
3035.776441	1066.910000
3036.999660	1061.820000
3038.221174	1064.600000
3039.445529	1058.070000
3040.665149	1065.950000
3041.886095	1064.200000
3043.106852	1060.100000
3044.325905	1066.230000
3045.546283	1064.260000
3046.763445	1062.300000
3047.981933	1054.350000
3049.198718	1063.390000
3050.415316	1060.170000
3051.631725	1058.040000
3052.844922	1048.430000
3054.060956	1058.160000
3055.273778	1044.970000
3056.489437	1055.330000
3057.700373	1052.470000
3058.912634	1049.180000
3060.124709	1049.210000
3061.336596	1047.180000
3062.546787	1044.610000
3063.756791	1046.160000
3064.966609	1045.260000
3066.174731	1047.930000
3067.382668	1041.990000
3068.588909	1043.570000
3069.796475	1040.090000
3071.002346	1043.685000
3072.208033	1047.280000
3073.413534	1052.710000
3074.617342	1052.000000
3075.822474	1046.740000
3077.025913	1056.610000
3078.227661	1055.880000
3079.429224	1057.320000
3080.630604	1056.500000
3081.831800	1049.330000
3083.031306	1054.890000
3084.230629	1056.490000
3085.431275	1056.980000
3086.630231	1051.840000
3087.825993	1054.840000
3089.024584	1049.210000
3090.219981	1050.580000
3091.416701	1051.260000
3092.610229	1048.170000
3093.806585	1052.890000
3095.001255	1049.720000
3096.192734	1047.840000
3097.388544	1050.210000
3098.579661	1047.170000
3099.772100	1051.430000
3100.961352	1038.810000
3102.153429	1044.270000
3103.343823	1039.560000
3104.531031	1050.970000
3105.719562	1049.600000
3106.909414	1041.780000
3108.096083	1040.810000
3109.282571	1045.400000
3110.468881	1042.990000
3111.656512	1041.480000
3112.840961	1053.330000
3114.023731	1044.440000
3115.209323	1033.070000
3116.393236	1032.490000
3117.575470	1035.220000
3118.757525	1030.350000
3119.939402	1025.130000
3121.121101	1037.010000
3122.301123	1028.270000
3123.479468	1025.590000
3124.660633	1022.270000
3125.838624	1026.460000
3127.016437	1022.640000
3128.194073	1026.490000
3129.370034	1018.530000
3130.545818	1024.710000
3131.722924	1025.390000
3132.898355	1015.450000
3134.072113	1017.640000
3135.244198	1023.790000
3136.417605	1024.170000
3137.590835	1025.640000
3138.762394	1023.050000
3139.935273	1023.940000
3141.104985	1024.370000
3142.276018	1028.230000
3143.445381	1031.440000
3144.613073	1026.650000
3145.783581	1020.840000
3146.949431	1028.760000
3148.119589	1022.620000
3149.285091	1024.130000
3150.450418	1024.140000
3151.615572	1026.940000
3152.780553	1028.930000
3153.946853	1024.770000
3155.108501	1023.230000
3156.271468	1025.620000
3157.434263	1019.900000
3158.596885	1030.470000
3159.757842	1012.870000
3160.918626	1018.210000
3162.079238	1028.280000
3163.238186	1015.290000
3164.396963	1016.860000
3165.555568	1014.040000
3166.714000	1010.730000
3167.872262	1013.870000
3169.028861	1017.580000
3170.183799	1009.390000
3171.340056	1013.350000
3172.494652	1013.130000
3173.649078	1013.230000
3174.801844	1008.320000
3175.954439	1004.340000
3177.106865	1011.510000
3178.259121	1010.680000
3179.411206	1011.820000
3180.560146	1011.670000
3181.711892	1011.520000
3182.861980	1008.790000
3184.010412	1007.030000
3185.158674	1004.770000
3186.306768	1015.820000
3187.454693	1008.790000
3188.600962	1019.190000
3189.747063	1020.910000
3190.891510	1018.570000
3192.035789	1020.380000
3193.179900	1018.720000
3194.325328	1012.380000
3195.467618	1020.750000
3196.609741	1021.240000
3197.751696	1016.540000
3198.893484	1011.460000
3200.035105	1021.800000
3201.173591	1024.290000
3202.313394	1022.970000
3203.454515	1016.960000
3204.592501	1023.470000
3205.728838	1022.880000
3206.865009	1021.150000
3208.002497	1017.750000
3209.138337	1025.450000
3210.275494	1024.430000
3211.408038	1013.280000
3212.544864	1026.120000
3213.677078	1010.850000
3214.810609	1011.410000
3215.943976	1009.210000
3217.074215	1003.710000
3218.207252	1002.640000
3219.337163	975.090000
3220.468390	999.880000
3221.596493	1003.080000
3222.727392	999.710000
3223.856647	1004.230000
3224.984259	1003.470000
3226.108748	995.750000
3227.237513	1001.800000
3228.363156	999.900000
3229.488637	1003.930000
3230.612476	1000.870000
3231.739109	1000.300000
3232.861145	1009.160000
3233.984497	1003.060000
3235.107687	994.000000
3236.230715	996.160000
3237.352103	992.590000
3238.473329	989.890000
3239.592918	994.770000
3240.712345	992.820000
3241.830134	992.460000
3242.950715	991.160000
3244.068183	997.920000
3245.185490	998.140000
3246.302637	987.860000
3247.418148	987.650000
3248.534973	990.430000
3249.648689	987.600000
3250.765194	988.820000
3251.880065	987.860000
3252.991827	985.830000
3254.103429	985.670000
3255.216347	974.190000
3256.329105	978.890000
3257.438757	978.030000
3258.549724	979.540000
3259.660532	979.440000
3260.769708	979.650000
3261.877254	984.350000
3262.986113	977.100000
3264.094815	984.690000
3265.200414	984.520000
3266.307327	983.950000
3267.412611	983.180000
3268.519209	981.720000
3269.622707	983.150000
3270.727520	991.680000
3271.832175	980.800000
3272.933731	969.970000
3274.035131	974.370000
3275.137845	983.110000
3276.240403	979.460000
3277.339864	971.590000
3278.442109	976.520000
3279.541258	975.230000
3280.638783	972.650000
3281.736152	971.260000
3282.836303	968.180000
3283.933362	965.990000
3285.030265	965.390000
3286.127013	962.390000
3287.219203	969.150000
3288.315641	963.120000
3289.410457	959.800000
3290.505119	957.290000
3291.598159	958.860000
3292.691044	964.980000
3293.782310	958.110000
3294.874887	957.680000
3295.965845	961.750000
3297.055183	956.780000
3298.144368	963.580000
3299.234866	960.030000
3300.322279	963.740000
3301.409539	965.480000
3302.498112	965.360000
3303.586533	960.910000
3304.670406	969.990000
3305.758521	963.500000
3306.843554	965.160000
3307.926972	951.500000
3309.011702	954.860000
3310.094817	956.810000
3311.179243	954.610000
3312.260591	961.470000
3313.343251	957.220000
3314.424297	956.000000
3315.505192	959.750000
3316.584473	960.640000
3317.663604	961.050000
3318.744047	956.920000
3319.821415	961.480000
3320.900095	965.650000
3321.977163	968.890000
3323.054082	973.200000
3324.129389	967.430000
3325.204547	965.900000
3326.281016	977.660000
3327.354415	955.950000
3328.427665	973.020000
3329.502225	967.220000
3330.575177	964.340000
3331.646520	969.370000
3332.719174	961.390000
3333.788762	968.050000
3334.859660	962.680000
3335.928951	958.350000
3336.999553	962.140000
3338.068548	959.170000
3339.135937	961.510000
3340.201721	957.620000
3341.271731	956.640000
3342.338678	951.270000
3343.402563	948.530000
3344.469216	958.680000
3345.534264	948.920000
3346.597709	957.300000
3347.661008	962.330000
3348.724160	962.690000
3349.787166	959.770000
3350.850026	959.300000
3351.911284	961.650000
3352.969485	959.040000
3354.031906	964.160000
3355.091272	955.790000
3356.150492	965.880000
3357.211022	961.150000
3358.267042	958.680000
3359.325826	966.460000
3360.380103	964.380000
3361.437144	957.570000
3362.492586	963.050000
3363.549338	961.300000
3364.604491	959.140000
3365.658047	956.500000
3366.710007	955.380000
3367.764728	952.260000
3368.816400	954.800000
3369.867929	946.370000
3370.920766	950.800000
3371.970556	952.530000
3373.021655	946.400000
3374.069708	949.190000
3375.120520	949.350000
3376.168288	945.250000
3377.215913	952.070000
3378.263395	945.500000
3379.309285	942.810000
3380.356483	938.670000
3381.400639	948.600000
3382.447553	938.300000
3383.492875	943.120000
3384.535156	943.190000
3385.577297	943.280000
3386.620745	949.540000
3387.664052	946.120000
3388.705770	939.510000
3389.747346	944.470000
3390.788781	946.240000
3391.828628	943.870000
3392.866886	937.350000
3393.906452	944.410000
3394.945878	944.130000
3395.983716	938.740000
3397.019967	942.270000
3398.056079	939.970000
3399.093498	943.450000
3400.127884	932.010000
3401.163577	940.090000
3402.199131	937.470000
3403.231654	937.780000
3404.266930	941.970000
3405.299175	931.210000
3406.331282	933.600000
3407.361805	934.350000
3408.393635	932.710000
3409.425327	930.340000
3410.453991	937.320000
3411.482518	939.570000
3412.512351	937.540000
3413.542047	942.920000
3414.568717	935.110000
3415.596694	935.260000
3416.621646	931.060000
3417.649348	938.560000
3418.674027	936.440000
3419.700012	937.560000
3420.724417	938.970000
3421.748686	929.510000
3422.771376	936.690000
3423.793930	933.820000
3424.817790	937.150000
3425.838630	934.590000
3426.859334	933.090000
3427.881345	934.280000
3428.900337	933.870000
3429.919193	928.800000
3430.939356	930.250000
3431.956502	937.760000
