-116.475622	116.650000
-113.806022	122.200000
-111.139357	128.850000
-108.473444	125.650000
-105.810463	130.450000
-103.146053	151.850000
-100.484573	112.550000
-97.821664	135.600000
-95.163861	130.650000
-92.504629	150.900000
-89.846145	129.400000
-87.190585	136.850000
-84.533597	127.200000
-81.881707	134.300000
-79.228387	138.550000
-76.577986	150.300000
-73.926156	129.100000
-71.279417	151.000000
-68.631249	145.650000
-65.983823	134.800000
-63.339311	137.800000
-60.693371	155.350000
-58.052512	148.350000
-55.410224	154.800000
-52.770845	132.850000
-50.130036	162.500000
-47.489968	133.350000
-44.854972	149.600000
-42.218548	147.800000
-39.585026	145.250000
-36.950076	152.400000
-34.320191	169.150000
-31.686714	167.400000
-29.058299	161.500000
-26.430618	176.900000
-23.801508	188.500000
-21.177455	186.700000
-18.549813	232.200000
-15.927224	247.600000
-13.305367	333.750000
-10.684240	473.250000
-8.063843	1105.300000
-5.446335	3309.500000
-2.827398	10452.400000
-0.211346	21737.950000
2.403977	20617.400000
5.018573	8600.300000
7.630286	906.050000
10.243428	292.750000
12.851536	243.050000
15.463226	208.000000
18.069885	209.000000
20.677972	202.100000
23.285335	200.550000
25.887673	190.050000
28.493589	195.800000
31.094483	179.550000
33.696805	174.500000
36.294110	186.000000
38.894990	190.300000
41.490855	181.500000
44.088149	187.150000
46.684723	205.850000
49.276288	188.500000
51.869281	214.250000
54.459413	201.050000
57.050973	201.650000
59.639673	222.800000
62.229800	206.500000
64.814928	218.700000
67.401484	204.650000
69.987326	226.150000
72.570314	227.950000
75.154728	233.050000
77.732014	213.950000
80.312866	230.350000
82.890869	226.350000
85.468162	259.000000
88.046881	245.500000
90.620618	266.250000
93.195783	245.900000
95.768104	278.550000
98.339717	301.300000
100.908490	297.650000
103.478690	314.750000
106.046052	325.400000
108.614839	381.700000
111.180790	421.300000
113.743906	476.550000
116.310578	593.750000
118.868029	728.150000
121.431165	980.750000
123.989341	1346.750000
126.551072	1895.750000
129.107846	2655.350000
131.666047	3518.750000
134.219294	3613.900000
136.771844	3785.500000
139.327944	3983.300000
141.879096	4236.450000
144.429551	4346.750000
146.979308	4478.300000
149.526246	4576.850000
152.072489	4644.050000
154.620157	4670.900000
157.167129	4689.750000
159.709166	4620.150000
162.250509	4610.700000
164.791159	4628.850000
167.333235	4628.600000
169.872499	4610.000000
172.408955	4610.300000
174.944719	4603.150000
177.481909	4610.700000
180.018408	4562.700000
182.552101	4580.750000
185.082990	4557.250000
187.613192	4606.850000
190.144818	4550.500000
192.673643	4566.450000
195.199669	4553.750000
197.725009	4574.450000
200.251774	4560.450000
202.775743	4562.500000
205.299027	4573.500000
207.821626	4557.200000
210.341432	4542.300000
212.860555	4536.200000
215.378995	4549.600000
217.898859	4543.000000
220.411722	4569.700000
222.928116	4570.650000
225.443828	4559.800000
227.954650	4544.850000
230.466897	4577.850000
232.976362	4587.100000
235.485148	4591.700000
237.993255	4602.100000
240.502787	4603.850000
243.007438	4590.450000
245.511413	4616.450000
248.016812	4638.400000
250.517336	4619.100000
253.021384	4633.650000
255.518460	4617.200000
258.019060	4644.050000
260.516888	4643.150000
263.014043	4653.850000
265.510525	4633.300000
268.002144	4666.700000
270.497283	4682.600000
272.989655	4689.000000
275.481357	4697.100000
277.970296	4703.150000
280.460659	4701.700000
282.948259	4693.950000
285.433100	4706.900000
287.921456	4711.300000
290.402872	4711.050000
292.887802	4721.750000
295.367887	4723.850000
297.851484	4712.150000
300.330238	4737.250000
302.810416	4761.650000
305.287841	4782.850000
307.764603	4768.000000
310.240702	4808.700000
312.714052	4851.750000
315.186740	4940.700000
317.658767	5107.750000
320.130133	5283.950000
322.598754	5387.650000
325.066717	5378.850000
327.536101	5192.800000
330.000663	5025.900000
332.468729	4938.450000
334.931975	4890.600000
337.394563	4916.550000
339.856495	4857.050000
342.317770	4868.200000
344.776311	4886.500000
347.236274	4878.350000
349.693504	4866.050000
352.150080	4854.500000
354.606002	4880.900000
357.059194	4842.600000
359.513809	4894.900000
361.963622	4868.250000
364.416931	4878.150000
366.865442	4873.300000
369.313301	4854.900000
371.762583	4876.550000
374.207071	4872.500000
376.652981	4853.850000
379.098241	4871.700000
381.540783	4869.250000
383.982677	4845.150000
386.423924	4862.700000
388.862455	4875.900000
391.302408	4837.050000
393.739647	4847.100000
396.174174	4878.100000
398.612189	4883.950000
401.045427	4868.100000
403.480086	4865.350000
405.909973	4874.300000
408.343345	4861.150000
410.771947	4887.350000
413.199907	4850.600000
415.629289	4861.550000
418.053905	4857.250000
420.479943	4885.700000
422.905340	4882.050000
425.330097	4909.500000
427.750096	4907.900000
430.171516	4913.450000
432.590239	4915.450000
435.010383	4891.350000
437.427832	4903.500000
439.846701	4927.700000
442.262877	4897.050000
444.674305	4917.300000
447.089211	4893.100000
449.501426	4893.200000
451.913007	4870.600000
454.323954	4887.100000
456.732215	4852.650000
459.139843	4875.850000
461.546839	4837.650000
463.953204	4828.700000
466.356886	4808.100000
468.759938	4762.100000
471.162360	4777.200000
473.564152	4770.400000
475.963267	4752.800000
478.363801	4771.650000
480.763706	4763.200000
483.158888	4762.700000
485.557537	4796.050000
487.951466	4792.250000
490.344769	4778.650000
492.737446	4776.050000
495.129498	4702.400000
497.522968	4673.300000
499.911726	4596.300000
502.297818	4546.650000
504.685330	4468.300000
507.072219	4422.300000
509.456444	4361.250000
511.842087	4319.550000
514.225069	4276.550000
516.605390	4253.550000
518.987130	4213.450000
521.366211	4212.450000
523.746711	4168.100000
526.124553	4157.900000
528.499740	4144.500000
530.874309	4126.150000
533.250296	4088.200000
535.623631	4098.400000
537.998383	4088.500000
540.368450	4075.450000
542.737901	4066.650000
545.108770	4082.300000
547.474959	4067.350000
549.842566	4055.350000
552.207527	4055.950000
554.571875	4038.550000
556.935610	4020.000000
559.300763	4031.400000
561.661244	4011.300000
564.023143	4021.050000
566.382401	4010.750000
568.739022	4004.400000
571.099087	3989.500000
573.452461	4001.200000
575.809280	3972.750000
578.163464	3974.950000
580.517039	3960.950000
582.870007	3968.350000
585.220342	3934.700000
587.572095	3961.300000
589.917171	3938.150000
592.267711	3962.650000
594.611577	3955.250000
596.960905	3971.700000
599.305584	3965.500000
601.647639	3959.500000
603.991111	3946.950000
606.331960	3936.800000
608.672207	3944.750000
611.009833	3942.450000
613.350894	3912.950000
615.687317	3921.350000
618.025157	3902.050000
620.360380	3901.300000
622.692987	3869.550000
625.027010	3882.850000
627.358419	3875.450000
629.689230	3875.350000
632.019444	3864.150000
634.349059	3874.200000
636.674051	3875.750000
639.004485	3870.350000
641.330298	3850.200000
643.653503	3861.350000
645.978125	3851.950000
648.300141	3848.450000
650.621563	3821.750000
652.940383	3821.050000
655.260618	3806.850000
657.580260	3829.500000
659.897301	3836.650000
662.213750	3823.200000
664.527601	3817.450000
666.842868	3813.000000
669.155538	3821.000000
671.469623	3791.150000
673.779108	3796.100000
676.090009	3816.200000
678.398317	3798.050000
680.706037	3796.400000
683.015171	3798.100000
685.319713	3771.450000
687.623669	3769.300000
689.927039	3768.100000
692.231823	3778.400000
694.532021	3749.500000
696.833633	3731.700000
699.134661	3761.250000
701.431106	3734.800000
703.728967	3757.100000
706.026244	3762.000000
708.322938	3750.950000
710.615056	3742.600000
712.910585	3723.750000
715.201540	3737.650000
717.493910	3735.950000
719.783705	3731.000000
722.072919	3724.900000
724.361554	3766.200000
726.647616	3761.800000
728.935093	3754.900000
731.219998	3772.400000
733.504326	3775.200000
735.786085	3757.600000
738.069258	3759.000000
740.351854	3770.700000
742.629894	3787.550000
744.909349	3798.700000
747.188227	3778.400000
749.466531	3788.350000
751.740285	3779.800000
754.015452	3805.500000
756.290046	3789.950000
758.562081	3801.050000
760.835529	3803.100000
763.106419	3803.750000
765.374753	3773.000000
767.644500	3797.950000
769.911693	3820.950000
772.178315	3810.150000
774.444367	3804.650000
776.707868	3812.200000
778.972782	3831.000000
781.237126	3841.300000
783.496941	3833.300000
785.758168	3844.800000
788.018828	3826.400000
790.276942	3848.800000
792.532511	3852.950000
794.791471	3854.600000
797.043932	3816.900000
799.301759	3835.500000
801.555068	3830.000000
803.805837	3824.100000
806.058018	3791.800000
808.307660	3803.550000
810.558715	3796.000000
812.805258	3815.200000
815.053213	3790.050000
817.298634	3807.550000
819.545466	3793.000000
821.791737	3777.950000
824.033503	3778.900000
826.278653	3766.650000
828.517330	3771.350000
830.759389	3763.550000
832.996950	3754.200000
835.235923	3735.600000
837.472369	3742.300000
839.710226	3735.100000
841.945558	3740.650000
844.178367	3763.100000
846.412587	3736.600000
848.644284	3736.250000
850.875427	3723.100000
853.106015	3724.900000
855.336049	3703.800000
857.565529	3721.050000
859.790527	3718.700000
862.018900	3712.500000
864.242793	3731.800000
866.468098	3713.750000
868.688927	3720.800000
870.913128	3733.700000
873.132856	3733.450000
875.353994	3728.750000
877.574582	3722.500000
879.792661	3757.150000
882.012149	3731.450000
884.227171	3728.250000
886.441645	3746.750000
888.655572	3738.700000
890.868952	3724.650000
893.081784	3727.700000
895.294070	3736.300000
897.503853	3725.500000
899.713091	3713.400000
901.921784	3717.100000
904.127978	3709.050000
906.335581	3729.050000
908.540686	3710.800000
910.745248	3704.300000
912.947315	3710.450000
915.150791	3713.050000
917.351773	3718.200000
919.552213	3721.600000
921.754062	3708.700000
923.949520	3719.150000
926.148337	3722.500000
928.342715	3727.900000
930.540451	3706.200000
932.733751	3734.650000
934.928460	3726.500000
937.120683	3744.350000
939.312367	3714.900000
941.503514	3744.150000
943.692178	3736.900000
945.880306	3760.750000
948.065953	3769.200000
950.254952	3761.200000
952.439528	3784.550000
954.623569	3808.350000
956.810960	3794.300000
958.990047	3803.850000
961.172485	3814.600000
963.354389	3828.850000
965.533818	3811.800000
967.710775	3844.050000
969.889140	3867.350000
972.068912	3867.250000
974.242335	3900.400000
976.419104	3882.400000
978.591466	3922.350000
980.765236	3921.550000
982.934602	3920.300000
985.107312	3931.950000
987.277557	3928.350000
989.447273	3973.950000
991.616460	3940.250000
993.781250	3955.750000
995.949381	3973.950000
998.113118	3979.500000
1000.278261	3990.900000
1002.440945	4013.150000
1004.603104	3991.600000
1006.762806	3992.600000
1008.921983	4011.750000
1011.082567	4046.950000
1013.240697	4025.750000
1015.398302	4052.050000
1017.555384	4044.200000
1019.711942	4050.450000
1021.864121	4056.050000
1024.017707	4071.450000
1026.170771	4060.300000
1028.321386	4076.150000
1030.473408	4094.900000
1032.621056	4102.200000
1034.772036	4134.400000
1036.918645	4110.550000
1039.064735	4138.200000
1041.210307	4139.300000
1043.357284	4146.100000
1045.497972	4150.550000
1047.641990	4150.450000
1049.783567	4193.700000
1051.924628	4181.700000
1054.067093	4204.100000
1056.203279	4183.700000
1058.342790	4186.850000
1060.477947	4194.850000
1062.616428	4191.100000
1064.750555	4193.350000
1066.884169	4217.000000
1069.019188	4183.000000
1071.149857	4185.350000
1073.281931	4182.450000
1075.411576	4174.500000
1077.540709	4150.850000
1079.669330	4141.700000
1081.797440	4103.150000
1083.923124	4117.850000
1086.048298	4079.100000
1088.174876	4087.700000
1090.297116	4068.450000
1092.420761	4075.450000
1094.540071	4059.050000
1096.664611	4038.200000
1098.782905	4024.050000
1100.902604	4027.050000
1103.019884	4005.600000
1105.136658	4004.450000
1107.252925	3970.750000
1109.366776	3985.500000
1111.482032	3965.800000
1113.592964	3978.150000
1115.707209	3936.500000
1117.817133	3944.700000
1119.928461	3933.350000
1122.039284	3945.700000
1124.145791	3933.100000
1126.255608	3922.150000
1128.361110	3922.550000
1130.468015	3905.800000
1132.568705	3908.800000
1134.674607	3927.350000
1136.776200	3887.800000
1138.879196	3906.650000
1140.981691	3879.850000
1143.077979	3889.150000
1145.179475	3877.700000
1147.276667	3897.100000
1149.373362	3900.600000
1151.469558	3886.400000
1153.565257	3885.800000
1155.660457	3877.000000
1157.753261	3869.450000
1159.847468	3877.800000
1161.935483	3853.000000
1164.028696	3852.300000
1166.115721	3865.500000
1168.206045	3856.200000
1170.292082	3830.600000
1172.381416	3859.400000
1174.464569	3872.650000
1176.549124	3878.300000
1178.635081	3862.750000
1180.716756	3872.700000
1182.799833	3855.400000
1184.880524	3862.350000
1186.960723	3854.000000
1189.040431	3862.950000
1191.119648	3856.450000
1193.196483	3832.050000
1195.270937	3847.450000
1197.348682	3849.000000
1199.422158	3853.900000
1201.497034	3860.900000
1203.567643	3848.650000
1205.639653	3865.100000
1207.709288	3841.100000
1209.780323	3841.550000
1211.850870	3832.300000
1213.917156	3835.100000
1215.984843	3820.400000
1218.050158	3829.800000
1220.116873	3819.150000
1222.179332	3821.600000
1224.245076	3813.450000
1226.306566	3815.050000
1228.369457	3802.900000
1230.429980	3814.400000
1232.490019	3830.600000
1234.549576	3830.750000
1236.606767	3833.900000
1238.663477	3824.550000
1240.717823	3828.200000
1242.775451	3834.550000
1244.830716	3814.050000
1246.881740	3831.650000
1248.934164	3818.650000
1250.986108	3820.500000
1253.035694	3826.300000
1255.084801	3821.200000
1257.133430	3826.800000
1259.181580	3856.000000
1261.229251	3856.050000
1263.272692	3861.100000
1265.319409	3844.250000
1267.363772	3841.400000
1269.407659	3852.150000
1271.449194	3872.800000
1273.488380	3812.500000
1275.530839	3868.950000
1277.569075	3882.850000
1279.608710	3890.050000
1281.647870	3884.200000
1283.682811	3901.650000
1285.719151	3907.850000
1287.753147	3937.850000
1289.788540	3941.100000
1291.819721	3948.750000
1293.852299	3957.100000
1295.884406	3996.350000
1297.914172	4003.750000
1299.945336	4028.550000
1301.972292	4049.900000
1304.000646	4087.700000
1306.024795	4124.250000
1308.052210	4144.400000
1310.075422	4173.150000
1312.100032	4213.650000
1314.122308	4229.050000
1316.145981	4279.950000
1318.167321	4294.100000
1320.188193	4352.100000
1322.208598	4384.450000
1324.224810	4443.350000
1326.242419	4438.650000
1328.257700	4489.700000
1330.276240	4535.600000
1332.290591	4577.750000
1334.302616	4556.550000
1336.317898	4573.800000
1338.328995	4587.050000
1340.341489	4546.050000
1342.349800	4566.200000
1344.361366	4548.150000
1346.366894	4498.950000
1348.375677	4481.350000
1350.380282	4438.400000
1352.388141	4388.200000
1354.395538	4367.250000
1356.396904	4313.100000
1358.399666	4265.150000
1360.401969	4233.400000
1362.403812	4179.050000
1364.405195	4150.950000
1366.404265	4109.900000
1368.402876	4100.950000
1370.401029	4039.650000
1372.398723	4017.050000
1374.392255	4006.350000
1376.387182	3995.500000
1378.381653	3953.150000
1380.375667	3952.300000
1382.367374	3923.500000
1384.358626	3932.900000
1386.347572	3915.900000
1388.337913	3906.500000
1390.327799	3889.000000
1392.315381	3880.350000
1394.302510	3875.650000
1396.287337	3871.550000
1398.273559	3836.600000
1400.257481	3830.300000
1402.240950	3852.250000
1404.223966	3847.550000
1406.204685	3822.050000
1408.186798	3822.900000
1410.166615	3809.700000
1412.145980	3814.100000
1414.121207	3810.800000
1416.099672	3826.350000
1418.075844	3788.500000
1420.051567	3806.850000
1422.026840	3778.700000
1423.999822	3814.850000
1425.972356	3800.000000
1427.944442	3811.950000
1429.916081	3806.400000
1431.883591	3796.000000
1433.856175	3781.900000
1435.820953	3789.250000
1437.790804	3800.250000
1439.756531	3788.250000
1441.723650	3785.250000
1443.688486	3784.050000
1445.649202	3778.700000
1447.614986	3780.250000
1449.574815	3781.050000
1451.536038	3781.950000
1453.498653	3794.750000
1455.457153	3793.650000
1457.415210	3780.400000
1459.372826	3794.450000
1461.329999	3773.600000
1463.284897	3788.250000
1465.241188	3789.850000
1467.195204	3796.650000
1469.148779	3789.550000
1471.100082	3789.550000
1473.052778	3777.750000
1475.003201	3790.800000
1476.953186	3790.350000
1478.902732	3800.550000
1480.850009	3798.750000
1482.795018	3793.650000
1484.741420	3799.200000
1486.687384	3777.000000
1488.632911	3797.050000
1490.576172	3789.700000
1492.518998	3805.000000
1494.459560	3811.550000
1496.401513	3791.000000
1498.341204	3803.700000
1500.280461	3786.250000
1502.219282	3812.200000
1504.155844	3792.750000
1506.093797	3801.550000
1508.029491	3812.500000
1509.964752	3823.150000
1511.897757	3807.700000
1513.830329	3834.100000
1515.762469	3833.100000
1517.694177	3834.450000
1519.623631	3844.700000
1521.554476	3869.100000
1523.484889	3841.250000
1525.411230	3868.000000
1527.338962	3874.050000
1529.264443	3889.850000
1531.189495	3900.200000
1533.114118	3929.500000
1535.038312	3926.700000
1536.960258	3937.200000
1538.883595	3947.100000
1540.804685	3992.300000
1542.723531	3998.600000
1544.643767	4040.500000
1546.561760	4037.850000
1548.479326	4100.900000
1550.394650	4121.000000
1552.311364	4146.600000
1554.224023	4207.150000
1556.139886	4264.700000
1558.053509	4277.650000
1559.964894	4291.650000
1561.877669	4306.200000
1563.786394	4348.400000
1565.696508	4372.600000
1567.606199	4392.200000
1569.515467	4384.450000
1571.422501	4420.600000
1573.327302	4404.600000
1575.233492	4395.850000
1577.137450	4402.250000
1579.040987	4361.900000
1580.944104	4328.800000
1582.844991	4357.400000
1584.747267	4281.300000
1586.647315	4275.900000
1588.548750	4251.950000
1590.446152	4218.500000
1592.343135	4187.100000
1594.239700	4173.650000
1596.137653	4161.250000
1598.029771	4164.800000
1599.925082	4124.450000
1601.819976	4124.500000
1603.712648	4092.300000
1605.604903	4090.250000
1607.494939	4066.050000
1609.384559	4053.900000
1611.273764	4040.750000
1613.162554	4021.000000
1615.049126	3981.800000
1616.937086	3973.800000
1618.821029	3938.050000
1620.706359	3930.600000
1622.591276	3883.650000
1624.473979	3870.850000
1626.358069	3828.400000
1628.238147	3851.200000
1630.119613	3838.450000
1631.998868	3809.400000
1633.879509	3778.600000
1635.754346	3784.900000
1637.634164	3773.250000
1639.509978	3775.800000
1641.385381	3751.200000
1643.262170	3754.250000
1645.133163	3757.900000
1647.007337	3742.800000
1648.877512	3742.450000
1650.750869	3733.600000
1652.622022	3718.900000
1654.490973	3729.550000
1656.361309	3723.900000
1658.227653	3726.150000
1660.095382	3723.250000
1661.960912	3707.400000
1663.827828	3708.450000
1665.690755	3706.300000
1667.555067	3712.200000
1669.417183	3693.450000
1671.278894	3687.700000
1673.141991	3695.100000
1675.002892	3705.700000
1676.861601	3688.750000
1678.719906	3705.250000
1680.579596	3675.800000
1682.433518	3691.500000
1684.290614	3686.900000
1686.147307	3688.900000
1688.000023	3681.200000
1689.855911	3663.000000
1691.707825	3670.800000
1693.559338	3677.000000
1695.410450	3682.900000
1697.261162	3684.900000
1699.111473	3691.650000
1700.959599	3669.400000
1702.809110	3680.400000
1704.652872	3665.300000
1706.501583	3676.250000
1708.344548	3653.800000
1710.190680	3680.200000
1712.032849	3675.000000
1713.878184	3672.100000
1715.717778	3684.950000
1717.558756	3668.350000
1719.401117	3669.650000
1721.239522	3658.700000
1723.079310	3670.750000
1724.916923	3676.950000
1726.754140	3661.300000
1728.589184	3682.900000
1730.425611	3638.900000
1732.259866	3668.600000
1734.093726	3652.700000
1735.927192	3656.000000
1737.756713	3647.200000
1739.589392	3665.050000
1741.418127	3641.900000
1743.250019	3650.400000
1745.077969	3656.550000
1746.905528	3682.750000
1748.732694	3652.000000
1750.559469	3638.000000
1752.385852	3648.050000
1754.208299	3663.500000
1756.033901	3654.350000
1757.855568	3649.050000
1759.678617	3656.550000
1761.499504	3671.150000
1763.320003	3655.200000
1765.141882	3664.200000
1766.958063	3662.000000
1768.777395	3666.950000
1770.592800	3650.750000
1772.411355	3642.600000
1774.225985	3645.000000
1776.040228	3640.400000
1777.854085	3639.300000
1779.667555	3665.350000
1781.478872	3636.100000
1783.291569	3656.000000
1785.103881	3653.300000
1786.912275	3667.250000
1788.722049	3636.200000
1790.527909	3645.050000
1792.336914	3637.100000
1794.142006	3665.600000
1795.948479	3654.650000
1797.754568	3656.800000
1799.556746	3646.650000
1801.362069	3660.600000
1803.163483	3653.950000
1804.966277	3665.250000
1806.765165	3642.850000
1808.565434	3653.950000
1810.365321	3647.850000
1812.163066	3620.400000
1813.960431	3632.150000
1815.757416	3651.250000
1817.554020	3643.000000
1819.348485	3644.850000
1821.144329	3664.600000
1822.934518	3665.700000
1824.729604	3642.050000
1826.519038	3671.350000
1828.311608	3634.000000
1830.102043	3669.850000
1831.890344	3652.450000
1833.681780	3666.000000
1835.467570	3641.800000
1837.254740	3651.200000
1839.039778	3641.250000
1840.827950	3660.350000
1842.612236	3644.950000
1844.394392	3674.100000
1846.177928	3657.350000
1847.959335	3647.400000
1849.742121	3659.800000
1851.521026	3665.150000
1853.301311	3637.100000
1855.079469	3655.800000
1856.859006	3642.500000
1858.636418	3649.900000
1860.411706	3653.150000
1862.188372	3646.100000
1863.962916	3653.500000
1865.738838	3658.150000
1867.509139	3637.200000
1869.282568	3641.200000
1871.053877	3647.400000
1872.824815	3661.600000
1874.597131	3656.450000
1876.363833	3652.350000
1878.133661	3649.150000
1879.899625	3647.650000
1881.668712	3650.350000
1883.433938	3668.550000
1885.198796	3645.800000
1886.965031	3664.150000
1888.727407	3665.300000
1890.489416	3648.300000
1892.251057	3624.700000
1894.012332	3651.700000
1895.773239	3652.550000
1897.533780	3665.000000
1899.292211	3652.450000
1901.050276	3656.500000
1902.806234	3623.500000
1904.563568	3645.300000
1906.320537	3665.100000
1908.075399	3640.000000
1909.828157	3638.150000
1911.580550	3653.200000
1913.334320	3654.350000
1915.085986	3650.950000
1916.835550	3641.250000
1918.586489	3649.300000
1920.337066	3650.800000
1922.083803	3646.600000
1923.831917	3629.250000
1925.577931	3648.300000
1927.325320	3637.750000
1929.070612	3659.600000
1930.813806	3655.450000
1932.558375	3650.800000
1934.300849	3630.750000
1936.042962	3630.300000
1937.784715	3667.950000
1939.526108	3656.050000
1941.265408	3646.600000
1943.004349	3649.650000
1944.742931	3650.600000
1946.479422	3645.000000
1948.215555	3641.250000
1949.953062	3637.500000
1951.686747	3655.550000
1953.421807	3649.500000
1955.154778	3655.450000
1956.887393	3659.750000
1958.619652	3645.450000
1960.351554	3648.350000
1962.081370	3656.750000
1963.809101	3665.700000
1965.538207	3659.450000
1967.266958	3645.150000
1968.993625	3662.750000
1970.719938	3665.250000
1972.447624	3646.250000
1974.169774	3670.850000
1975.895025	3659.450000
1977.616469	3669.000000
1979.341014	3662.500000
1981.063478	3664.100000
1982.782140	3658.250000
1984.503900	3656.300000
1986.221858	3647.500000
1987.941189	3658.700000
1989.656721	3656.550000
1991.377073	3660.750000
1993.093627	3663.050000
1994.806384	3664.100000
1996.522237	3657.350000
1998.236018	3667.300000
1999.949449	3663.100000
2001.660809	3663.550000
2003.373541	3656.100000
2005.082483	3670.900000
2006.794517	3656.050000
2008.501043	3670.300000
2010.210660	3671.700000
2011.918211	3675.500000
2013.625413	3662.500000
2015.330550	3655.550000
2017.035341	3660.350000
2018.741503	3645.150000
2020.443883	3668.550000
2022.147634	3664.500000
2023.849323	3672.500000
2025.550667	3688.550000
2027.251665	3663.250000
2028.950602	3666.450000
2030.650911	3663.650000
2032.347445	3649.150000
2034.045350	3668.100000
2035.741196	3678.850000
2037.440128	3655.600000
2039.133574	3672.100000
2040.828391	3660.300000
2042.522866	3671.000000
2044.213572	3669.100000
2045.907362	3693.200000
2047.597385	3651.400000
2049.288779	3668.850000
2050.978120	3656.600000
2052.668831	3655.350000
2054.355779	3657.050000
2056.042388	3664.850000
2057.730366	3666.500000
2059.414585	3672.950000
2061.100175	3665.750000
2062.785425	3671.100000
2064.468626	3655.950000
2066.153198	3652.950000
2067.832307	3664.100000
2069.516201	3662.600000
2071.194634	3667.750000
2072.876145	3679.800000
2074.553904	3641.650000
2076.231327	3663.400000
2077.910119	3660.450000
2079.586869	3652.400000
2081.261577	3650.300000
2082.937654	3642.500000
2084.611691	3647.300000
2086.285392	3659.350000
2087.958758	3643.000000
2089.630085	3651.250000
2091.301078	3648.000000
2092.971737	3647.250000
2094.642062	3649.650000
2096.312053	3653.200000
2097.980008	3637.500000
2099.647630	3657.100000
2101.313217	3643.000000
2102.980173	3671.100000
2104.645096	3657.900000
2106.309687	3657.150000
2107.972246	3654.700000
2109.636173	3692.400000
2111.298069	3655.150000
2112.959635	3668.250000
2114.620869	3667.350000
2116.280075	3666.150000
2117.938950	3667.100000
2119.597496	3688.750000
2121.255711	3661.300000
2122.910204	3659.150000
2124.567761	3664.400000
2126.224989	3668.450000
2127.878495	3662.350000
2129.533369	3664.450000
2131.184524	3666.600000
2132.838742	3661.700000
2134.489243	3660.950000
2136.141110	3644.350000
2137.787569	3646.600000
2139.438783	3657.300000
2141.086283	3661.300000
2142.735150	3664.250000
2144.381998	3663.000000
2146.028521	3672.500000
2147.674718	3663.700000
2149.317207	3670.450000
2150.962754	3665.450000
2152.604594	3672.800000
2154.249491	3656.650000
2155.890682	3670.200000
2157.531551	3665.650000
2159.172095	3663.150000
2160.810627	3661.450000
2162.450525	3657.350000
2164.086723	3660.500000
2165.724287	3664.350000
2167.361529	3660.250000
2168.996761	3661.350000
2170.631672	3653.200000
2172.266260	3654.050000
2173.900528	3656.400000
2175.531102	3679.650000
2177.164728	3665.550000
2178.794662	3661.250000
2180.425961	3637.600000
2182.055255	3665.400000
2183.684230	3669.650000
2185.312885	3671.250000
2186.941221	3655.050000
2188.567555	3645.900000
2190.193570	3658.800000
2191.817583	3649.950000
2193.442962	3664.050000
2195.066340	3657.100000
2196.691083	3655.450000
2198.312145	3664.100000
2199.932890	3646.750000
2201.555000	3676.700000
2203.175112	3656.800000
2204.793227	3673.950000
2206.411027	3664.350000
2208.028512	3657.200000
2209.645681	3655.050000
2211.262535	3664.750000
2212.879073	3650.600000
2214.493619	3662.850000
2216.106172	3665.150000
2217.720089	3677.150000
2219.332015	3666.000000
2220.945304	3655.850000
2222.556603	3669.950000
2224.165912	3670.550000
2225.776585	3660.550000
2227.385269	3672.800000
2228.993640	3657.450000
2230.600025	3651.100000
2232.207773	3658.000000
2233.813534	3671.550000
2235.418984	3662.350000
2237.022449	3679.150000
2238.627277	3655.500000
2240.230121	3669.500000
2241.830982	3676.750000
2243.433206	3671.400000
2245.033448	3661.400000
2246.635052	3684.000000
2248.233003	3677.100000
2249.832317	3660.200000
2251.429651	3650.800000
2253.026677	3688.150000
2254.625065	3666.250000
2256.219804	3682.400000
2257.812566	3676.300000
2259.406691	3651.850000
2261.002177	3667.200000
2262.594018	3654.250000
2264.185553	3658.100000
2265.778450	3675.350000
2267.366037	3663.700000
2268.958320	3680.800000
2270.545297	3668.050000
2272.135301	3671.950000
2273.720001	3657.750000
2275.309395	3658.750000
2276.893487	3654.200000
2278.478939	3680.900000
2280.062423	3662.600000
2281.648932	3657.550000
2283.231808	3640.800000
2284.814381	3661.400000
2286.396650	3653.700000
2287.975289	3669.950000
2289.556953	3669.750000
2291.134988	3680.500000
2292.716046	3651.050000
2294.293477	3656.025000
2295.868945	3661.000000
2297.447435	3642.650000
2299.022301	3656.950000
2300.596866	3649.850000
2302.171131	3649.250000
2303.745095	3663.900000
2305.318758	3642.200000
2306.892122	3659.050000
2308.461867	3647.150000
2310.031313	3659.800000
2311.603777	3664.050000
2313.170967	3662.250000
2314.741175	3647.250000
2316.307768	3664.150000
2317.875721	3655.000000
2319.441718	3680.700000
2321.007418	3660.450000
2322.572820	3695.550000
2324.136269	3683.050000
2325.701077	3696.500000
2327.262277	3747.300000
2328.826491	3773.950000
2330.385443	3778.800000
2331.947410	3734.000000
2333.507425	3677.550000
2335.067146	3683.250000
2336.624917	3671.900000
2338.182393	3672.950000
2339.739575	3663.950000
2341.294809	3665.900000
2342.849750	3654.450000
2344.404396	3691.000000
2345.958749	3669.000000
2347.512809	3652.700000
2349.066574	3677.150000
2350.618395	3689.300000
2352.168274	3686.250000
2353.721160	3671.350000
2355.268803	3646.100000
2356.819455	3695.350000
2358.366515	3674.650000
2359.914933	3683.150000
2361.463060	3654.750000
2363.007598	3677.500000
2364.553494	3672.600000
2366.097452	3665.200000
2367.642767	3656.500000
2369.184497	3675.150000
2370.727584	3661.400000
2372.268735	3682.200000
2373.809597	3674.100000
2375.350170	3691.300000
2376.890454	3679.200000
2378.430449	3677.550000
2379.966866	3683.100000
2381.506284	3687.450000
2383.042124	3665.050000
2384.579322	3682.400000
2386.112944	3677.150000
2387.649566	3681.100000
2389.184258	3665.100000
2390.717020	3690.700000
2392.249495	3686.400000
2393.780042	3677.850000
2395.313587	3690.300000
2396.841921	3690.050000
2398.371612	3675.150000
2399.901016	3693.050000
2401.430136	3680.800000
2402.958971	3694.450000
2404.482600	3693.200000
2406.010865	3710.700000
2407.533928	3694.050000
2409.061624	3686.600000
2410.582481	3681.600000
2412.107971	3688.450000
2413.629900	3683.900000
2415.153185	3707.850000
2416.674548	3695.000000
2418.193992	3702.500000
2419.714791	3703.400000
2421.233672	3704.250000
2422.752270	3708.900000
2424.268951	3707.950000
2425.786986	3702.000000
2427.304740	3706.050000
2428.818943	3704.800000
2430.332865	3692.450000
2431.846507	3698.800000
2433.361504	3702.850000
2434.872952	3697.950000
2436.385755	3709.300000
2437.896644	3697.950000
2439.407255	3706.000000
2440.915954	3708.500000
2442.427639	3694.300000
2443.935781	3694.800000
2445.443645	3705.000000
2446.951231	3685.300000
2448.455276	3688.050000
2449.962306	3688.650000
2451.467428	3701.000000
2452.972273	3685.250000
2454.475211	3688.050000
2455.977873	3690.600000
2457.480258	3688.950000
2458.980738	3694.050000
2460.482571	3697.650000
2461.982499	3687.550000
2463.482152	3700.050000
2464.981530	3683.950000
2466.479005	3690.150000
2467.974578	3676.700000
2469.473131	3684.300000
2470.968156	3675.800000
2472.464533	3704.450000
2473.957384	3689.200000
2475.451588	3689.950000
2476.945518	3692.200000
2478.435924	3698.200000
2479.929308	3688.800000
2481.420794	3670.050000
2482.910383	3690.450000
2484.399700	3705.000000
2485.887121	3703.200000
2487.377518	3693.800000
2488.864397	3694.000000
2490.352627	3691.500000
2491.837340	3682.800000
2493.321784	3684.950000
2494.807578	3685.900000
2496.291481	3689.300000
2497.776734	3694.500000
2499.256854	3682.000000
2500.739947	3695.050000
2502.221149	3700.450000
2503.702082	3683.950000
2505.181126	3685.350000
2506.659901	3690.300000
2508.138408	3705.350000
2509.616647	3685.650000
2511.094617	3690.300000
2512.569082	3695.050000
2514.046517	3694.950000
2515.520448	3685.850000
2516.995729	3693.300000
2518.470743	3667.450000
2519.942256	3688.450000
2521.415120	3693.500000
2522.886101	3704.000000
2524.358432	3689.400000
2525.825649	3701.150000
2527.295833	3684.800000
2528.764136	3687.300000
2530.232174	3694.950000
2531.699947	3699.200000
2533.167455	3687.550000
2534.634698	3685.950000
2536.098449	3691.050000
2537.563550	3701.400000
2539.026774	3696.850000
2540.491347	3698.600000
2541.952432	3688.100000
2543.414866	3699.200000
2544.877037	3702.500000
2546.335722	3698.000000
2547.798978	3712.150000
2549.257139	3701.350000
2550.716648	3706.000000
2552.171063	3696.200000
2553.630049	3699.300000
2555.087163	3711.150000
2556.542406	3705.550000
2557.997387	3706.550000
2559.450500	3713.400000
2560.904961	3711.700000
2562.357552	3714.800000
2563.809884	3720.700000
2565.260349	3718.550000
2566.713769	3739.300000
2568.162107	3708.850000
2569.613400	3713.950000
2571.062828	3705.500000
2572.508783	3710.350000
2573.957693	3702.200000
2575.403133	3713.050000
2576.849920	3729.800000
2578.294845	3713.100000
2579.739511	3725.750000
2581.185525	3725.450000
2582.628073	3719.100000
2584.071968	3707.950000
2585.512398	3706.350000
2586.954175	3714.350000
2588.394093	3722.250000
2589.835358	3728.250000
2591.273161	3713.350000
2592.713914	3731.250000
2594.149605	3716.750000
2595.588245	3736.300000
2597.025027	3737.450000
2598.459954	3735.600000
2599.897828	3718.550000
2601.330645	3731.700000
2602.764809	3721.200000
2604.197119	3747.300000
2605.630775	3736.650000
2607.062578	3749.250000
2608.494127	3739.750000
2609.925424	3754.000000
2611.354868	3741.900000
2612.784060	3753.650000
2614.211402	3757.600000
2615.640089	3754.400000
2617.068525	3744.900000
2618.493513	3765.650000
2619.919848	3757.000000
2621.344334	3776.900000
2622.770166	3747.500000
2624.192554	3771.400000
2625.616288	3769.400000
2627.038175	3778.950000
2628.459813	3790.500000
2629.879605	3787.250000
2631.300743	3769.950000
2632.721631	3798.050000
2634.139081	3776.000000
2635.559470	3793.950000
2636.976422	3793.750000
2638.393125	3806.350000
2639.809580	3791.050000
2641.225787	3804.250000
2642.641746	3820.050000
2644.055864	3814.200000
2645.469734	3816.800000
2646.881766	3825.600000
2648.295141	3824.050000
2649.705087	3814.250000
2651.117969	3829.800000
2652.527422	3807.400000
2653.936629	3848.550000
2655.344000	3846.000000
2656.754305	3837.900000
2658.162775	3858.250000
2659.569409	3837.400000
2660.975798	3857.050000
2662.380353	3855.500000
2663.786252	3864.250000
2665.190318	3849.050000
2666.594139	3856.600000
2667.997716	3852.300000
2669.399462	3856.350000
2670.802551	3853.600000
2672.202222	3868.200000
2673.603237	3858.700000
2675.000836	3858.650000
2676.401365	3852.050000
2677.798478	3871.950000
2679.196935	3846.850000
2680.593565	3863.550000
2681.989952	3841.500000
2683.386097	3853.250000
2684.780416	3826.600000
2686.176078	3833.200000
2687.568331	3827.600000
2688.961926	3864.700000
2690.353697	3811.700000
2691.746811	3838.150000
2693.138101	3808.150000
2694.527568	3802.950000
2695.916795	3799.100000
2697.305783	3803.200000
2698.696112	3787.850000
2700.081458	3820.500000
2701.469727	3814.500000
2702.856176	3794.600000
2704.242386	3764.250000
2705.628357	3781.850000
2707.010930	3782.550000
2708.394845	3791.350000
2709.778522	3768.300000
2711.161960	3778.500000
2712.542004	3761.250000
2713.923388	3764.000000
2715.302958	3769.650000
2716.683868	3758.000000
2718.062964	3740.750000
2719.440246	3778.100000
2720.818869	3725.800000
2722.195679	3738.950000
2723.572252	3729.850000
2724.948590	3741.950000
2726.323117	3725.950000
2727.698984	3724.250000
2729.071464	3729.600000
2730.446860	3734.400000
2731.817296	3720.500000
2733.189073	3730.350000
2734.560615	3725.550000
2735.930349	3741.950000
2737.301424	3717.250000
2738.670690	3717.500000
2740.039723	3714.450000
2741.406950	3718.650000
2742.773943	3710.000000
2744.140704	3704.600000
2745.507233	3702.950000
2746.871956	3714.650000
2748.236447	3689.050000
2749.600707	3713.750000
2750.964734	3690.900000
2752.328530	3721.700000
2753.688952	3688.750000
2755.052284	3720.650000
2756.410674	3704.400000
2757.771974	3701.700000
2759.129904	3696.450000
2760.490742	3683.050000
2761.849781	3683.850000
2763.205451	3675.550000
2764.564029	3673.650000
2765.919240	3692.550000
2767.274222	3674.400000
2768.627408	3697.050000
2769.983500	3676.400000
2771.336227	3651.000000
2772.688727	3665.300000
2774.040998	3676.850000
2775.394607	3682.900000
2776.744856	3662.150000
2778.093310	3665.950000
2779.444670	3671.800000
2780.792670	3665.550000
2782.142008	3681.750000
2783.489554	3659.400000
2784.836874	3673.350000
2786.183967	3673.100000
2787.529269	3669.650000
2788.874344	3657.600000
2790.219194	3663.850000
2791.563818	3684.250000
2792.905090	3652.100000
2794.247700	3669.200000
2795.590084	3653.600000
2796.932243	3660.050000
2798.271053	3654.300000
2799.612763	3676.150000
2800.951125	3666.900000
2802.290823	3665.750000
2803.628737	3667.850000
2804.964866	3663.800000
2806.300771	3665.950000
2807.638014	3658.000000
2808.973473	3664.500000
2810.308709	3654.900000
2811.642162	3672.600000
2812.976952	3650.700000
2814.308402	3678.600000
2815.642747	3668.950000
2816.972194	3677.150000
2818.302978	3677.850000
2819.633540	3687.350000
2820.962323	3661.100000
2822.292442	3669.900000
2823.620783	3672.350000
2824.948903	3669.050000
2826.275245	3651.750000
2827.602924	3669.000000
2828.927269	3654.850000
2830.252951	3671.950000
2831.576857	3656.550000
2832.900544	3652.000000
2834.225566	3664.000000
2835.547258	3663.800000
2836.868732	3666.350000
2838.189987	3654.900000
2839.511023	3644.550000
2840.830286	3662.300000
2842.150885	3666.600000
2843.469713	3674.300000
2844.788322	3651.450000
2846.105160	3667.650000
2847.421781	3643.850000
2848.738185	3661.800000
2850.052819	3649.350000
2851.368789	3661.450000
2852.681438	3656.200000
2853.995422	3658.050000
2855.309190	3663.850000
2856.622741	3661.250000
2857.934526	3658.600000
2859.244544	3657.800000
2860.555897	3669.750000
2861.863935	3671.450000
2863.173307	3664.350000
2864.482465	3666.450000
2865.791407	3669.250000
2867.098585	3669.200000
2868.404001	3657.650000
2869.710750	3678.550000
2871.015738	3677.700000
2872.320512	3673.450000
2873.623524	3685.150000
2874.929417	3683.750000
2876.230456	3656.450000
2877.532829	3681.750000
2878.833442	3659.500000
2880.135389	3661.300000
2881.437122	3683.900000
2882.735552	3664.300000
2884.035315	3661.200000
2885.333321	3667.950000
2886.631115	3666.350000
2887.927153	3673.750000
2889.224524	3667.300000
2890.520139	3679.850000
2891.815543	3642.850000
2893.110736	3672.600000
2894.402632	3656.800000
2895.697404	3669.750000
2896.988879	3659.600000
2898.281687	3683.400000
2899.574285	3681.300000
2900.863589	3682.100000
2902.154225	3661.700000
2903.443110	3663.350000
2904.733327	3651.300000
2906.020253	3673.300000
2907.308511	3658.250000
2908.595020	3669.250000
2909.881320	3671.550000
2911.167413	3665.000000
2912.451757	3669.600000
2913.738972	3676.350000
2915.021361	3674.850000
2916.305082	3663.450000
2917.587057	3661.750000
2918.868824	3671.500000
2920.148847	3662.300000
2921.431739	3698.200000
2922.712886	3679.450000
2923.990751	3679.400000
2925.271485	3666.500000
2926.548938	3664.600000
2927.826185	3652.750000
2929.101690	3676.600000
2930.380063	3658.100000
2931.653622	3656.850000
2932.930048	3653.700000
2934.204733	3669.800000
2935.477677	3653.000000
2936.751953	3667.150000
2938.024489	3641.950000
2939.296820	3674.950000
2940.565879	3660.750000
2941.837803	3660.700000
2943.107989	3665.550000
2944.377971	3655.450000
2945.647750	3642.700000
2946.915793	3637.150000
2948.182099	3656.950000
2949.448204	3663.750000
2950.715638	3656.550000
2951.981338	3644.600000
2953.246835	3625.500000
2954.512130	3655.750000
2955.774160	3632.650000
2957.037520	3640.600000
2958.300679	3630.600000
2959.562106	3645.100000
2960.824862	3628.500000
2962.085886	3659.100000
2963.345180	3647.250000
2964.604274	3628.650000
2965.863167	3635.050000
2967.121860	3653.350000
2968.380353	3643.300000
2969.637117	3632.950000
2970.893681	3641.800000
2972.148518	3635.500000
2973.404683	3636.700000
2974.657594	3654.600000
2975.911834	3626.200000
2977.165875	3638.950000
2978.418190	3635.500000
2979.670306	3638.450000
2980.920698	3645.950000
2982.173945	3625.000000
2983.422415	3631.050000
2984.673740	3628.100000
2985.921815	3628.950000
2987.169694	3651.150000
2988.417375	3618.300000
2989.664859	3638.900000
2990.910622	3625.850000
2992.156189	3620.050000
2993.403083	3618.150000
2994.646733	3626.300000
2995.891711	3637.550000
2997.133445	3622.100000
2998.378031	3627.150000
2999.620898	3625.000000
3000.860524	3612.750000
3002.103000	3622.700000
3003.342236	3611.600000
3004.582800	3632.050000
3005.821648	3612.200000
3007.060300	3629.250000
3008.297237	3613.800000
3009.535502	3628.400000
3010.772051	3632.900000
3012.008407	3603.150000
3013.244569	3620.050000
3014.479017	3624.400000
3015.713273	3599.000000
3016.947335	3629.050000
3018.179685	3607.000000
3019.410323	3613.950000
3020.643807	3620.550000
3021.875579	3614.450000
3023.105641	3616.900000
3024.335510	3609.750000
3025.563671	3595.650000
3026.793157	3625.150000
3028.020934	3627.350000
3029.248520	3609.250000
3030.477433	3610.300000
3031.701603	3630.100000
3032.928616	3604.600000
3034.152405	3617.150000
3035.377521	3605.150000
3036.600930	3617.700000
3037.824149	3613.550000
3039.045663	3613.050000
3040.270018	3599.250000
3041.489638	3606.500000
3042.710584	3621.550000
3043.931341	3616.900000
3045.150394	3614.100000
3046.370772	3614.250000
3047.587934	3617.700000
3048.806422	3615.450000
3050.023207	3600.550000
3051.239805	3630.000000
3052.456214	3624.600000
3053.669411	3615.050000
3054.885445	3601.700000
3056.098267	3620.400000
3057.313926	3608.750000
3058.524862	3621.550000
3059.737123	3614.450000
3060.949198	3615.050000
3062.161085	3599.250000
3063.371276	3625.900000
3064.581280	3614.100000
3065.791098	3602.700000
3066.999220	3607.250000
3068.207157	3616.750000
3069.413398	3602.700000
3070.620964	3615.850000
3071.826835	3607.625000
3073.032522	3599.400000
3074.238023	3613.700000
3075.441831	3619.650000
3076.646963	3611.300000
3077.850402	3618.400000
3079.052150	3603.150000
3080.253713	3627.000000
3081.455093	3604.700000
3082.656289	3603.800000
3083.855795	3610.500000
3085.055118	3606.250000
3086.255764	3599.450000
3087.454720	3594.500000
3088.650482	3610.300000
3089.849073	3615.950000
3091.044470	3591.650000
3092.241190	3605.750000
3093.434718	3599.050000
3094.631074	3598.650000
3095.825744	3604.800000
3097.017223	3597.800000
3098.213033	3589.250000
3099.404149	3614.000000
3100.596589	3597.850000
3101.785841	3611.450000
3102.977918	3577.200000
3104.168312	3602.200000
3105.355520	3621.800000
3106.544051	3608.500000
3107.733903	3596.400000
3108.920572	3607.150000
3110.107060	3596.600000
3111.293370	3609.950000
3112.481001	3603.350000
3113.665450	3596.500000
3114.848220	3601.850000
3116.033812	3593.000000
3117.217725	3589.850000
3118.399959	3593.950000
3119.582014	3595.100000
3120.763891	3608.900000
3121.945590	3590.450000
3123.125612	3610.950000
3124.303957	3608.100000
3125.485122	3601.600000
3126.663112	3603.050000
3127.840926	3600.400000
3129.018562	3586.300000
3130.194523	3600.450000
3131.370307	3597.950000
3132.547413	3586.900000
3133.722844	3597.400000
3134.896602	3595.750000
3136.068687	3603.700000
3137.242094	3612.450000
3138.415324	3601.600000
3139.586883	3591.900000
3140.759762	3583.100000
3141.929474	3606.250000
3143.100507	3586.850000
3144.269870	3609.100000
3145.437562	3604.700000
3146.608070	3593.150000
3147.773920	3599.600000
3148.944078	3611.950000
3150.109580	3567.900000
3151.274907	3605.450000
3152.440061	3595.900000
3153.605042	3602.100000
3154.771342	3581.000000
3155.932990	3597.600000
3157.095957	3583.150000
3158.258752	3593.500000
3159.421374	3576.750000
3160.582331	3564.100000
3161.743115	3599.700000
3162.903727	3588.550000
3164.062675	3572.150000
3165.221452	3587.300000
3166.380057	3570.550000
3167.538489	3582.450000
3168.696751	3575.250000
3169.853350	3592.100000
3171.008288	3571.650000
3172.164545	3578.400000
3173.319141	3584.600000
3174.473567	3579.750000
3175.626333	3579.950000
3176.778928	3562.250000
3177.931354	3568.950000
3179.083610	3579.000000
3180.235695	3561.750000
3181.384635	3571.100000
3182.536381	3595.550000
3183.686469	3585.700000
3184.834901	3587.550000
3185.983163	3593.550000
3187.131257	3565.500000
3188.279182	3593.600000
3189.425451	3594.950000
3190.571552	3595.800000
3191.715999	3590.800000
3192.860278	3585.700000
3194.004389	3588.050000
3195.149817	3605.350000
3196.292107	3587.400000
3197.434230	3605.650000
3198.576185	3591.100000
3199.717973	3582.500000
3200.859594	3579.550000
3201.998080	3576.350000
3203.137883	3586.300000
3204.279004	3579.350000
3205.416990	3598.400000
3206.553327	3605.750000
3207.689498	3578.450000
3208.826986	3575.850000
3209.962826	3582.550000
3211.099983	3569.700000
3212.232527	3583.600000
3213.369353	3585.850000
3214.501567	3569.700000
3215.635098	3581.300000
3216.768465	3573.400000
3217.898704	3582.650000
3219.031741	3574.350000
3220.161652	3554.750000
3221.292879	3559.900000
3222.420982	3592.000000
3223.551881	3564.750000
3224.681136	3580.600000
3225.808748	3572.000000
3226.933237	3575.150000
3228.062002	3566.100000
3229.187645	3574.200000
3230.313126	3568.950000
3231.436965	3553.050000
3232.563598	3561.200000
3233.685634	3576.250000
3234.808986	3566.200000
3235.932176	3569.050000
3237.055203	3542.450000
3238.176592	3561.100000
3239.297818	3552.400000
3240.417407	3572.000000
3241.536834	3558.650000
3242.654623	3566.150000
3243.775204	3557.250000
3244.892672	3566.350000
3246.009979	3571.050000
3247.127126	3574.350000
3248.242637	3566.300000
3249.359462	3572.400000
3250.473178	3565.700000
3251.589683	3561.900000
3252.704554	3572.700000
3253.816316	3561.400000
3254.927918	3563.500000
3256.040836	3553.350000
3257.153594	3551.900000
3258.263246	3570.400000
3259.374213	3559.050000
3260.485021	3566.050000
3261.594197	3556.800000
3262.701743	3568.700000
3263.810602	3577.450000
3264.919304	3575.250000
3266.024903	3572.750000
3267.131816	3566.950000
3268.237100	3517.550000
3269.343698	3562.800000
3270.447196	3563.200000
3271.552009	3558.100000
3272.656664	3565.550000
3273.758220	3557.750000
3274.859620	3575.150000
3275.962334	3575.900000
3277.064892	3569.600000
3278.164353	3577.600000
3279.266598	3568.900000
3280.365747	3563.450000
3281.463272	3555.800000
3282.560641	3571.300000
3283.660792	3547.000000
3284.757851	3563.750000
3285.854754	3558.700000
3286.951502	3535.550000
3288.043692	3555.200000
3289.140130	3548.150000
3290.234946	3543.150000
3291.329608	3551.000000
3292.422648	3556.500000
3293.515533	3558.650000
3294.606799	3544.850000
3295.699376	3565.850000
3296.790334	3544.050000
3297.879672	3538.250000
3298.968857	3547.050000
3300.059355	3558.950000
3301.146768	3542.250000
3302.234028	3552.350000
3303.322601	3563.300000
3304.411022	3557.250000
3305.494895	3554.200000
3306.583010	3570.200000
3307.668043	3566.250000
3308.751461	3561.050000
3309.836191	3540.700000
3310.919305	3568.850000
3312.003732	3555.050000
3313.085080	3558.250000
3314.167740	3570.900000
3315.248786	3559.400000
3316.329681	3562.550000
3317.408962	3572.600000
3318.488093	3557.450000
3319.568536	3561.250000
3320.645904	3566.700000
3321.724584	3563.300000
3322.801652	3574.900000
3323.878571	3560.200000
3324.953878	3545.100000
3326.029036	3552.300000
3327.105505	3561.250000
3328.178904	3554.300000
3329.252154	3540.250000
3330.326714	3559.100000
3331.399666	3547.500000
3332.471009	3566.050000
3333.543663	3555.100000
3334.613251	3555.000000
3335.684149	3563.500000
3336.753440	3566.150000
3337.824042	3533.250000
3338.893037	3559.050000
3339.960426	3546.800000
3341.026210	3560.600000
3342.096220	3533.450000
3343.163167	3553.500000
3344.227052	3549.900000
3345.293705	3542.850000
3346.358753	3534.950000
3347.422198	3533.700000
3348.485497	3551.000000
3349.548649	3559.600000
3350.611655	3560.850000
3351.674515	3552.200000
3352.735773	3548.350000
3353.793974	3559.350000
3354.856395	3549.200000
3355.915761	3545.300000
3356.974981	3542.500000
3358.035511	3553.600000
3359.091531	3538.750000
3360.150315	3552.850000
3361.204592	3555.050000
3362.261633	3535.250000
3363.317075	3551.050000
3364.373827	3559.750000
3365.428980	3555.300000
3366.482536	3557.400000
3367.534496	3540.900000
3368.589217	3554.600000
3369.640889	3547.250000
3370.692418	3547.800000
3371.745255	3542.450000
3372.795045	3554.550000
3373.846144	3545.250000
3374.894197	3557.200000
3375.945009	3544.150000
3376.992777	3550.100000
3378.040402	3544.900000
3379.087884	3561.150000
3380.133774	3536.450000
3381.180972	3551.500000
3382.225128	3551.350000
3383.272042	3565.150000
3384.317364	3544.450000
3385.359645	3542.300000
3386.401786	3539.700000
3387.445234	3545.100000
3388.488541	3532.250000
3389.530259	3548.750000
3390.571835	3545.050000
3391.613270	3575.700000
3392.653117	3545.350000
3393.691375	3556.300000
3394.730941	3550.150000
3395.770367	3559.000000
3396.808205	3553.050000
3397.844456	3554.450000
3398.880568	3560.500000
3399.917987	3548.850000
3400.952373	3559.900000
3401.988066	3560.600000
3403.023620	3533.850000
3404.056143	3544.500000
3405.091419	3537.900000
3406.123664	3562.000000
3407.155771	3544.150000
3408.186294	3552.550000
3409.218124	3560.150000
3410.249816	3555.350000
3411.278480	3547.150000
3412.307007	3558.050000
3413.336840	3544.850000
3414.366536	3549.750000
3415.393206	3520.200000
3416.421183	3562.150000
3417.446135	3534.950000
3418.473837	3540.850000
3419.498516	3537.750000
3420.524501	3549.300000
3421.548906	3534.300000
3422.573175	3547.200000
3423.595865	3536.950000
3424.618419	3552.800000
3425.642279	3547.900000
3426.663119	3538.200000
3427.683823	3541.900000
3428.705834	3536.950000
3429.724826	3531.150000
3430.743682	3531.050000
3431.763845	3526.550000
3432.780991	3550.800000
