-116.475622	170.500000
-113.806022	180.350000
-111.139357	164.550000
-108.473444	172.550000
-105.810463	182.500000
-103.146053	171.350000
-100.484573	159.400000
-97.821664	180.350000
-95.163861	155.300000
-92.504629	193.150000
-89.846145	172.900000
-87.190585	182.400000
-84.533597	172.500000
-81.881707	191.800000
-79.228387	171.300000
-76.577986	201.550000
-73.926156	187.750000
-71.279417	185.650000
-68.631249	166.000000
-65.983823	182.900000
-63.339311	184.500000
-60.693371	198.850000
-58.052512	183.150000
-55.410224	186.850000
-52.770845	183.650000
-50.130036	196.250000
-47.489968	183.300000
-44.854972	211.800000
-42.218548	179.000000
-39.585026	200.550000
-36.950076	199.500000
-34.320191	207.150000
-31.686714	208.000000
-29.058299	245.900000
-26.430618	215.000000
-23.801508	251.500000
-21.177455	235.550000
-18.549813	279.350000
-15.927224	299.300000
-13.305367	376.350000
-10.684240	509.400000
-8.063843	1038.050000
-5.446335	3104.600000
-2.827398	9587.350000
-0.211346	19898.000000
2.403977	20244.950000
5.018573	8756.850000
7.630286	1067.800000
10.243428	352.900000
12.851536	315.450000
15.463226	271.900000
18.069885	271.050000
20.677972	246.250000
23.285335	260.150000
25.887673	251.200000
28.493589	255.700000
31.094483	260.000000
33.696805	254.600000
36.294110	251.300000
38.894990	256.150000
41.490855	251.850000
44.088149	255.000000
46.684723	242.900000
49.276288	278.950000
51.869281	264.300000
54.459413	270.250000
57.050973	277.900000
59.639673	278.150000
62.229800	275.250000
64.814928	287.600000
67.401484	283.700000
69.987326	294.700000
72.570314	275.750000
75.154728	327.050000
77.732014	317.250000
80.312866	312.750000
82.890869	305.000000
85.468162	326.650000
88.046881	331.900000
90.620618	355.100000
93.195783	384.750000
95.768104	370.950000
98.339717	399.100000
100.908490	422.600000
103.478690	418.400000
106.046052	474.900000
108.614839	522.550000
111.180790	595.450000
113.743906	695.800000
116.310578	854.650000
118.868029	1067.450000
121.431165	1404.700000
123.989341	1955.600000
126.551072	2692.650000
129.107846	3323.200000
131.666047	3503.250000
134.219294	3618.750000
136.771844	3797.050000
139.327944	4019.300000
141.879096	4269.000000
144.429551	4394.650000
146.979308	4549.100000
149.526246	4642.900000
152.072489	4699.750000
154.620157	4734.350000
157.167129	4781.800000
159.709166	4690.450000
162.250509	4654.000000
164.791159	4724.500000
167.333235	4705.600000
169.872499	4706.000000
172.408955	4710.700000
174.944719	4695.400000
177.481909	4652.000000
180.018408	4662.400000
182.552101	4648.700000
185.082990	4657.300000
187.613192	4658.900000
190.144818	4644.950000
192.673643	4651.250000
195.199669	4626.200000
197.725009	4633.950000
200.251774	4635.750000
202.775743	4665.000000
205.299027	4630.950000
207.821626	4632.100000
210.341432	4617.600000
212.860555	4617.400000
215.378995	4630.850000
217.898859	4640.950000
220.411722	4625.050000
222.928116	4644.650000
225.443828	4618.650000
227.954650	4635.200000
230.466897	4665.950000
232.976362	4665.000000
235.485148	4683.950000
237.993255	4691.200000
240.502787	4681.550000
243.007438	4694.700000
245.511413	4684.500000
248.016812	4698.950000
250.517336	4705.050000
253.021384	4716.000000
255.518460	4703.350000
258.019060	4731.900000
260.516888	4749.250000
263.014043	4749.850000
265.510525	4734.150000
268.002144	4786.050000
270.497283	4767.600000
272.989655	4777.450000
275.481357	4778.000000
277.970296	4790.000000
280.460659	4786.250000
282.948259	4774.850000
285.433100	4788.850000
287.921456	4807.650000
290.402872	4786.300000
292.887802	4790.050000
295.367887	4788.300000
297.851484	4821.650000
300.330238	4806.150000
302.810416	4817.000000
305.287841	4842.200000
307.764603	4862.700000
310.240702	4871.450000
312.714052	4923.250000
315.186740	5015.200000
317.658767	5139.400000
320.130133	5341.300000
322.598754	5474.900000
325.066717	5438.700000
327.536101	5256.800000
330.000663	5117.300000
332.468729	5036.100000
334.931975	4987.450000
337.394563	4948.950000
339.856495	4916.300000
342.317770	4950.500000
344.776311	4934.300000
347.236274	4940.400000
349.693504	4921.000000
352.150080	4959.350000
354.606002	4944.050000
357.059194	4923.400000
359.513809	4960.500000
361.963622	4946.250000
364.416931	4950.800000
366.865442	4952.150000
369.313301	4930.150000
371.762583	4948.550000
374.207071	4928.000000
376.652981	4933.600000
379.098241	4915.150000
381.540783	4926.000000
383.982677	4917.250000
386.423924	4961.000000
388.862455	4934.500000
391.302408	4938.350000
393.739647	4944.450000
396.174174	4929.350000
398.612189	4935.600000
401.045427	4921.100000
403.480086	4910.250000
405.909973	4925.950000
408.343345	4939.800000
410.771947	4950.600000
413.199907	4904.300000
415.629289	4945.600000
418.053905	4951.850000
420.479943	4951.050000
422.905340	4960.550000
425.330097	4943.250000
427.750096	4943.800000
430.171516	4962.350000
432.590239	4951.950000
435.010383	4967.700000
437.427832	4955.100000
439.846701	4967.750000
442.262877	4941.450000
444.674305	4978.600000
447.089211	4942.300000
449.501426	4961.350000
451.913007	4936.700000
454.323954	4939.350000
456.732215	4924.850000
459.139843	4904.150000
461.546839	4880.750000
463.953204	4887.350000
466.356886	4874.400000
468.759938	4860.500000
471.162360	4838.800000
473.564152	4829.150000
475.963267	4809.600000
478.363801	4829.100000
480.763706	4839.900000
483.158888	4837.100000
485.557537	4876.850000
487.951466	4855.700000
490.344769	4849.300000
492.737446	4807.100000
495.129498	4765.400000
497.522968	4711.500000
499.911726	4621.600000
502.297818	4594.800000
504.685330	4513.850000
507.072219	4466.150000
509.456444	4420.750000
511.842087	4377.350000
514.225069	4330.250000
516.605390	4300.900000
518.987130	4263.300000
521.366211	4248.050000
523.746711	4217.600000
526.124553	4202.550000
528.499740	4179.450000
530.874309	4167.500000
533.250296	4165.800000
535.623631	4135.700000
537.998383	4136.000000
540.368450	4132.400000
542.737901	4114.450000
545.108770	4105.050000
547.474959	4105.550000
549.842566	4102.100000
552.207527	4074.450000
554.571875	4092.300000
556.935610	4068.100000
559.300763	4080.750000
561.661244	4058.200000
564.023143	4051.200000
566.382401	4038.050000
568.739022	4028.550000
571.099087	4042.300000
573.452461	4007.400000
575.809280	4000.550000
578.163464	4012.950000
580.517039	4002.850000
582.870007	4015.600000
585.220342	3995.400000
587.572095	3995.550000
589.917171	3992.850000
592.267711	4006.400000
594.611577	4013.100000
596.960905	4004.750000
599.305584	4018.200000
601.647639	3979.750000
603.991111	3991.750000
606.331960	3996.650000
608.672207	3978.850000
611.009833	3977.900000
613.350894	3971.650000
615.687317	3959.000000
618.025157	3949.350000
620.360380	3945.750000
622.692987	3927.150000
625.027010	3926.450000
627.358419	3926.550000
629.689230	3936.050000
632.019444	3925.000000
634.349059	3916.750000
636.674051	3907.700000
639.004485	3904.900000
641.330298	3874.300000
643.653503	3889.300000
645.978125	3882.500000
648.300141	3887.300000
650.621563	3875.350000
652.940383	3870.950000
655.260618	3871.950000
657.580260	3876.350000
659.897301	3880.950000
662.213750	3829.450000
664.527601	3858.150000
666.842868	3858.050000
669.155538	3853.000000
671.469623	3848.700000
673.779108	3836.000000
676.090009	3849.600000
678.398317	3838.850000
680.706037	3841.100000
683.015171	3820.900000
685.319713	3819.600000
687.623669	3826.900000
689.927039	3822.500000
692.231823	3812.700000
694.532021	3802.900000
696.833633	3806.950000
699.134661	3765.300000
701.431106	3796.900000
703.728967	3783.950000
706.026244	3772.500000
708.322938	3796.800000
710.615056	3764.150000
712.910585	3796.100000
715.201540	3770.250000
717.493910	3768.100000
719.783705	3788.600000
722.072919	3774.950000
724.361554	3774.900000
726.647616	3795.400000
728.935093	3777.600000
731.219998	3799.400000
733.504326	3808.150000
735.786085	3804.550000
738.069258	3802.250000
740.351854	3825.600000
742.629894	3807.150000
744.909349	3802.800000
747.188227	3821.700000
749.466531	3833.300000
751.740285	3808.550000
754.015452	3826.900000
756.290046	3823.650000
758.562081	3830.700000
760.835529	3840.650000
763.106419	3850.300000
765.374753	3834.600000
767.644500	3821.750000
769.911693	3839.650000
772.178315	3864.200000
774.444367	3857.250000
776.707868	3867.800000
778.972782	3865.700000
781.237126	3892.400000
783.496941	3876.300000
785.758168	3882.950000
788.018828	3900.400000
790.276942	3895.150000
792.532511	3897.150000
794.791471	3877.450000
797.043932	3876.950000
799.301759	3862.150000
801.555068	3867.900000
803.805837	3884.000000
806.058018	3847.000000
808.307660	3849.850000
810.558715	3846.500000
812.805258	3848.650000
815.053213	3836.050000
817.298634	3848.000000
819.545466	3820.000000
821.791737	3802.700000
824.033503	3813.750000
826.278653	3800.450000
828.517330	3801.050000
830.759389	3803.850000
832.996950	3781.850000
835.235923	3789.350000
837.472369	3774.150000
839.710226	3785.950000
841.945558	3762.650000
844.178367	3776.350000
846.412587	3768.850000
848.644284	3763.400000
850.875427	3763.400000
853.106015	3760.550000
855.336049	3752.100000
857.565529	3754.150000
859.790527	3758.150000
862.018900	3748.750000
864.242793	3743.450000
866.468098	3755.900000
868.688927	3775.500000
870.913128	3782.050000
873.132856	3757.400000
875.353994	3765.050000
877.574582	3759.300000
879.792661	3780.500000
882.012149	3759.250000
884.227171	3757.400000
886.441645	3768.150000
888.655572	3776.100000
890.868952	3761.850000
893.081784	3774.000000
895.294070	3751.250000
897.503853	3778.050000
899.713091	3766.500000
901.921784	3766.600000
904.127978	3746.350000
906.335581	3772.550000
908.540686	3756.550000
910.745248	3769.050000
912.947315	3743.450000
915.150791	3748.450000
917.351773	3756.300000
919.552213	3768.600000
921.754062	3748.750000
923.949520	3749.950000
926.148337	3764.300000
928.342715	3767.800000
930.540451	3759.850000
932.733751	3769.700000
934.928460	3759.200000
937.120683	3778.650000
939.312367	3751.700000
941.503514	3786.750000
943.692178	3770.300000
945.880306	3778.400000
948.065953	3791.050000
950.254952	3800.950000
952.439528	3823.050000
954.623569	3835.950000
956.810960	3835.500000
958.990047	3859.900000
961.172485	3854.450000
963.354389	3878.500000
965.533818	3889.400000
967.710775	3904.450000
969.889140	3914.550000
972.068912	3935.850000
974.242335	3932.950000
976.419104	3954.450000
978.591466	3957.750000
980.765236	3967.800000
982.934602	3961.250000
985.107312	3993.300000
987.277557	4001.950000
989.447273	3997.650000
991.616460	3991.300000
993.781250	4018.200000
995.949381	4012.350000
998.113118	4017.450000
1000.278261	4032.600000
1002.440945	4049.900000
1004.603104	4046.200000
1006.762806	4079.450000
1008.921983	4081.250000
1011.082567	4076.100000
1013.240697	4070.850000
1015.398302	4089.500000
1017.555384	4064.800000
1019.711942	4101.150000
1021.864121	4108.650000
1024.017707	4126.400000
1026.170771	4130.650000
1028.321386	4165.150000
1030.473408	4157.750000
1032.621056	4150.650000
1034.772036	4163.200000
1036.918645	4188.800000
1039.064735	4186.650000
1041.210307	4166.950000
1043.357284	4210.150000
1045.497972	4219.850000
1047.641990	4223.450000
1049.783567	4223.750000
1051.924628	4230.900000
1054.067093	4260.250000
1056.203279	4247.100000
1058.342790	4253.100000
1060.477947	4268.750000
1062.616428	4263.050000
1064.750555	4240.050000
1066.884169	4236.200000
1069.019188	4252.000000
1071.149857	4236.700000
1073.281931	4256.450000
1075.411576	4248.200000
1077.540709	4220.600000
1079.669330	4189.700000
1081.797440	4167.900000
1083.923124	4194.950000
1086.048298	4148.950000
1088.174876	4142.250000
1090.297116	4133.600000
1092.420761	4124.500000
1094.540071	4091.050000
1096.664611	4119.700000
1098.782905	4081.200000
1100.902604	4073.000000
1103.019884	4077.200000
1105.136658	4068.600000
1107.252925	4062.250000
1109.366776	4051.650000
1111.482032	4022.900000
1113.592964	4045.650000
1115.707209	4041.600000
1117.817133	4001.350000
1119.928461	3999.900000
1122.039284	4010.600000
1124.145791	3989.350000
1126.255608	3996.050000
1128.361110	3981.950000
1130.468015	3972.650000
1132.568705	3982.000000
1134.674607	3973.850000
1136.776200	3970.700000
1138.879196	3978.450000
1140.981691	3954.950000
1143.077979	3949.600000
1145.179475	3951.250000
1147.276667	3962.950000
1149.373362	3944.650000
1151.469558	3951.500000
1153.565257	3933.800000
1155.660457	3959.050000
1157.753261	3948.850000
1159.847468	3951.000000
1161.935483	3941.000000
1164.028696	3944.550000
1166.115721	3921.100000
1168.206045	3951.800000
1170.292082	3944.450000
1172.381416	3955.150000
1174.464569	3950.000000
1176.549124	3930.700000
1178.635081	3938.100000
1180.716756	3942.800000
1182.799833	3949.700000
1184.880524	3936.550000
1186.960723	3930.550000
1189.040431	3933.600000
1191.119648	3942.950000
1193.196483	3940.100000
1195.270937	3934.600000
1197.348682	3918.550000
1199.422158	3923.700000
1201.497034	3945.500000
1203.567643	3932.800000
1205.639653	3930.100000
1207.709288	3916.900000
1209.780323	3911.900000
1211.850870	3910.550000
1213.917156	3914.300000
1215.984843	3905.250000
1218.050158	3915.450000
1220.116873	3911.750000
1222.179332	3917.950000
1224.245076	3913.900000
1226.306566	3912.400000
1228.369457	3927.850000
1230.429980	3913.950000
1232.490019	3902.100000
1234.549576	3915.600000
1236.606767	3903.250000
1238.663477	3905.950000
1240.717823	3915.650000
1242.775451	3910.200000
1244.830716	3920.650000
1246.881740	3933.000000
1248.934164	3915.800000
1250.986108	3947.800000
1253.035694	3947.750000
1255.084801	3962.500000
1257.133430	3936.100000
1259.181580	3943.600000
1261.229251	3941.900000
1263.272692	3956.900000
1265.319409	3941.000000
1267.363772	3965.000000
1269.407659	3966.400000
1271.449194	3994.350000
1273.488380	3903.950000
1275.530839	4005.350000
1277.569075	4002.150000
1279.608710	4016.250000
1281.647870	4027.250000
1283.682811	4051.450000
1285.719151	4067.900000
1287.753147	4098.650000
1289.788540	4104.050000
1291.819721	4135.950000
1293.852299	4136.550000
1295.884406	4154.450000
1297.914172	4190.000000
1299.945336	4246.600000
1301.972292	4251.450000
1304.000646	4305.550000
1306.024795	4349.150000
1308.052210	4391.500000
1310.075422	4428.750000
1312.100032	4459.600000
1314.122308	4523.850000
1316.145981	4591.750000
1318.167321	4626.200000
1320.188193	4696.050000
1322.208598	4745.750000
1324.224810	4850.300000
1326.242419	4878.550000
1328.257700	4924.800000
1330.276240	4991.200000
1332.290591	5046.500000
1334.302616	5061.350000
1336.317898	5110.850000
1338.328995	5077.850000
1340.341489	5093.700000
1342.349800	5089.600000
1344.361366	5062.450000
1346.366894	5015.650000
1348.375677	4955.850000
1350.380282	4882.400000
1352.388141	4842.350000
1354.395538	4759.050000
1356.396904	4693.550000
1358.399666	4622.500000
1360.401969	4590.600000
1362.403812	4498.550000
1364.405195	4435.500000
1366.404265	4370.950000
1368.402876	4339.100000
1370.401029	4307.950000
1372.398723	4257.350000
1374.392255	4211.650000
1376.387182	4202.350000
1378.381653	4135.600000
1380.375667	4148.050000
1382.367374	4116.800000
1384.358626	4102.550000
1386.347572	4070.200000
1388.337913	4071.700000
1390.327799	4043.000000
1392.315381	4041.750000
1394.302510	4031.300000
1396.287337	4010.000000
1398.273559	4012.350000
1400.257481	3988.650000
1402.240950	3991.000000
1404.223966	3986.450000
1406.204685	3960.550000
1408.186798	3952.900000
1410.166615	3946.600000
1412.145980	3935.950000
1414.121207	3940.700000
1416.099672	3939.800000
1418.075844	3931.700000
1420.051567	3925.700000
1422.026840	3917.100000
1423.999822	3934.600000
1425.972356	3916.800000
1427.944442	3906.550000
1429.916081	3912.100000
1431.883591	3903.800000
1433.856175	3899.500000
1435.820953	3926.850000
1437.790804	3911.350000
1439.756531	3915.100000
1441.723650	3898.950000
1443.688486	3885.450000
1445.649202	3902.350000
1447.614986	3904.000000
1449.574815	3879.650000
1451.536038	3893.600000
1453.498653	3893.700000
1455.457153	3884.700000
1457.415210	3881.550000
1459.372826	3910.900000
1461.329999	3897.200000
1463.284897	3897.300000
1465.241188	3890.850000
1467.195204	3901.300000
1469.148779	3892.450000
1471.100082	3902.950000
1473.052778	3892.350000
1475.003201	3914.500000
1476.953186	3895.300000
1478.902732	3923.250000
1480.850009	3899.100000
1482.795018	3917.600000
1484.741420	3889.650000
1486.687384	3904.500000
1488.632911	3906.800000
1490.576172	3927.050000
1492.518998	3919.950000
1494.459560	3920.950000
1496.401513	3915.250000
1498.341204	3933.650000
1500.280461	3923.200000
1502.219282	3937.500000
1504.155844	3936.750000
1506.093797	3907.250000
1508.029491	3942.600000
1509.964752	3960.100000
1511.897757	3944.700000
1513.830329	3963.900000
1515.762469	3969.500000
1517.694177	3985.650000
1519.623631	3985.300000
1521.554476	4008.300000
1523.484889	4010.050000
1525.411230	4034.500000
1527.338962	4032.050000
1529.264443	4064.200000
1531.189495	4072.250000
1533.114118	4100.900000
1535.038312	4120.400000
1536.960258	4156.350000
1538.883595	4199.350000
1540.804685	4210.100000
1542.723531	4237.800000
1544.643767	4303.750000
1546.561760	4322.450000
1548.479326	4385.150000
1550.394650	4456.450000
1552.311364	4495.550000
1554.224023	4596.700000
1556.139886	4644.000000
1558.053509	4704.250000
1559.964894	4759.250000
1561.877669	4790.850000
1563.786394	4822.200000
1565.696508	4868.250000
1567.606199	4889.300000
1569.515467	4929.000000
1571.422501	4937.350000
1573.327302	4876.600000
1575.233492	4865.450000
1577.137450	4831.850000
1579.040987	4817.800000
1580.944104	4752.200000
1582.844991	4720.000000
1584.747267	4610.300000
1586.647315	4604.500000
1588.548750	4573.500000
1590.446152	4532.150000
1592.343135	4491.250000
1594.239700	4478.500000
1596.137653	4449.800000
1598.029771	4431.650000
1599.925082	4430.950000
1601.819976	4411.850000
1603.712648	4381.300000
1605.604903	4367.550000
1607.494939	4307.650000
1609.384559	4287.650000
1611.273764	4246.550000
1613.162554	4198.100000
1615.049126	4144.250000
1616.937086	4111.150000
1618.821029	4104.450000
1620.706359	4066.400000
1622.591276	4034.800000
1624.473979	3987.650000
1626.358069	3967.250000
1628.238147	3957.300000
1630.119613	3931.050000
1631.998868	3897.550000
1633.879509	3886.200000
1635.754346	3879.400000
1637.634164	3850.000000
1639.509978	3862.800000
1641.385381	3835.100000
1643.262170	3825.950000
1645.133163	3799.200000
1647.007337	3815.500000
1648.877512	3789.250000
1650.750869	3813.750000
1652.622022	3763.950000
1654.490973	3791.750000
1656.361309	3761.450000
1658.227653	3775.200000
1660.095382	3769.200000
1661.960912	3762.050000
1663.827828	3763.500000
1665.690755	3767.300000
1667.555067	3747.100000
1669.417183	3744.400000
1671.278894	3738.650000
1673.141991	3731.400000
1675.002892	3731.450000
1676.861601	3739.650000
1678.719906	3723.700000
1680.579596	3732.200000
1682.433518	3707.650000
1684.290614	3717.650000
1686.147307	3718.950000
1688.000023	3714.300000
1689.855911	3719.750000
1691.707825	3714.250000
1693.559338	3717.400000
1695.410450	3704.700000
1697.261162	3716.950000
1699.111473	3705.250000
1700.959599	3710.900000
1702.809110	3706.200000
1704.652872	3692.250000
1706.501583	3710.600000
1708.344548	3715.200000
1710.190680	3704.100000
1712.032849	3703.500000
1713.878184	3714.600000
1715.717778	3702.400000
1717.558756	3698.100000
1719.401117	3705.250000
1721.239522	3692.950000
1723.079310	3708.950000
1724.916923	3696.250000
1726.754140	3711.900000
1728.589184	3691.650000
1730.425611	3688.250000
1732.259866	3699.100000
1734.093726	3685.550000
1735.927192	3686.250000
1737.756713	3673.050000
1739.589392	3694.650000
1741.418127	3693.050000
1743.250019	3674.150000
1745.077969	3703.150000
1746.905528	3680.600000
1748.732694	3663.450000
1750.559469	3660.650000
1752.385852	3671.950000
1754.208299	3682.400000
1756.033901	3666.850000
1757.855568	3696.600000
1759.678617	3678.300000
1761.499504	3666.750000
1763.320003	3677.200000
1765.141882	3693.300000
1766.958063	3666.300000
1768.777395	3676.300000
1770.592800	3640.050000
1772.411355	3667.100000
1774.225985	3669.750000
1776.040228	3669.200000
1777.854085	3654.200000
1779.667555	3678.500000
1781.478872	3674.550000
1783.291569	3666.800000
1785.103881	3664.150000
1786.912275	3679.450000
1788.722049	3681.750000
1790.527909	3675.400000
1792.336914	3678.800000
1794.142006	3668.450000
1795.948479	3663.050000
1797.754568	3675.250000
1799.556746	3664.350000
1801.362069	3675.600000
1803.163483	3659.650000
1804.966277	3656.700000
1806.765165	3682.800000
1808.565434	3657.500000
1810.365321	3662.500000
1812.163066	3670.500000
1813.960431	3645.600000
1815.757416	3668.050000
1817.554020	3660.650000
1819.348485	3677.650000
1821.144329	3655.700000
1822.934518	3659.500000
1824.729604	3667.000000
1826.519038	3658.100000
1828.311608	3645.500000
1830.102043	3674.250000
1831.890344	3664.100000
1833.681780	3654.900000
1835.467570	3658.400000
1837.254740	3664.750000
1839.039778	3666.150000
1840.827950	3660.650000
1842.612236	3664.350000
1844.394392	3677.250000
1846.177928	3673.850000
1847.959335	3657.450000
1849.742121	3661.850000
1851.521026	3674.700000
1853.301311	3660.050000
1855.079469	3671.450000
1856.859006	3667.600000
1858.636418	3666.950000
1860.411706	3661.200000
1862.188372	3666.450000
1863.962916	3665.800000
1865.738838	3662.600000
1867.509139	3647.750000
1869.282568	3667.850000
1871.053877	3671.650000
1872.824815	3659.300000
1874.597131	3667.100000
1876.363833	3668.950000
1878.133661	3662.000000
1879.899625	3668.650000
1881.668712	3656.350000
1883.433938	3680.600000
1885.198796	3657.550000
1886.965031	3675.300000
1888.727407	3652.250000
1890.489416	3651.250000
1892.251057	3659.850000
1894.012332	3661.500000
1895.773239	3677.550000
1897.533780	3658.500000
1899.292211	3657.900000
1901.050276	3668.950000
1902.806234	3648.800000
1904.563568	3659.200000
1906.320537	3655.150000
1908.075399	3650.050000
1909.828157	3668.900000
1911.580550	3684.450000
1913.334320	3640.900000
1915.085986	3652.000000
1916.835550	3655.350000
1918.586489	3659.750000
1920.337066	3668.350000
1922.083803	3660.500000
1923.831917	3646.450000
1925.577931	3645.550000
1927.325320	3637.600000
1929.070612	3657.100000
1930.813806	3670.700000
1932.558375	3676.450000
1934.300849	3644.850000
1936.042962	3663.450000
1937.784715	3636.250000
1939.526108	3674.300000
1941.265408	3652.950000
1943.004349	3674.300000
1944.742931	3651.950000
1946.479422	3675.750000
1948.215555	3666.925000
1949.953062	3658.100000
1951.686747	3658.000000
1953.421807	3671.300000
1955.154778	3662.550000
1956.887393	3657.650000
1958.619652	3676.200000
1960.351554	3677.050000
1962.081370	3654.050000
1963.809101	3662.400000
1965.538207	3668.250000
1967.266958	3658.650000
1968.993625	3652.100000
1970.719938	3658.850000
1972.447624	3659.200000
1974.169774	3682.150000
1975.895025	3650.650000
1977.616469	3672.050000
1979.341014	3642.650000
1981.063478	3669.850000
1982.782140	3672.700000
1984.503900	3652.400000
1986.221858	3651.800000
1987.941189	3668.850000
1989.656721	3666.400000
1991.377073	3677.450000
1993.093627	3666.700000
1994.806384	3654.850000
1996.522237	3684.150000
1998.236018	3659.900000
1999.949449	3685.650000
2001.660809	3679.400000
2003.373541	3675.050000
2005.082483	3651.900000
2006.794517	3668.950000
2008.501043	3677.800000
2010.210660	3678.400000
2011.918211	3674.850000
2013.625413	3678.650000
2015.330550	3689.550000
2017.035341	3668.250000
2018.741503	3664.500000
2020.443883	3657.500000
2022.147634	3673.650000
2023.849323	3671.800000
2025.550667	3672.450000
2027.251665	3659.850000
2028.950602	3677.150000
2030.650911	3680.100000
2032.347445	3667.750000
2034.045350	3678.250000
2035.741196	3678.900000
2037.440128	3665.650000
2039.133574	3658.450000
2040.828391	3674.200000
2042.522866	3672.150000
2044.213572	3678.400000
2045.907362	3668.150000
2047.597385	3660.650000
2049.288779	3669.900000
2050.978120	3675.700000
2052.668831	3677.850000
2054.355779	3669.350000
2056.042388	3661.450000
2057.730366	3661.300000
2059.414585	3672.600000
2061.100175	3656.850000
2062.785425	3672.450000
2064.468626	3644.350000
2066.153198	3666.750000
2067.832307	3656.800000
2069.516201	3682.900000
2071.194634	3649.550000
2072.876145	3671.600000
2074.553904	3667.850000
2076.231327	3655.600000
2077.910119	3662.350000
2079.586869	3672.900000
2081.261577	3656.400000
2082.937654	3672.150000
2084.611691	3653.350000
2086.285392	3696.000000
2087.958758	3642.200000
2089.630085	3656.200000
2091.301078	3642.500000
2092.971737	3662.050000
2094.642062	3652.400000
2096.312053	3669.750000
2097.980008	3649.850000
2099.647630	3654.350000
2101.313217	3655.100000
2102.980173	3685.200000
2104.645096	3647.700000
2106.309687	3649.150000
2107.972246	3644.050000
2109.636173	3681.900000
2111.298069	3657.300000
2112.959635	3668.550000
2114.620869	3672.400000
2116.280075	3666.450000
2117.938950	3661.450000
2119.597496	3678.300000
2121.255711	3671.300000
2122.910204	3658.600000
2124.567761	3670.600000
2126.224989	3690.750000
2127.878495	3676.750000
2129.533369	3672.550000
2131.184524	3680.250000
2132.838742	3691.750000
2134.489243	3674.050000
2136.141110	3651.450000
2137.787569	3666.200000
2139.438783	3677.850000
2141.086283	3659.900000
2142.735150	3685.250000
2144.381998	3672.700000
2146.028521	3682.600000
2147.674718	3672.500000
2149.317207	3669.800000
2150.962754	3674.750000
2152.604594	3694.450000
2154.249491	3679.450000
2155.890682	3680.400000
2157.531551	3667.300000
2159.172095	3673.450000
2160.810627	3668.350000
2162.450525	3698.250000
2164.086723	3652.900000
2165.724287	3658.250000
2167.361529	3654.050000
2168.996761	3672.500000
2170.631672	3660.750000
2172.266260	3683.500000
2173.900528	3671.200000
2175.531102	3670.400000
2177.164728	3671.200000
2178.794662	3661.550000
2180.425961	3669.300000
2182.055255	3665.500000
2183.684230	3671.200000
2185.312885	3679.100000
2186.941221	3678.600000
2188.567555	3682.050000
2190.193570	3672.100000
2191.817583	3659.650000
2193.442962	3656.700000
2195.066340	3682.700000
2196.691083	3675.000000
2198.312145	3678.350000
2199.932890	3668.000000
2201.555000	3671.600000
2203.175112	3677.750000
2204.793227	3674.800000
2206.411027	3670.050000
2208.028512	3675.750000
2209.645681	3674.350000
2211.262535	3671.150000
2212.879073	3645.550000
2214.493619	3673.850000
2216.106172	3671.150000
2217.720089	3678.300000
2219.332015	3682.000000
2220.945304	3676.700000
2222.556603	3657.550000
2224.165912	3657.950000
2225.776585	3676.750000
2227.385269	3670.050000
2228.993640	3677.100000
2230.600025	3693.600000
2232.207773	3661.800000
2233.813534	3668.850000
2235.418984	3672.750000
2237.022449	3686.900000
2238.627277	3651.950000
2240.230121	3664.800000
2241.830982	3679.000000
2243.433206	3668.800000
2245.033448	3660.400000
2246.635052	3674.700000
2248.233003	3664.350000
2249.832317	3666.500000
2251.429651	3667.250000
2253.026677	3666.950000
2254.625065	3690.400000
2256.219804	3676.550000
2257.812566	3673.800000
2259.406691	3668.750000
2261.002177	3664.900000
2262.594018	3659.000000
2264.185553	3658.200000
2265.778450	3664.150000
2267.366037	3686.200000
2268.958320	3673.250000
2270.545297	3657.600000
2272.135301	3666.400000
2273.720001	3661.750000
2275.309395	3653.250000
2276.893487	3671.250000
2278.478939	3667.050000
2280.062423	3665.950000
2281.648932	3674.600000
2283.231808	3655.900000
2284.814381	3666.200000
2286.396650	3662.900000
2287.975289	3668.400000
2289.556953	3656.650000
2291.134988	3652.000000
2292.716046	3655.400000
2294.293477	3650.300000
2295.868945	3645.200000
2297.447435	3662.500000
2299.022301	3660.200000
2300.596866	3666.250000
2302.171131	3662.850000
2303.745095	3663.250000
2305.318758	3650.100000
2306.892122	3658.300000
2308.461867	3651.450000
2310.031313	3667.950000
2311.603777	3646.600000
2313.170967	3680.300000
2314.741175	3657.050000
2316.307768	3663.150000
2317.875721	3651.900000
2319.441718	3666.350000
2321.007418	3674.850000
2322.572820	3684.300000
2324.136269	3682.500000
2325.701077	3708.900000
2327.262277	3746.750000
2328.826491	3779.200000
2330.385443	3792.850000
2331.947410	3735.600000
2333.507425	3702.500000
2335.067146	3677.250000
2336.624917	3659.900000
2338.182393	3676.950000
2339.739575	3659.700000
2341.294809	3662.750000
2342.849750	3663.650000
2344.404396	3673.850000
2345.958749	3677.250000
2347.512809	3669.450000
2349.066574	3674.550000
2350.618395	3683.150000
2352.168274	3672.650000
2353.721160	3669.800000
2355.268803	3663.850000
2356.819455	3696.800000
2358.366515	3673.300000
2359.914933	3670.650000
2361.463060	3677.600000
2363.007598	3677.500000
2364.553494	3666.500000
2366.097452	3672.150000
2367.642767	3659.750000
2369.184497	3680.500000
2370.727584	3671.150000
2372.268735	3677.250000
2373.809597	3657.900000
2375.350170	3667.050000
2376.890454	3682.050000
2378.430449	3680.750000
2379.966866	3685.850000
2381.506284	3689.500000
2383.042124	3671.850000
2384.579322	3672.300000
2386.112944	3674.850000
2387.649566	3678.950000
2389.184258	3678.350000
2390.717020	3704.150000
2392.249495	3700.450000
2393.780042	3704.300000
2395.313587	3682.950000
2396.841921	3692.100000
2398.371612	3685.400000
2399.901016	3701.350000
2401.430136	3691.400000
2402.958971	3719.300000
2404.482600	3693.550000
2406.010865	3716.000000
2407.533928	3691.250000
2409.061624	3704.500000
2410.582481	3691.050000
2412.107971	3703.950000
2413.629900	3704.950000
2415.153185	3709.650000
2416.674548	3726.550000
2418.193992	3697.850000
2419.714791	3703.100000
2421.233672	3714.700000
2422.752270	3702.000000
2424.268951	3705.100000
2425.786986	3722.650000
2427.304740	3703.050000
2428.818943	3718.650000
2430.332865	3711.850000
2431.846507	3716.550000
2433.361504	3723.500000
2434.872952	3709.650000
2436.385755	3711.300000
2437.896644	3724.850000
2439.407255	3700.700000
2440.915954	3705.000000
2442.427639	3715.050000
2443.935781	3717.300000
2445.443645	3724.300000
2446.951231	3712.200000
2448.455276	3710.500000
2449.962306	3702.050000
2451.467428	3721.300000
2452.972273	3704.900000
2454.475211	3713.250000
2455.977873	3724.600000
2457.480258	3721.700000
2458.980738	3684.100000
2460.482571	3701.350000
2461.982499	3702.700000
2463.482152	3696.300000
2464.981530	3700.550000
2466.479005	3696.950000
2467.974578	3688.750000
2469.473131	3708.350000
2470.968156	3687.400000
2472.464533	3703.050000
2473.957384	3689.250000
2475.451588	3692.900000
2476.945518	3691.650000
2478.435924	3690.700000
2479.929308	3696.200000
2481.420794	3715.200000
2482.910383	3678.100000
2484.399700	3703.600000
2485.887121	3684.050000
2487.377518	3693.600000
2488.864397	3700.350000
2490.352627	3697.200000
2491.837340	3691.200000
2493.321784	3706.550000
2494.807578	3695.150000
2496.291481	3679.800000
2497.776734	3685.650000
2499.256854	3711.550000
2500.739947	3692.700000
2502.221149	3707.500000
2503.702082	3688.400000
2505.181126	3699.400000
2506.659901	3700.150000
2508.138408	3716.300000
2509.616647	3700.850000
2511.094617	3709.650000
2512.569082	3708.150000
2514.046517	3704.550000
2515.520448	3708.050000
2516.995729	3699.200000
2518.470743	3713.300000
2519.942256	3707.600000
2521.415120	3697.500000
2522.886101	3708.650000
2524.358432	3699.350000
2525.825649	3709.800000
2527.295833	3706.200000
2528.764136	3704.000000
2530.232174	3697.950000
2531.699947	3704.900000
2533.167455	3707.450000
2534.634698	3713.350000
2536.098449	3688.100000
2537.563550	3703.000000
2539.026774	3715.900000
2540.491347	3718.600000
2541.952432	3699.000000
2543.414866	3703.700000
2544.877037	3705.200000
2546.335722	3725.400000
2547.798978	3722.850000
2549.257139	3718.550000
2550.716648	3707.700000
2552.171063	3722.450000
2553.630049	3724.450000
2555.087163	3704.650000
2556.542406	3706.200000
2557.997387	3724.800000
2559.450500	3720.900000
2560.904961	3725.450000
2562.357552	3720.800000
2563.809884	3727.400000
2565.260349	3724.700000
2566.713769	3723.600000
2568.162107	3713.350000
2569.613400	3743.050000
2571.062828	3722.700000
2572.508783	3712.800000
2573.957693	3728.550000
2575.403133	3737.600000
2576.849920	3728.350000
2578.294845	3733.200000
2579.739511	3738.300000
2581.185525	3729.150000
2582.628073	3742.250000
2584.071968	3720.900000
2585.512398	3724.050000
2586.954175	3757.650000
2588.394093	3725.600000
2589.835358	3743.150000
2591.273161	3745.600000
2592.713914	3742.150000
2594.149605	3745.050000
2595.588245	3756.500000
2597.025027	3755.600000
2598.459954	3770.100000
2599.897828	3755.700000
2601.330645	3760.750000
2602.764809	3760.950000
2604.197119	3776.350000
2605.630775	3770.750000
2607.062578	3773.200000
2608.494127	3761.900000
2609.925424	3778.650000
2611.354868	3771.450000
2612.784060	3792.700000
2614.211402	3787.700000
2615.640089	3809.700000
2617.068525	3802.450000
2618.493513	3819.700000
2619.919848	3779.250000
2621.344334	3810.400000
2622.770166	3813.000000
2624.192554	3830.450000
2625.616288	3830.850000
2627.038175	3833.800000
2628.459813	3820.700000
2629.879605	3825.350000
2631.300743	3847.950000
2632.721631	3878.450000
2634.139081	3838.800000
2635.559470	3858.650000
2636.976422	3850.750000
2638.393125	3882.750000
2639.809580	3873.300000
2641.225787	3903.800000
2642.641746	3870.800000
2644.055864	3900.000000
2645.469734	3913.200000
2646.881766	3930.150000
2648.295141	3930.600000
2649.705087	3920.600000
2651.117969	3915.600000
2652.527422	3958.450000
2653.936629	3951.550000
2655.344000	3969.200000
2656.754305	3978.500000
2658.162775	3981.000000
2659.569409	3976.300000
2660.975798	3996.100000
2662.380353	3975.000000
2663.786252	4003.550000
2665.190318	3986.400000
2666.594139	3997.300000
2667.997716	3988.350000
2669.399462	3999.950000
2670.802551	3981.800000
2672.202222	4003.050000
2673.603237	4013.100000
2675.000836	3979.100000
2676.401365	3976.250000
2677.798478	4003.050000
2679.196935	3979.850000
2680.593565	3985.200000
2681.989952	3980.700000
2683.386097	3980.650000
2684.780416	3974.400000
2686.176078	3973.900000
2687.568331	3968.500000
2688.961926	3956.750000
2690.353697	3943.250000
2691.746811	3944.300000
2693.138101	3923.650000
2694.527568	3923.750000
2695.916795	3907.550000
2697.305783	3908.900000
2698.696112	3901.650000
2700.081458	3906.850000
2701.469727	3879.850000
2702.856176	3882.500000
2704.242386	3884.200000
2705.628357	3874.400000
2707.010930	3861.950000
2708.394845	3883.050000
2709.778522	3840.200000
2711.161960	3857.150000
2712.542004	3852.900000
2713.923388	3849.800000
2715.302958	3822.250000
2716.683868	3821.300000
2718.062964	3811.200000
2719.440246	3823.650000
2720.818869	3802.300000
2722.195679	3801.200000
2723.572252	3767.750000
2724.948590	3800.000000
2726.323117	3772.300000
2727.698984	3775.550000
2729.071464	3769.450000
2730.446860	3786.900000
2731.817296	3764.500000
2733.189073	3771.450000
2734.560615	3761.600000
2735.930349	3759.650000
2737.301424	3761.700000
2738.670690	3761.650000
2740.039723	3742.150000
2741.406950	3762.600000
2742.773943	3742.700000
2744.140704	3758.600000
2745.507233	3724.850000
2746.871956	3723.600000
2748.236447	3738.350000
2749.600707	3732.600000
2750.964734	3731.550000
2752.328530	3719.600000
2753.688952	3716.450000
2755.052284	3713.000000
2756.410674	3706.750000
2757.771974	3737.600000
2759.129904	3693.100000
2760.490742	3720.000000
2761.849781	3700.500000
2763.205451	3709.500000
2764.564029	3688.950000
2765.919240	3703.550000
2767.274222	3693.300000
2768.627408	3702.250000
2769.983500	3694.850000
2771.336227	3663.500000
2772.688727	3690.200000
2774.040998	3673.550000
2775.394607	3678.000000
2776.744856	3693.800000
2778.093310	3692.600000
2779.444670	3691.850000
2780.792670	3686.600000
2782.142008	3681.150000
2783.489554	3685.800000
2784.836874	3680.850000
2786.183967	3683.000000
2787.529269	3670.850000
2788.874344	3668.650000
2790.219194	3674.650000
2791.563818	3668.750000
2792.905090	3677.600000
2794.247700	3662.100000
2795.590084	3669.550000
2796.932243	3678.750000
2798.271053	3671.500000
2799.612763	3666.850000
2800.951125	3687.200000
2802.290823	3671.100000
2803.628737	3679.600000
2804.964866	3674.350000
2806.300771	3680.600000
2807.638014	3665.700000
2808.973473	3696.950000
2810.308709	3680.150000
2811.642162	3663.250000
2812.976952	3685.800000
2814.308402	3664.150000
2815.642747	3679.100000
2816.972194	3685.250000
2818.302978	3683.250000
2819.633540	3681.550000
2820.962323	3658.750000
2822.292442	3690.750000
2823.620783	3671.100000
2824.948903	3665.100000
2826.275245	3671.500000
2827.602924	3692.200000
2828.927269	3668.550000
2830.252951	3685.150000
2831.576857	3668.050000
2832.900544	3657.550000
2834.225566	3676.000000
2835.547258	3688.100000
2836.868732	3643.450000
2838.189987	3670.200000
2839.511023	3654.800000
2840.830286	3680.750000
2842.150885	3663.500000
2843.469713	3675.100000
2844.788322	3675.800000
2846.105160	3657.050000
2847.421781	3657.650000
2848.738185	3674.050000
2850.052819	3661.550000
2851.368789	3661.900000
2852.681438	3680.000000
2853.995422	3660.250000
2855.309190	3659.900000
2856.622741	3672.400000
2857.934526	3655.900000
2859.244544	3685.050000
2860.555897	3663.500000
2861.863935	3690.800000
2863.173307	3662.000000
2864.482465	3808.050000
2865.791407	3808.050000
2867.098585	3669.800000
2868.404001	3672.750000
2869.710750	3689.800000
2871.015738	3678.750000
2872.320512	3686.500000
2873.623524	3671.600000
2874.929417	3695.450000
2876.230456	3658.600000
2877.532829	3674.550000
2878.833442	3685.150000
2880.135389	3687.750000
2881.437122	3667.300000
2882.735552	3703.000000
2884.035315	3679.650000
2885.333321	3686.000000
2886.631115	3678.700000
2887.927153	3699.350000
2889.224524	3663.450000
2890.520139	3684.100000
2891.815543	3681.900000
2893.110736	3681.650000
2894.402632	3664.000000
2895.697404	3671.100000
2896.988879	3684.450000
2898.281687	3680.850000
2899.574285	3661.500000
2900.863589	3685.550000
2902.154225	3657.850000
2903.443110	3675.100000
2904.733327	3674.550000
2906.020253	3691.050000
2907.308511	3689.350000
2908.595020	3687.350000
2909.881320	3695.000000
2911.167413	3678.250000
2912.451757	3692.250000
2913.738972	3670.700000
2915.021361	3672.650000
2916.305082	3695.300000
2917.587057	3693.000000
2918.868824	3661.900000
2920.148847	3670.000000
2921.431739	3674.800000
2922.712886	3663.850000
2923.990751	3681.900000
2925.271485	3679.350000
2926.548938	3665.350000
2927.826185	3663.750000
2929.101690	3687.600000
2930.380063	3671.550000
2931.653622	3664.300000
2932.930048	3668.450000
2934.204733	3672.500000
2935.477677	3657.400000
2936.751953	3658.600000
2938.024489	3663.900000
2939.296820	3675.700000
2940.565879	3637.250000
2941.837803	3656.300000
2943.107989	3643.050000
2944.377971	3678.550000
2945.647750	3657.850000
2946.915793	3654.550000
2948.182099	3634.150000
2949.448204	3671.000000
2950.715638	3650.300000
2951.981338	3651.400000
2953.246835	3653.700000
2954.512130	3657.200000
2955.774160	3641.600000
2957.037520	3646.750000
2958.300679	3644.450000
2959.562106	3651.350000
2960.824862	3620.800000
2962.085886	3659.150000
2963.345180	3624.950000
2964.604274	3647.050000
2965.863167	3642.150000
2967.121860	3644.600000
2968.380353	3636.000000
2969.637117	3642.300000
2970.893681	3614.800000
2972.148518	3633.800000
2973.404683	3622.900000
2974.657594	3639.700000
2975.911834	3617.750000
2977.165875	3655.950000
2978.418190	3613.800000
2979.670306	3632.450000
2980.920698	3622.050000
2982.173945	3626.700000
2983.422415	3614.150000
2984.673740	3622.450000
2985.921815	3625.300000
2987.169694	3627.950000
2988.417375	3633.800000
2989.664859	3613.500000
2990.910622	3614.250000
2992.156189	3622.150000
2993.403083	3612.150000
2994.646733	3614.050000
2995.891711	3610.100000
2997.133445	3620.850000
2998.378031	3622.350000
2999.620898	3619.000000
3000.860524	3608.950000
3002.103000	3629.900000
3003.342236	3618.400000
3004.582800	3628.750000
3005.821648	3602.950000
3007.060300	3603.100000
3008.297237	3605.850000
3009.535502	3609.800000
3010.772051	3611.150000
3012.008407	3608.000000
3013.244569	3612.250000
3014.479017	3600.500000
3015.713273	3600.600000
3016.947335	3609.900000
3018.179685	3603.550000
3019.410323	3632.450000
3020.643807	3608.300000
3021.875579	3619.400000
3023.105641	3589.300000
3024.335510	3628.200000
3025.563671	3609.550000
3026.793157	3613.300000
3028.020934	3614.050000
3029.248520	3612.050000
3030.477433	3611.550000
3031.701603	3616.600000
3032.928616	3591.900000
3034.152405	3609.900000
3035.377521	3596.750000
3036.600930	3608.950000
3037.824149	3589.000000
3039.045663	3610.550000
3040.270018	3595.900000
3041.489638	3600.150000
3042.710584	3596.250000
3043.931341	3604.650000
3045.150394	3592.400000
3046.370772	3599.350000
3047.587934	3599.650000
3048.806422	3601.950000
3050.023207	3608.400000
3051.239805	3606.800000
3052.456214	3602.900000
3053.669411	3614.300000
3054.885445	3606.300000
3056.098267	3601.000000
3057.313926	3607.100000
3058.524862	3601.450000
3059.737123	3583.600000
3060.949198	3589.850000
3062.161085	3596.500000
3063.371276	3603.650000
3064.581280	3588.350000
3065.791098	3586.900000
3066.999220	3616.800000
3068.207157	3605.750000
3069.413398	3574.250000
3070.620964	3614.750000
3071.826835	3599.325000
3073.032522	3583.900000
3074.238023	3592.550000
3075.441831	3599.850000
3076.646963	3581.400000
3077.850402	3609.450000
3079.052150	3569.700000
3080.253713	3607.500000
3081.455093	3585.850000
3082.656289	3581.600000
3083.855795	3587.350000
3085.055118	3589.050000
3086.255764	3582.550000
3087.454720	3572.250000
3088.650482	3585.300000
3089.849073	3592.750000
3091.044470	3570.250000
3092.241190	3594.000000
3093.434718	3582.500000
3094.631074	3607.600000
3095.825744	3578.500000
3097.017223	3589.550000
3098.213033	3593.000000
3099.404149	3588.050000
3100.596589	3566.150000
3101.785841	3589.450000
3102.977918	3560.050000
3104.168312	3587.800000
3105.355520	3590.700000
3106.544051	3597.000000
3107.733903	3576.450000
3108.920572	3590.500000
3110.107060	3577.000000
3111.293370	3577.300000
3112.481001	3573.000000
3113.665450	3584.000000
3114.848220	3572.000000
3116.033812	3554.600000
3117.217725	3594.250000
3118.399959	3583.900000
3119.582014	3583.700000
3120.763891	3584.750000
3121.945590	3580.250000
3123.125612	3579.450000
3124.303957	3576.050000
3125.485122	3575.450000
3126.663112	3585.550000
3127.840926	3586.450000
3129.018562	3585.850000
3130.194523	3573.350000
3131.370307	3565.700000
3132.547413	3567.050000
3133.722844	3569.800000
3134.896602	3576.700000
3136.068687	3580.350000
3137.242094	3595.850000
3138.415324	3561.550000
3139.586883	3577.800000
3140.759762	3581.850000
3141.929474	3595.500000
3143.100507	3568.400000
3144.269870	3593.400000
3145.437562	3573.050000
3146.608070	3587.400000
3147.773920	3587.900000
3148.944078	3585.250000
3150.109580	3576.450000
3151.274907	3586.300000
3152.440061	3566.550000
3153.605042	3588.300000
3154.771342	3579.650000
3155.932990	3570.100000
3157.095957	3562.400000
3158.258752	3578.000000
3159.421374	3571.700000
3160.582331	3569.000000
3161.743115	3562.750000
3162.903727	3567.050000
3164.062675	3570.000000
3165.221452	3561.950000
3166.380057	3544.550000
3167.538489	3567.950000
3168.696751	3548.250000
3169.853350	3563.550000
3171.008288	3573.200000
3172.164545	3585.700000
3173.319141	3557.450000
3174.473567	3574.100000
3175.626333	3564.800000
3176.778928	3567.300000
3177.931354	3570.750000
3179.083610	3572.550000
3180.235695	3566.700000
3181.384635	3570.350000
3182.536381	3564.650000
3183.686469	3585.450000
3184.834901	3555.050000
3185.983163	3572.600000
3187.131257	3563.100000
3188.279182	3575.350000
3189.425451	3579.250000
3190.571552	3575.200000
3191.715999	3577.750000
3192.860278	3572.850000
3194.004389	3563.550000
3195.149817	3574.400000
3196.292107	3553.100000
3197.434230	3576.950000
3198.576185	3558.750000
3199.717973	3586.900000
3200.859594	3571.750000
3201.998080	3573.650000
3203.137883	3559.100000
3204.279004	3564.650000
3205.416990	3565.350000
3206.553327	3563.800000
3207.689498	3569.850000
3208.826986	3553.450000
3209.962826	3573.350000
3211.099983	3563.750000
3212.232527	3562.200000
3213.369353	3570.200000
3214.501567	3559.400000
3215.635098	3585.200000
3216.768465	3548.550000
3217.898704	3564.500000
3219.031741	3568.700000
3220.161652	3563.450000
3221.292879	3544.000000
3222.420982	3549.600000
3223.551881	3543.900000
3224.681136	3555.100000
3225.808748	3567.550000
3226.933237	3548.800000
3228.062002	3540.150000
3229.187645	3555.100000
3230.313126	3548.950000
3231.436965	3557.200000
3232.563598	3558.350000
3233.685634	3548.400000
3234.808986	3528.100000
3235.932176	3532.700000
3237.055203	3540.500000
3238.176592	3559.250000
3239.297818	3536.600000
3240.417407	3557.000000
3241.536834	3542.000000
3242.654623	3555.300000
3243.775204	3536.250000
3244.892672	3568.800000
3246.009979	3521.050000
3247.127126	3542.700000
3248.242637	3534.700000
3249.359462	3544.500000
3250.473178	3544.200000
3251.589683	3548.000000
3252.704554	3539.200000
3253.816316	3560.250000
3254.927918	3534.500000
3256.040836	3532.550000
3257.153594	3543.300000
3258.263246	3551.150000
3259.374213	3544.150000
3260.485021	3547.050000
3261.594197	3551.350000
3262.701743	3524.550000
3263.810602	3551.050000
3264.919304	3551.100000
3266.024903	3556.900000
3267.131816	3542.700000
3268.237100	3529.200000
3269.343698	3558.100000
3270.447196	3537.400000
3271.552009	3563.950000
3272.656664	3552.950000
3273.758220	3537.650000
3274.859620	3542.850000
3275.962334	3550.700000
3277.064892	3537.650000
3278.164353	3537.150000
3279.266598	3531.850000
3280.365747	3545.450000
3281.463272	3538.100000
3282.560641	3558.150000
3283.660792	3532.450000
3284.757851	3542.650000
3285.854754	3543.050000
3286.951502	3547.600000
3288.043692	3533.550000
3289.140130	3523.050000
3290.234946	3519.600000
3291.329608	3527.250000
3292.422648	3534.250000
3293.515533	3553.100000
3294.606799	3530.350000
3295.699376	3533.350000
3296.790334	3530.200000
3297.879672	3533.550000
3298.968857	3531.950000
3300.059355	3525.450000
3301.146768	3524.950000
3302.234028	3539.700000
3303.322601	3521.800000
3304.411022	3533.300000
3305.494895	3527.800000
3306.583010	3530.400000
3307.668043	3508.850000
3308.751461	3529.950000
3309.836191	3526.050000
3310.919305	3540.550000
3312.003732	3544.350000
3313.085080	3530.500000
3314.167740	3539.750000
3315.248786	3537.500000
3316.329681	3525.450000
3317.408962	3547.900000
3318.488093	3532.150000
3319.568536	3533.700000
3320.645904	3521.150000
3321.724584	3542.000000
3322.801652	3534.650000
3323.878571	3540.050000
3324.953878	3517.450000
3326.029036	3529.250000
3327.105505	3536.500000
3328.178904	3539.950000
3329.252154	3540.450000
3330.326714	3537.600000
3331.399666	3527.900000
3332.471009	3544.450000
3333.543663	3528.900000
3334.613251	3540.600000
3335.684149	3532.050000
3336.753440	3542.950000
3337.824042	3521.550000
3338.893037	3517.850000
3339.960426	3527.700000
3341.026210	3517.750000
3342.096220	3519.500000
3343.163167	3533.450000
3344.227052	3521.400000
3345.293705	3523.850000
3346.358753	3528.000000
3347.422198	3495.100000
3348.485497	3516.400000
3349.548649	3531.600000
3350.611655	3519.500000
3351.674515	3521.100000
3352.735773	3520.450000
3353.793974	3525.700000
3354.856395	3520.800000
3355.915761	3515.900000
3356.974981	3539.250000
3358.035511	3532.300000
3359.091531	3528.250000
3360.150315	3525.550000
3361.204592	3514.700000
3362.261633	3519.600000
3363.317075	3521.000000
3364.373827	3528.400000
3365.428980	3526.200000
3366.482536	3534.950000
3367.534496	3538.900000
3368.589217	3524.950000
3369.640889	3530.700000
3370.692418	3509.900000
3371.745255	3508.200000
3372.795045	3530.900000
3373.846144	3506.050000
3374.894197	3535.500000
3375.945009	3530.800000
3376.992777	3531.700000
3378.040402	3513.850000
3379.087884	3537.950000
3380.133774	3509.300000
3381.180972	3526.700000
3382.225128	3520.500000
3383.272042	3515.200000
3384.317364	3514.450000
3385.359645	3520.050000
3386.401786	3514.600000
3387.445234	3530.500000
3388.488541	3524.650000
3389.530259	3540.450000
3390.571835	3523.550000
3391.613270	3534.350000
3392.653117	3522.900000
3393.691375	3520.700000
3394.730941	3519.700000
3395.770367	3540.300000
3396.808205	3513.700000
3397.844456	3524.900000
3398.880568	3530.350000
3399.917987	3527.350000
3400.952373	3512.900000
3401.988066	3525.050000
3403.023620	3526.250000
3404.056143	3538.850000
3405.091419	3517.000000
3406.123664	3529.700000
3407.155771	3528.000000
3408.186294	3537.650000
3409.218124	3508.050000
3410.249816	3541.950000
3411.278480	3514.650000
3412.307007	3538.450000
3413.336840	3521.700000
3414.366536	3532.400000
3415.393206	3515.800000
3416.421183	3541.350000
3417.446135	3520.200000
3418.473837	3524.600000
3419.498516	3511.350000
3420.524501	3525.900000
3421.548906	3510.700000
3422.573175	3522.050000
3423.595865	3528.450000
3424.618419	3528.900000
3425.642279	3508.850000
3426.663119	3523.250000
3427.683823	3523.700000
3428.705834	3533.350000
3429.724826	3511.300000
3430.743682	3527.650000
3431.763845	3499.800000
3432.780991	3520.050000
