-116.475622	32.500000
-113.806022	50.500000
-111.139357	28.400000
-108.473444	36.100000
-105.810463	35.100000
-103.146053	36.100000
-100.484573	19.400000
-97.821664	44.700000
-95.163861	55.700000
-92.504629	38.600000
-89.846145	65.500000
-87.190585	47.200000
-84.533597	48.700000
-81.881707	34.200000
-79.228387	24.000000
-76.577986	37.800000
-73.926156	61.600000
-71.279417	40.300000
-68.631249	49.700000
-65.983823	65.500000
-63.339311	60.000000
-60.693371	43.800000
-58.052512	51.800000
-55.410224	50.800000
-52.770845	17.800000
-50.130036	58.900000
-47.489968	57.300000
-44.854972	48.400000
-42.218548	83.200000
-39.585026	71.300000
-36.950076	84.900000
-34.320191	57.700000
-31.686714	63.900000
-29.058299	74.400000
-26.430618	71.400000
-23.801508	101.800000
-21.177455	125.500000
-18.549813	120.400000
-15.927224	169.100000
-13.305367	244.200000
-10.684240	386.200000
-8.063843	948.200000
-5.446335	3284.400000
-2.827398	9900.000000
-0.211346	21998.400000
2.403977	24575.300000
5.018573	10995.500000
7.630286	1077.400000
10.243428	274.000000
12.851536	172.700000
15.463226	135.200000
18.069885	118.900000
20.677972	91.200000
23.285335	113.200000
25.887673	85.300000
28.493589	97.200000
31.094483	79.600000
33.696805	73.000000
36.294110	90.800000
38.894990	80.300000
41.490855	67.000000
44.088149	105.200000
46.684723	89.100000
49.276288	96.000000
51.869281	85.700000
54.459413	94.500000
57.050973	107.500000
59.639673	94.200000
62.229800	90.400000
64.814928	98.900000
67.401484	117.000000
69.987326	109.900000
72.570314	98.900000
75.154728	84.800000
77.732014	126.000000
80.312866	109.900000
82.890869	112.700000
85.468162	151.500000
88.046881	116.100000
90.620618	112.600000
93.195783	144.900000
95.768104	165.400000
98.339717	166.100000
100.908490	162.500000
103.478690	201.300000
106.046052	214.100000
108.614839	232.200000
111.180790	295.300000
113.743906	371.000000
116.310578	461.000000
118.868029	592.600000
121.431165	812.300000
123.989341	1210.500000
126.551072	1736.000000
129.107846	2566.900000
131.666047	3891.900000
134.219294	5823.400000
136.771844	8555.500000
139.327944	11997.200000
141.879096	15746.600000
144.429551	19333.500000
146.979308	22270.000000
149.526246	24412.300000
152.072489	25490.600000
154.620157	25920.600000
157.167129	26239.100000
159.709166	25906.800000
162.250509	25768.700000
164.791159	25817.600000
167.333235	25609.300000
169.872499	25641.800000
172.408955	25424.100000
174.944719	25185.800000
177.481909	25032.800000
180.018408	24867.800000
182.552101	24746.700000
185.082990	24704.300000
187.613192	24497.100000
190.144818	24398.700000
192.673643	24357.500000
195.199669	24218.600000
197.725009	24240.500000
200.251774	24307.700000
202.775743	24220.100000
205.299027	24244.200000
207.821626	24171.600000
210.341432	24097.700000
212.860555	23871.700000
215.378995	23959.500000
217.898859	23998.400000
220.411722	24059.400000
222.928116	24002.800000
225.443828	24116.200000
227.954650	24146.600000
230.466897	24302.200000
232.976362	24316.100000
235.485148	24372.000000
237.993255	24385.000000
240.502787	24313.800000
243.007438	24371.800000
245.511413	24296.700000
248.016812	24595.500000
250.517336	24568.800000
253.021384	24606.900000
255.518460	24551.500000
258.019060	24654.200000
260.516888	24722.800000
263.014043	24610.000000
265.510525	24758.500000
268.002144	24662.200000
270.497283	24758.000000
272.989655	24713.600000
275.481357	24775.000000
277.970296	24740.200000
280.460659	24770.100000
282.948259	24627.700000
285.433100	24661.500000
287.921456	24606.000000
290.402872	24620.100000
292.887802	24586.700000
295.367887	24666.400000
297.851484	24563.900000
300.330238	24654.600000
302.810416	24828.400000
305.287841	24767.900000
307.764603	24646.700000
310.240702	24707.500000
312.714052	24621.100000
315.186740	24854.600000
317.658767	24693.600000
320.130133	24895.600000
322.598754	25057.900000
325.066717	25029.900000
327.536101	24792.400000
330.000663	24826.100000
332.468729	24654.300000
334.931975	24437.400000
337.394563	24606.000000
339.856495	24222.800000
342.317770	24392.400000
344.776311	24314.300000
347.236274	24126.300000
349.693504	23841.300000
352.150080	23897.700000
354.606002	23612.400000
357.059194	23292.700000
359.513809	23304.100000
361.963622	23111.200000
364.416931	22866.800000
366.865442	22609.300000
369.313301	22311.000000
371.762583	22111.600000
374.207071	21810.000000
376.652981	21534.600000
379.098241	21327.600000
381.540783	21261.300000
383.982677	20943.700000
386.423924	20831.900000
388.862455	20628.700000
391.302408	20355.000000
393.739647	20177.000000
396.174174	19806.700000
398.612189	19850.800000
401.045427	19618.800000
403.480086	19324.800000
405.909973	19241.900000
408.343345	19106.000000
410.771947	19083.900000
413.199907	18673.100000
415.629289	18664.900000
418.053905	18666.800000
420.479943	18492.500000
422.905340	18420.100000
425.330097	18355.100000
427.750096	18304.400000
430.171516	18308.500000
432.590239	18246.300000
435.010383	18173.600000
437.427832	18220.800000
439.846701	18122.000000
442.262877	18253.900000
444.674305	18242.600000
447.089211	18090.000000
449.501426	18202.700000
451.913007	18150.300000
454.323954	18196.300000
456.732215	18028.800000
459.139843	18045.000000
461.546839	18082.700000
463.953204	17963.600000
466.356886	17939.500000
468.759938	17756.800000
471.162360	17918.400000
473.564152	17808.900000
475.963267	17749.100000
478.363801	17661.400000
480.763706	17600.400000
483.158888	17500.100000
485.557537	17501.500000
487.951466	17493.900000
490.344769	17280.200000
492.737446	17306.200000
495.129498	17307.200000
497.522968	17148.700000
499.911726	17073.500000
502.297818	17065.500000
504.685330	17040.000000
507.072219	16894.000000
509.456444	16900.200000
511.842087	16881.000000
514.225069	16762.100000
516.605390	16722.500000
518.987130	16813.400000
521.366211	16677.800000
523.746711	16797.700000
526.124553	16552.900000
528.499740	16705.800000
530.874309	16612.300000
533.250296	16594.200000
535.623631	16262.900000
537.998383	16274.600000
540.368450	16071.000000
542.737901	16045.400000
545.108770	15723.600000
547.474959	15467.400000
549.842566	15417.000000
552.207527	15158.200000
554.571875	14982.800000
556.935610	14729.000000
559.300763	14598.800000
561.661244	14384.400000
564.023143	14215.700000
566.382401	13909.400000
568.739022	13775.000000
571.099087	13635.300000
573.452461	13374.200000
575.809280	13187.100000
578.163464	12913.000000
580.517039	12675.500000
582.870007	12481.100000
585.220342	12146.800000
587.572095	12118.600000
589.917171	11851.400000
592.267711	11668.300000
594.611577	11546.200000
596.960905	11346.300000
599.305584	11208.900000
601.647639	11058.700000
603.991111	10932.100000
606.331960	10901.900000
608.672207	10699.700000
611.009833	10762.900000
613.350894	10565.900000
615.687317	10577.000000
618.025157	10450.100000
620.360380	10469.700000
622.692987	10426.100000
625.027010	10482.100000
627.358419	10487.200000
629.689230	10467.800000
632.019444	10395.400000
634.349059	10331.500000
636.674051	10389.100000
639.004485	10369.400000
641.330298	10474.400000
643.653503	10369.800000
645.978125	10427.900000
648.300141	10446.200000
650.621563	10459.100000
652.940383	10485.600000
655.260618	10540.300000
657.580260	10658.300000
659.897301	10681.700000
662.213750	10715.300000
664.527601	10878.300000
666.842868	10964.000000
669.155538	11127.100000
671.469623	11180.500000
673.779108	11307.000000
676.090009	11401.900000
678.398317	11421.000000
680.706037	11639.000000
683.015171	11778.600000
685.319713	11970.800000
687.623669	11994.400000
689.927039	12171.500000
692.231823	12356.800000
694.532021	12387.400000
696.833633	12570.200000
699.134661	12673.300000
701.431106	12783.000000
703.728967	12897.600000
706.026244	13033.800000
708.322938	13091.500000
710.615056	13261.400000
712.910585	13327.900000
715.201540	13561.700000
717.493910	13617.400000
719.783705	13763.900000
722.072919	13797.500000
724.361554	13991.700000
726.647616	14179.100000
728.935093	14161.800000
731.219998	14300.500000
733.504326	14490.000000
735.786085	14665.100000
738.069258	14603.100000
740.351854	14752.200000
742.629894	14819.900000
744.909349	15077.900000
747.188227	15267.000000
749.466531	15314.600000
751.740285	15560.500000
754.015452	15621.500000
756.290046	15727.600000
758.562081	15802.200000
760.835529	15994.500000
763.106419	16120.800000
765.374753	16357.900000
767.644500	16442.300000
769.911693	16610.900000
772.178315	16631.700000
774.444367	16928.600000
776.707868	16846.100000
778.972782	17065.800000
781.237126	17133.500000
783.496941	17251.800000
785.758168	17399.800000
788.018828	17540.500000
790.276942	17629.300000
792.532511	17742.300000
794.791471	17765.500000
797.043932	17948.700000
799.301759	17869.600000
801.555068	18024.700000
803.805837	18194.800000
806.058018	18014.100000
808.307660	18236.600000
810.558715	18307.300000
812.805258	18255.900000
815.053213	18293.400000
817.298634	18568.700000
819.545466	18533.800000
821.791737	18583.900000
824.033503	18670.200000
826.278653	18949.500000
828.517330	18942.400000
830.759389	18935.200000
832.996950	19132.400000
835.235923	19372.900000
837.472369	19462.300000
839.710226	19601.800000
841.945558	19692.600000
844.178367	20021.300000
846.412587	20136.300000
848.644284	20358.800000
850.875427	20691.900000
853.106015	20995.000000
855.336049	21413.800000
857.565529	21566.400000
859.790527	21925.400000
862.018900	22355.500000
864.242793	22555.300000
866.468098	23036.900000
868.688927	23595.800000
870.913128	23979.400000
873.132856	24385.200000
875.353994	24858.000000
877.574582	25532.000000
879.792661	25927.500000
882.012149	26296.600000
884.227171	26660.200000
886.441645	27069.400000
888.655572	27431.700000
890.868952	27594.600000
893.081784	27644.100000
895.294070	27779.800000
897.503853	28134.700000
899.713091	28005.300000
901.921784	28009.400000
904.127978	28001.500000
906.335581	27697.000000
908.540686	27306.500000
910.745248	27168.400000
912.947315	26806.800000
915.150791	26286.800000
917.351773	25742.200000
919.552213	25197.400000
921.754062	24602.600000
923.949520	23930.900000
926.148337	23310.700000
928.342715	22686.400000
930.540451	22016.900000
932.733751	21434.500000
934.928460	21004.800000
937.120683	20427.800000
939.312367	19922.900000
941.503514	19560.200000
943.692178	19407.600000
945.880306	19108.800000
948.065953	18817.700000
950.254952	18821.700000
952.439528	18604.300000
954.623569	18587.600000
956.810960	18505.600000
958.990047	18606.600000
961.172485	18622.300000
963.354389	18536.400000
965.533818	18539.700000
967.710775	18671.700000
969.889140	18601.900000
972.068912	18731.400000
974.242335	18432.600000
976.419104	18421.700000
978.591466	18359.300000
980.765236	18111.700000
982.934602	17810.300000
985.107312	17690.000000
987.277557	17383.500000
989.447273	17003.900000
991.616460	16711.900000
993.781250	16405.600000
995.949381	16166.600000
998.113118	15879.400000
1000.278261	15529.800000
1002.440945	15215.600000
1004.603104	14876.200000
1006.762806	14730.200000
1008.921983	14412.000000
1011.082567	14168.300000
1013.240697	13951.600000
1015.398302	13595.100000
1017.555384	13291.200000
1019.711942	13095.000000
1021.864121	12937.200000
1024.017707	12695.300000
1026.170771	12537.200000
1028.321386	12373.200000
1030.473408	12340.700000
1032.621056	12099.000000
1034.772036	11977.300000
1036.918645	11804.700000
1039.064735	11756.600000
1041.210307	11550.400000
1043.357284	11410.400000
1045.497972	11276.800000
1047.641990	11113.500000
1049.783567	10999.700000
1051.924628	10890.500000
1054.067093	10838.300000
1056.203279	10687.500000
1058.342790	10533.800000
1060.477947	10433.100000
1062.616428	10346.800000
1064.750555	10201.400000
1066.884169	10030.300000
1069.019188	9931.600000
1071.149857	9811.000000
1073.281931	9681.100000
1075.411576	9620.500000
1077.540709	9448.100000
1079.669330	9261.100000
1081.797440	9142.000000
1083.923124	9067.300000
1086.048298	8946.900000
1088.174876	8791.800000
1090.297116	8530.800000
1092.420761	8431.700000
1094.540071	8291.400000
1096.664611	8036.600000
1098.782905	7771.400000
1100.902604	7725.300000
1103.019884	7530.700000
1105.136658	7302.400000
1107.252925	7126.100000
1109.366776	7007.600000
1111.482032	6768.700000
1113.592964	6594.700000
1115.707209	6449.700000
1117.817133	6292.300000
1119.928461	6085.100000
1122.039284	5932.200000
1124.145791	5794.600000
1126.255608	5643.700000
1128.361110	5495.000000
1130.468015	5330.100000
1132.568705	5199.700000
1134.674607	5118.900000
1136.776200	4929.000000
1138.879196	4848.300000
1140.981691	4681.900000
1143.077979	4526.700000
1145.179475	4394.000000
1147.276667	4296.800000
1149.373362	4189.600000
1151.469558	4090.100000
1153.565257	3937.300000
1155.660457	3874.800000
1157.753261	3745.000000
1159.847468	3707.500000
1161.935483	3601.000000
1164.028696	3505.700000
1166.115721	3425.300000
1168.206045	3324.200000
1170.292082	3277.600000
1172.381416	3174.300000
1174.464569	3078.100000
1176.549124	3018.400000
1178.635081	2906.300000
1180.716756	2914.200000
1182.799833	2830.200000
1184.880524	2709.100000
1186.960723	2697.700000
1189.040431	2614.800000
1191.119648	2541.400000
1193.196483	2529.000000
1195.270937	2466.000000
1197.348682	2416.400000
1199.422158	2395.600000
1201.497034	2333.700000
1203.567643	2313.200000
1205.639653	2285.700000
1207.709288	2273.700000
1209.780323	2229.800000
1211.850870	2191.100000
1213.917156	2169.900000
1215.984843	2138.600000
1218.050158	2111.500000
1220.116873	2109.400000
1222.179332	2097.900000
1224.245076	2067.100000
1226.306566	2057.800000
1228.369457	2067.100000
1230.429980	2026.100000
1232.490019	2027.400000
1234.549576	1991.300000
1236.606767	1995.600000
1238.663477	1976.400000
1240.717823	1948.500000
1242.775451	1964.300000
1244.830716	1960.100000
1246.881740	1994.800000
1248.934164	1898.500000
1250.986108	1941.000000
1253.035694	1934.300000
1255.084801	1877.300000
1257.133430	1904.300000
1259.181580	1886.100000
1261.229251	1894.100000
1263.272692	1878.100000
1265.319409	1857.400000
1267.363772	1879.600000
1269.407659	1863.300000
1271.449194	1841.500000
1273.488380	1782.700000
1275.530839	1840.300000
1277.569075	1799.300000
1279.608710	1814.700000
1281.647870	1826.400000
1283.682811	1812.900000
1285.719151	1842.100000
1287.753147	1833.200000
1289.788540	1817.600000
1291.819721	1753.400000
1293.852299	1773.900000
1295.884406	1773.200000
1297.914172	1772.400000
1299.945336	1745.900000
1301.972292	1785.200000
1304.000646	1792.500000
1306.024795	1800.900000
1308.052210	1773.900000
1310.075422	1782.000000
1312.100032	1789.000000
1314.122308	1790.700000
1316.145981	1772.400000
1318.167321	1756.200000
1320.188193	1782.100000
1322.208598	1793.900000
1324.224810	1784.700000
1326.242419	1760.800000
1328.257700	1769.900000
1330.276240	1772.300000
1332.290591	1759.300000
1334.302616	1774.600000
1336.317898	1759.800000
1338.328995	1768.400000
1340.341489	1721.700000
1342.349800	1792.300000
1344.361366	1785.500000
1346.366894	1784.300000
1348.375677	1773.200000
1350.380282	1770.900000
1352.388141	1764.200000
1354.395538	1795.600000
1356.396904	1754.000000
1358.399666	1792.700000
1360.401969	1766.700000
1362.403812	1789.300000
1364.405195	1779.100000
1366.404265	1786.600000
1368.402876	1800.600000
1370.401029	1794.800000
1372.398723	1752.900000
1374.392255	1815.500000
1376.387182	1812.400000
1378.381653	1783.000000
1380.375667	1805.000000
1382.367374	1801.200000
1384.358626	1805.600000
1386.347572	1801.600000
1388.337913	1798.200000
1390.327799	1794.100000
1392.315381	1785.200000
1394.302510	1789.700000
1396.287337	1780.600000
1398.273559	1772.100000
1400.257481	1782.200000
1402.240950	1791.200000
1404.223966	1739.400000
1406.204685	1770.800000
1408.186798	1740.700000
1410.166615	1776.600000
1412.145980	1760.400000
1414.121207	1747.800000
1416.099672	1737.200000
1418.075844	1749.200000
1420.051567	1723.700000
1422.026840	1698.800000
1423.999822	1715.400000
1425.972356	1722.100000
1427.944442	1711.900000
1429.916081	1688.700000
1431.883591	1677.100000
1433.856175	1672.200000
1435.820953	1686.300000
1437.790804	1658.600000
1439.756531	1674.600000
1441.723650	1638.000000
1443.688486	1617.600000
1445.649202	1647.900000
1447.614986	1616.400000
1449.574815	1621.100000
1451.536038	1616.000000
1453.498653	1618.500000
1455.457153	1632.700000
1457.415210	1597.000000
1459.372826	1589.900000
1461.329999	1603.300000
1463.284897	1586.800000
1465.241188	1598.500000
1467.195204	1593.300000
1469.148779	1546.300000
1471.100082	1563.400000
1473.052778	1574.800000
1475.003201	1504.300000
1476.953186	1512.000000
1478.902732	1551.900000
1480.850009	1531.400000
1482.795018	1537.700000
1484.741420	1516.800000
1486.687384	1546.900000
1488.632911	1526.800000
1490.576172	1498.300000
1492.518998	1535.400000
1494.459560	1510.800000
1496.401513	1512.200000
1498.341204	1481.300000
1500.280461	1485.300000
1502.219282	1487.900000
1504.155844	1499.900000
1506.093797	1478.700000
1508.029491	1458.900000
1509.964752	1456.100000
1511.897757	1482.800000
1513.830329	1474.600000
1515.762469	1474.400000
1517.694177	1472.700000
1519.623631	1469.300000
1521.554476	1469.400000
1523.484889	1444.400000
1525.411230	1452.800000
1527.338962	1462.400000
1529.264443	1442.000000
1531.189495	1426.400000
1533.114118	1445.600000
1535.038312	1448.000000
1536.960258	1440.300000
1538.883595	1431.800000
1540.804685	1439.800000
1542.723531	1406.400000
1544.643767	1440.000000
1546.561760	1426.300000
1548.479326	1406.700000
1550.394650	1447.100000
1552.311364	1404.900000
1554.224023	1411.400000
1556.139886	1416.000000
1558.053509	1424.200000
1559.964894	1420.400000
1561.877669	1418.200000
1563.786394	1413.900000
1565.696508	1382.800000
1567.606199	1364.200000
1569.515467	1377.500000
1571.422501	1390.500000
1573.327302	1424.900000
1575.233492	1393.100000
1577.137450	1378.100000
1579.040987	1364.200000
1580.944104	1373.300000
1582.844991	1410.300000
1584.747267	1377.800000
1586.647315	1397.900000
1588.548750	1373.600000
1590.446152	1359.800000
1592.343135	1348.600000
1594.239700	1315.900000
1596.137653	1309.800000
1598.029771	1326.600000
1599.925082	1366.000000
1601.819976	1346.900000
1603.712648	1346.300000
1605.604903	1352.000000
1607.494939	1327.900000
1609.384559	1350.500000
1611.273764	1336.900000
1613.162554	1333.000000
1615.049126	1360.000000
1616.937086	1327.500000
1618.821029	1321.100000
1620.706359	1366.400000
1622.591276	1335.100000
1624.473979	1299.900000
1626.358069	1334.700000
1628.238147	1321.100000
1630.119613	1324.400000
1631.998868	1318.900000
1633.879509	1320.600000
1635.754346	1335.000000
1637.634164	1314.300000
1639.509978	1300.700000
1641.385381	1294.400000
1643.262170	1290.400000
1645.133163	1286.000000
1647.007337	1275.500000
1648.877512	1292.500000
1650.750869	1287.500000
1652.622022	1298.200000
1654.490973	1282.400000
1656.361309	1250.200000
1658.227653	1255.500000
1660.095382	1297.400000
1661.960912	1279.300000
1663.827828	1280.300000
1665.690755	1281.900000
1667.555067	1281.200000
1669.417183	1246.100000
1671.278894	1264.600000
1673.141991	1247.700000
1675.002892	1252.600000
1676.861601	1254.900000
1678.719906	1227.300000
1680.579596	1235.200000
1682.433518	1241.300000
1684.290614	1238.400000
1686.147307	1262.600000
1688.000023	1235.200000
1689.855911	1247.200000
1691.707825	1241.200000
1693.559338	1268.000000
1695.410450	1233.800000
1697.261162	1238.800000
1699.111473	1260.600000
1700.959599	1219.300000
1702.809110	1230.800000
1704.652872	1215.700000
1706.501583	1240.800000
1708.344548	1210.400000
1710.190680	1255.100000
1712.032849	1243.800000
1713.878184	1210.800000
1715.717778	1240.200000
1717.558756	1248.000000
1719.401117	1231.900000
1721.239522	1213.300000
1723.079310	1218.300000
1724.916923	1238.200000
1726.754140	1233.300000
1728.589184	1219.200000
1730.425611	1226.900000
1732.259866	1214.500000
1734.093726	1219.100000
1735.927192	1182.900000
1737.756713	1222.500000
1739.589392	1237.900000
1741.418127	1210.800000
1743.250019	1220.100000
1745.077969	1200.800000
1746.905528	1209.000000
1748.732694	1212.100000
1750.559469	1227.900000
1752.385852	1189.500000
1754.208299	1207.500000
1756.033901	1201.800000
1757.855568	1184.100000
1759.678617	1194.000000
1761.499504	1203.200000
1763.320003	1200.000000
1765.141882	1196.800000
1766.958063	1204.700000
1768.777395	1218.400000
1770.592800	1192.000000
1772.411355	1213.900000
1774.225985	1201.000000
1776.040228	1207.300000
1777.854085	1179.700000
1779.667555	1190.700000
1781.478872	1195.200000
1783.291569	1222.700000
1785.103881	1206.400000
1786.912275	1179.300000
1788.722049	1193.700000
1790.527909	1191.600000
1792.336914	1207.600000
1794.142006	1197.900000
1795.948479	1204.600000
1797.754568	1161.900000
1799.556746	1171.200000
1801.362069	1195.500000
1803.163483	1178.000000
1804.966277	1186.300000
1806.765165	1189.400000
1808.565434	1163.700000
1810.365321	1164.300000
1812.163066	1160.300000
1813.960431	1180.700000
1815.757416	1188.200000
1817.554020	1134.100000
1819.348485	1173.800000
1821.144329	1179.200000
1822.934518	1176.300000
1824.729604	1165.200000
1826.519038	1147.600000
1828.311608	1171.900000
1830.102043	1139.100000
1831.890344	1135.600000
1833.681780	1168.900000
1835.467570	1125.700000
1837.254740	1165.800000
1839.039778	1147.000000
1840.827950	1139.800000
1842.612236	1147.200000
1844.394392	1168.000000
1846.177928	1177.000000
1847.959335	1144.400000
1849.742121	1153.100000
1851.521026	1131.800000
1853.301311	1158.700000
1855.079469	1150.200000
1856.859006	1152.500000
1858.636418	1151.600000
1860.411706	1149.300000
1862.188372	1150.100000
1863.962916	1151.700000
1865.738838	1132.900000
1867.509139	1126.700000
1869.282568	1127.400000
1871.053877	1155.500000
1872.824815	1167.500000
1874.597131	1135.300000
1876.363833	1151.900000
1878.133661	1157.800000
1879.899625	1130.800000
1881.668712	1144.100000
1883.433938	1169.100000
1885.198796	1166.300000
1886.965031	1141.500000
1888.727407	1127.400000
1890.489416	1124.100000
1892.251057	1128.600000
1894.012332	1122.600000
1895.773239	1124.000000
1897.533780	1139.000000
1899.292211	1138.400000
1901.050276	1117.500000
1902.806234	1086.000000
1904.563568	1159.900000
1906.320537	1118.900000
1908.075399	1098.000000
1909.828157	1087.300000
1911.580550	1136.300000
1913.334320	1100.400000
1915.085986	1134.900000
1916.835550	1119.800000
1918.586489	1097.600000
1920.337066	1105.300000
1922.083803	1118.800000
1923.831917	1123.400000
1925.577931	1089.300000
1927.325320	1093.600000
1929.070612	1118.100000
1930.813806	1149.400000
1932.558375	1129.100000
1934.300849	1099.600000
1936.042962	1112.100000
1937.784715	1142.900000
1939.526108	1098.000000
1941.265408	1083.300000
1943.004349	1110.200000
1944.742931	1126.700000
1946.479422	1096.300000
1948.215555	1105.300000
1949.953062	1114.300000
1951.686747	1102.900000
1953.421807	1096.100000
1955.154778	1130.800000
1956.887393	1104.900000
1958.619652	1116.500000
1960.351554	1084.500000
1962.081370	1119.100000
1963.809101	1099.300000
1965.538207	1127.700000
1967.266958	1127.200000
1968.993625	1134.400000
1970.719938	1106.800000
1972.447624	1130.600000
1974.169774	1108.200000
1975.895025	1108.700000
1977.616469	1116.500000
1979.341014	1087.900000
1981.063478	1117.600000
1982.782140	1157.200000
1984.503900	1171.500000
1986.221858	1125.000000
1987.941189	1151.500000
1989.656721	1119.500000
1991.377073	1127.900000
1993.093627	1076.400000
1994.806384	1139.700000
1996.522237	1129.300000
1998.236018	1098.200000
1999.949449	1118.700000
2001.660809	1113.700000
2003.373541	1145.100000
2005.082483	1124.800000
2006.794517	1147.800000
2008.501043	1105.000000
2010.210660	1091.100000
2011.918211	1128.900000
2013.625413	1093.200000
2015.330550	1124.000000
2017.035341	1140.400000
2018.741503	1138.400000
2020.443883	1166.200000
2022.147634	1133.500000
2023.849323	1125.300000
2025.550667	1117.200000
2027.251665	1143.500000
2028.950602	1113.000000
2030.650911	1147.800000
2032.347445	1120.500000
2034.045350	1132.500000
2035.741196	1151.300000
2037.440128	1143.500000
2039.133574	1122.500000
2040.828391	1124.200000
2042.522866	1135.400000
2044.213572	1120.000000
2045.907362	1143.000000
2047.597385	1121.600000
2049.288779	1113.200000
2050.978120	1141.700000
2052.668831	1122.200000
2054.355779	1089.400000
2056.042388	1114.300000
2057.730366	1123.100000
2059.414585	1096.200000
2061.100175	1080.400000
2062.785425	1109.700000
2064.468626	1086.900000
2066.153198	1103.400000
2067.832307	1074.500000
2069.516201	1087.900000
2071.194634	1049.000000
2072.876145	1098.600000
2074.553904	1102.300000
2076.231327	1055.900000
2077.910119	1074.400000
2079.586869	1068.800000
2081.261577	1086.800000
2082.937654	1094.300000
2084.611691	1072.900000
2086.285392	1059.700000
2087.958758	1080.800000
2089.630085	1092.900000
2091.301078	1102.700000
2092.971737	1086.100000
2094.642062	1082.800000
2096.312053	1089.100000
2097.980008	1085.000000
2099.647630	1086.900000
2101.313217	1063.200000
2102.980173	1069.500000
2104.645096	1092.900000
2106.309687	1097.700000
2107.972246	1079.100000
2109.636173	1098.400000
2111.298069	1079.900000
2112.959635	1090.000000
2114.620869	1086.500000
2116.280075	1101.800000
2117.938950	1089.600000
2119.597496	1052.600000
2121.255711	1098.800000
2122.910204	1060.000000
2124.567761	1077.400000
2126.224989	1127.700000
2127.878495	1078.300000
2129.533369	1077.800000
2131.184524	1094.600000
2132.838742	1090.100000
2134.489243	1073.800000
2136.141110	1091.400000
2137.787569	1062.800000
2139.438783	1087.800000
2141.086283	1109.500000
2142.735150	1088.200000
2144.381998	1085.700000
2146.028521	1058.400000
2147.674718	1092.100000
2149.317207	1093.600000
2150.962754	1085.200000
2152.604594	1085.800000
2154.249491	1078.100000
2155.890682	1069.600000
2157.531551	1080.500000
2159.172095	1104.300000
2160.810627	1047.500000
2162.450525	1063.800000
2164.086723	1079.200000
2165.724287	1058.100000
2167.361529	1085.800000
2168.996761	1038.100000
2170.631672	1060.100000
2172.266260	1052.900000
2173.900528	1038.000000
2175.531102	1054.900000
2177.164728	1033.600000
2178.794662	1045.500000
2180.425961	1048.000000
2182.055255	1062.200000
2183.684230	1068.800000
2185.312885	1018.200000
2186.941221	1051.100000
2188.567555	1045.600000
2190.193570	1039.000000
2191.817583	1031.900000
2193.442962	1040.600000
2195.066340	1044.100000
2196.691083	1044.400000
2198.312145	1024.400000
2199.932890	1033.600000
2201.555000	1028.100000
2203.175112	1035.900000
2204.793227	993.800000
2206.411027	999.700000
2208.028512	1018.400000
2209.645681	1008.200000
2211.262535	1042.100000
2212.879073	1017.400000
2214.493619	1046.800000
2216.106172	1049.200000
2217.720089	1029.500000
2219.332015	1054.400000
2220.945304	1011.300000
2222.556603	1039.400000
2224.165912	1028.900000
2225.776585	1035.700000
2227.385269	1021.500000
2228.993640	1010.300000
2230.600025	1043.600000
2232.207773	999.800000
2233.813534	987.500000
2235.418984	1027.000000
2237.022449	998.200000
2238.627277	1035.800000
2240.230121	1020.500000
2241.830982	1019.700000
2243.433206	995.200000
2245.033448	1004.500000
2246.635052	1026.300000
2248.233003	1021.500000
2249.832317	987.500000
2251.429651	1008.400000
2253.026677	998.600000
2254.625065	1000.100000
2256.219804	1033.400000
2257.812566	992.800000
2259.406691	1032.400000
2261.002177	1006.500000
2262.594018	983.400000
2264.185553	979.100000
2265.778450	1023.200000
2267.366037	1000.000000
2268.958320	1016.500000
2270.545297	1008.900000
2272.135301	1001.900000
2273.720001	1014.600000
2275.309395	986.400000
2276.893487	1022.000000
2278.478939	988.500000
2280.062423	1001.100000
2281.648932	981.700000
2283.231808	996.800000
2284.814381	994.900000
2286.396650	1015.000000
2287.975289	996.800000
2289.556953	981.500000
2291.134988	965.900000
2292.716046	993.700000
2294.293477	993.550000
2295.868945	993.400000
2297.447435	990.500000
2299.022301	983.200000
2300.596866	994.600000
2302.171131	964.100000
2303.745095	995.300000
2305.318758	987.400000
2306.892122	996.000000
2308.461867	990.800000
2310.031313	987.400000
2311.603777	999.800000
2313.170967	992.200000
2314.741175	974.000000
2316.307768	989.000000
2317.875721	966.600000
2319.441718	1010.700000
2321.007418	1015.400000
2322.572820	1031.100000
2324.136269	994.300000
2325.701077	1030.800000
2327.262277	1050.000000
2328.826491	1056.800000
2330.385443	1059.400000
2331.947410	1040.500000
2333.507425	1008.900000
2335.067146	1006.700000
2336.624917	1031.700000
2338.182393	984.000000
2339.739575	1016.700000
2341.294809	1004.400000
2342.849750	1013.800000
2344.404396	1020.500000
2345.958749	1026.300000
2347.512809	1002.900000
2349.066574	1042.900000
2350.618395	1019.900000
2352.168274	993.500000
2353.721160	996.600000
2355.268803	999.500000
2356.819455	1018.200000
2358.366515	1016.300000
2359.914933	1034.300000
2361.463060	1021.600000
2363.007598	1000.600000
2364.553494	1000.300000
2366.097452	1034.400000
2367.642767	1010.000000
2369.184497	1030.200000
2370.727584	1022.900000
2372.268735	995.000000
2373.809597	1006.100000
2375.350170	1021.800000
2376.890454	1029.700000
2378.430449	999.700000
2379.966866	1031.200000
2381.506284	1045.400000
2383.042124	1045.500000
2384.579322	1003.300000
2386.112944	993.900000
2387.649566	1014.200000
2389.184258	1034.500000
2390.717020	1025.400000
2392.249495	1022.000000
2393.780042	1010.500000
2395.313587	1038.100000
2396.841921	1003.600000
2398.371612	1062.500000
2399.901016	1049.300000
2401.430136	1025.500000
2402.958971	1025.000000
2404.482600	1038.400000
2406.010865	1039.300000
2407.533928	1054.600000
2409.061624	1030.800000
2410.582481	1025.400000
2412.107971	1061.700000
2413.629900	1052.900000
2415.153185	1058.200000
2416.674548	1044.500000
2418.193992	1026.800000
2419.714791	1029.400000
2421.233672	1031.000000
2422.752270	1066.500000
2424.268951	1029.600000
2425.786986	1042.700000
2427.304740	1036.100000
2428.818943	1036.000000
2430.332865	1056.900000
2431.846507	1030.100000
2433.361504	1030.900000
2434.872952	1042.400000
2436.385755	1014.200000
2437.896644	1033.200000
2439.407255	1032.500000
2440.915954	1017.900000
2442.427639	1013.300000
2443.935781	1034.600000
2445.443645	1008.200000
2446.951231	1024.400000
2448.455276	1047.300000
2449.962306	1048.500000
2451.467428	1015.200000
2452.972273	1030.100000
2454.475211	1015.600000
2455.977873	1011.200000
2457.480258	1014.700000
2458.980738	989.800000
2460.482571	994.300000
2461.982499	988.300000
2463.482152	1013.100000
2464.981530	1008.500000
2466.479005	992.600000
2467.974578	968.800000
2469.473131	982.400000
2470.968156	983.600000
2472.464533	971.000000
2473.957384	967.600000
2475.451588	981.800000
2476.945518	996.800000
2478.435924	998.800000
2479.929308	965.000000
2481.420794	972.400000
2482.910383	988.000000
2484.399700	990.700000
2485.887121	984.900000
2487.377518	982.400000
2488.864397	995.700000
2490.352627	976.300000
2491.837340	985.100000
2493.321784	987.800000
2494.807578	974.500000
2496.291481	1003.600000
2497.776734	1016.300000
2499.256854	969.600000
2500.739947	995.400000
2502.221149	956.600000
2503.702082	1000.100000
2505.181126	955.700000
2506.659901	979.100000
2508.138408	962.300000
2509.616647	983.100000
2511.094617	976.300000
2512.569082	979.100000
2514.046517	987.100000
2515.520448	994.900000
2516.995729	979.000000
2518.470743	1000.600000
2519.942256	988.300000
2521.415120	1005.500000
2522.886101	977.500000
2524.358432	1012.000000
2525.825649	975.200000
2527.295833	984.700000
2528.764136	969.000000
2530.232174	1007.200000
2531.699947	984.200000
2533.167455	985.700000
2534.634698	1015.000000
2536.098449	1013.600000
2537.563550	991.400000
2539.026774	955.200000
2540.491347	992.100000
2541.952432	997.900000
2543.414866	979.900000
2544.877037	981.500000
2546.335722	1023.700000
2547.798978	1010.500000
2549.257139	987.800000
2550.716648	1000.000000
2552.171063	989.500000
2553.630049	993.000000
2555.087163	982.600000
2556.542406	1011.000000
2557.997387	973.800000
2559.450500	983.700000
2560.904961	1008.900000
2562.357552	1015.300000
2563.809884	962.000000
2565.260349	979.600000
2566.713769	1009.900000
2568.162107	970.100000
2569.613400	998.800000
2571.062828	990.500000
2572.508783	968.000000
2573.957693	976.200000
2575.403133	971.600000
2576.849920	973.500000
2578.294845	987.700000
2579.739511	998.900000
2581.185525	996.400000
2582.628073	1003.000000
2584.071968	964.700000
2585.512398	978.300000
2586.954175	952.300000
2588.394093	987.400000
2589.835358	984.500000
2591.273161	970.000000
2592.713914	950.600000
2594.149605	942.800000
2595.588245	969.200000
2597.025027	949.600000
2598.459954	983.100000
2599.897828	954.200000
2601.330645	973.900000
2602.764809	993.900000
2604.197119	967.000000
2605.630775	938.100000
2607.062578	972.200000
2608.494127	971.400000
2609.925424	963.600000
2611.354868	981.800000
2612.784060	962.400000
2614.211402	994.200000
2615.640089	968.700000
2617.068525	965.800000
2618.493513	976.200000
2619.919848	977.400000
2621.344334	971.300000
2622.770166	976.000000
2624.192554	991.300000
2625.616288	967.200000
2627.038175	978.300000
2628.459813	970.100000
2629.879605	956.400000
2631.300743	970.300000
2632.721631	949.800000
2634.139081	946.500000
2635.559470	926.900000
2636.976422	983.900000
2638.393125	949.600000
2639.809580	982.900000
2641.225787	969.000000
2642.641746	944.100000
2644.055864	965.300000
2645.469734	947.900000
2646.881766	932.800000
2648.295141	955.100000
2649.705087	958.900000
2651.117969	925.600000
2652.527422	952.000000
2653.936629	943.900000
2655.344000	966.600000
2656.754305	959.200000
2658.162775	979.800000
2659.569409	958.700000
2660.975798	935.500000
2662.380353	963.300000
2663.786252	939.000000
2665.190318	957.000000
2666.594139	978.500000
2667.997716	936.800000
2669.399462	976.200000
2670.802551	933.900000
2672.202222	956.200000
2673.603237	956.600000
2675.000836	959.300000
2676.401365	978.800000
2677.798478	968.800000
2679.196935	955.900000
2680.593565	960.900000
2681.989952	950.500000
2683.386097	962.000000
2684.780416	957.900000
2686.176078	970.500000
2687.568331	945.700000
2688.961926	926.600000
2690.353697	948.400000
2691.746811	939.200000
2693.138101	943.400000
2694.527568	924.200000
2695.916795	938.600000
2697.305783	949.900000
2698.696112	953.900000
2700.081458	968.700000
2701.469727	947.700000
2702.856176	940.700000
2704.242386	946.500000
2705.628357	938.500000
2707.010930	940.300000
2708.394845	944.700000
2709.778522	956.100000
2711.161960	941.400000
2712.542004	937.000000
2713.923388	919.800000
2715.302958	950.500000
2716.683868	927.900000
2718.062964	932.600000
2719.440246	944.200000
2720.818869	957.600000
2722.195679	937.400000
2723.572252	925.700000
2724.948590	942.900000
2726.323117	953.700000
2727.698984	961.600000
2729.071464	944.600000
2730.446860	949.600000
2731.817296	958.700000
2733.189073	955.900000
2734.560615	948.300000
2735.930349	942.300000
2737.301424	960.700000
2738.670690	911.300000
2740.039723	948.100000
2741.406950	966.200000
2742.773943	912.600000
2744.140704	922.400000
2745.507233	929.400000
2746.871956	951.800000
2748.236447	932.300000
2749.600707	936.200000
2750.964734	963.800000
2752.328530	918.100000
2753.688952	954.000000
2755.052284	957.800000
2756.410674	912.000000
2757.771974	928.400000
2759.129904	937.400000
2760.490742	934.000000
2761.849781	918.200000
2763.205451	932.000000
2764.564029	938.600000
2765.919240	941.300000
2767.274222	911.700000
2768.627408	916.700000
2769.983500	920.300000
2771.336227	924.400000
2772.688727	933.800000
2774.040998	961.400000
2775.394607	929.500000
2776.744856	921.700000
2778.093310	953.400000
2779.444670	914.300000
2780.792670	902.700000
2782.142008	920.100000
2783.489554	924.300000
2784.836874	938.900000
2786.183967	917.800000
2787.529269	897.100000
2788.874344	950.100000
2790.219194	884.900000
2791.563818	917.100000
2792.905090	924.900000
2794.247700	925.900000
2795.590084	896.600000
2796.932243	927.000000
2798.271053	898.200000
2799.612763	908.900000
2800.951125	919.800000
2802.290823	900.400000
2803.628737	911.200000
2804.964866	909.400000
2806.300771	923.400000
2807.638014	914.900000
2808.973473	921.500000
2810.308709	915.300000
2811.642162	904.800000
2812.976952	915.500000
2814.308402	920.900000
2815.642747	918.800000
2816.972194	905.300000
2818.302978	916.100000
2819.633540	913.600000
2820.962323	893.500000
2822.292442	920.500000
2823.620783	940.900000
2824.948903	915.200000
2826.275245	918.200000
2827.602924	933.600000
2828.927269	922.200000
2830.252951	930.300000
2831.576857	912.900000
2832.900544	913.600000
2834.225566	907.900000
2835.547258	954.700000
2836.868732	896.600000
2838.189987	926.000000
2839.511023	896.200000
2840.830286	907.000000
2842.150885	920.100000
2843.469713	906.300000
2844.788322	922.700000
2846.105160	928.500000
2847.421781	888.900000
2848.738185	910.700000
2850.052819	925.700000
2851.368789	912.500000
2852.681438	896.800000
2853.995422	907.000000
2855.309190	894.200000
2856.622741	903.600000
2857.934526	905.500000
2859.244544	881.000000
2860.555897	905.800000
2861.863935	924.700000
2863.173307	908.500000
2864.482465	926.100000
2865.791407	896.100000
2867.098585	921.400000
2868.404001	931.400000
2869.710750	891.300000
2871.015738	893.400000
2872.320512	926.400000
2873.623524	910.400000
2874.929417	936.900000
2876.230456	933.500000
2877.532829	918.300000
2878.833442	920.900000
2880.135389	922.500000
2881.437122	935.400000
2882.735552	963.600000
2884.035315	916.400000
2885.333321	954.100000
2886.631115	893.800000
2887.927153	908.700000
2889.224524	940.100000
2890.520139	929.300000
2891.815543	902.800000
2893.110736	909.800000
2894.402632	922.700000
2895.697404	903.800000
2896.988879	897.200000
2898.281687	902.900000
2899.574285	920.100000
2900.863589	909.900000
2902.154225	910.200000
2903.443110	938.400000
2904.733327	910.800000
2906.020253	918.800000
2907.308511	911.500000
2908.595020	891.900000
2909.881320	901.200000
2911.167413	929.600000
2912.451757	893.200000
2913.738972	922.800000
2915.021361	908.500000
2916.305082	921.200000
2917.587057	902.700000
2918.868824	927.200000
2920.148847	925.200000
2921.431739	904.800000
2922.712886	899.100000
2923.990751	917.300000
2925.271485	917.300000
2926.548938	887.500000
2927.826185	908.800000
2929.101690	921.600000
2930.380063	916.000000
2931.653622	909.000000
2932.930048	924.200000
2934.204733	935.300000
2935.477677	881.200000
2936.751953	903.400000
2938.024489	930.500000
2939.296820	881.000000
2940.565879	904.000000
2941.837803	909.500000
2943.107989	894.600000
2944.377971	917.300000
2945.647750	914.600000
2946.915793	874.000000
2948.182099	891.700000
2949.448204	890.000000
2950.715638	914.000000
2951.981338	899.600000
2953.246835	911.600000
2954.512130	888.900000
2955.774160	892.800000
2957.037520	898.600000
2958.300679	929.200000
2959.562106	881.900000
2960.824862	881.100000
2962.085886	895.000000
2963.345180	900.300000
2964.604274	902.100000
2965.863167	911.100000
2967.121860	894.300000
2968.380353	888.100000
2969.637117	910.700000
2970.893681	900.300000
2972.148518	904.600000
2973.404683	911.600000
2974.657594	921.300000
2975.911834	921.300000
2977.165875	914.100000
2978.418190	946.900000
2979.670306	888.400000
2980.920698	885.100000
2982.173945	918.400000
2983.422415	905.900000
2984.673740	919.500000
2985.921815	927.200000
2987.169694	921.800000
2988.417375	886.200000
2989.664859	891.100000
2990.910622	901.700000
2992.156189	901.100000
2993.403083	929.800000
2994.646733	910.700000
2995.891711	897.100000
2997.133445	895.100000
2998.378031	907.500000
2999.620898	934.600000
3000.860524	866.600000
3002.103000	899.500000
3003.342236	895.800000
3004.582800	920.600000
3005.821648	866.700000
3007.060300	892.200000
3008.297237	888.100000
3009.535502	884.000000
3010.772051	921.000000
3012.008407	917.300000
3013.244569	872.900000
3014.479017	907.600000
3015.713273	888.000000
3016.947335	919.000000
3018.179685	914.800000
3019.410323	918.000000
3020.643807	924.000000
3021.875579	919.500000
3023.105641	920.500000
3024.335510	888.200000
3025.563671	901.900000
3026.793157	914.200000
3028.020934	894.000000
3029.248520	945.100000
3030.477433	925.700000
3031.701603	889.700000
3032.928616	914.900000
3034.152405	903.700000
3035.377521	898.400000
3036.600930	930.600000
3037.824149	899.100000
3039.045663	918.300000
3040.270018	904.800000
3041.489638	893.300000
3042.710584	902.000000
3043.931341	901.000000
3045.150394	912.100000
3046.370772	911.100000
3047.587934	889.100000
3048.806422	905.400000
3050.023207	930.200000
3051.239805	931.700000
3052.456214	901.700000
3053.669411	922.000000
3054.885445	915.500000
3056.098267	903.500000
3057.313926	908.600000
3058.524862	894.600000
3059.737123	931.900000
3060.949198	891.100000
3062.161085	905.000000
3063.371276	909.800000
3064.581280	911.100000
3065.791098	922.200000
3066.999220	908.500000
3068.207157	884.900000
3069.413398	893.600000
3070.620964	910.700000
3071.826835	902.150000
3073.032522	893.600000
3074.238023	938.400000
3075.441831	916.600000
3076.646963	923.200000
3077.850402	919.700000
3079.052150	911.200000
3080.253713	903.900000
3081.455093	906.900000
3082.656289	911.500000
3083.855795	908.300000
3085.055118	907.000000
3086.255764	901.300000
3087.454720	898.200000
3088.650482	905.300000
3089.849073	906.800000
3091.044470	903.900000
3092.241190	898.100000
3093.434718	919.800000
3094.631074	904.300000
3095.825744	904.500000
3097.017223	880.500000
3098.213033	924.300000
3099.404149	920.500000
3100.596589	917.400000
3101.785841	932.400000
3102.977918	932.900000
3104.168312	889.400000
3105.355520	909.900000
3106.544051	912.200000
3107.733903	934.500000
3108.920572	879.200000
3110.107060	908.500000
3111.293370	898.000000
3112.481001	905.300000
3113.665450	899.400000
3114.848220	913.600000
3116.033812	924.000000
3117.217725	912.200000
3118.399959	896.500000
3119.582014	888.900000
3120.763891	909.500000
3121.945590	899.500000
3123.125612	879.000000
3124.303957	878.500000
3125.485122	927.700000
3126.663112	924.200000
3127.840926	893.400000
3129.018562	905.100000
3130.194523	884.900000
3131.370307	903.400000
3132.547413	880.800000
3133.722844	897.800000
3134.896602	899.600000
3136.068687	901.200000
3137.242094	906.400000
3138.415324	899.000000
3139.586883	905.400000
3140.759762	938.300000
3141.929474	899.200000
3143.100507	909.100000
3144.269870	919.400000
3145.437562	906.200000
3146.608070	932.400000
3147.773920	902.700000
3148.944078	911.200000
3150.109580	931.700000
3151.274907	914.900000
3152.440061	938.900000
3153.605042	900.400000
3154.771342	880.300000
3155.932990	914.200000
3157.095957	900.300000
3158.258752	918.200000
3159.421374	898.000000
3160.582331	888.300000
3161.743115	918.900000
3162.903727	872.700000
3164.062675	886.700000
3165.221452	868.900000
3166.380057	907.600000
3167.538489	885.500000
3168.696751	885.000000
3169.853350	875.400000
3171.008288	885.700000
3172.164545	867.000000
3173.319141	884.200000
3174.473567	911.700000
3175.626333	887.000000
3176.778928	873.700000
3177.931354	895.800000
3179.083610	901.600000
3180.235695	876.300000
3181.384635	869.000000
3182.536381	874.400000
3183.686469	891.200000
3184.834901	901.300000
3185.983163	899.500000
3187.131257	918.000000
3188.279182	888.000000
3189.425451	870.500000
3190.571552	912.100000
3191.715999	880.400000
3192.860278	923.500000
3194.004389	897.600000
3195.149817	903.700000
3196.292107	914.100000
3197.434230	865.700000
3198.576185	915.900000
3199.717973	922.700000
3200.859594	932.500000
3201.998080	909.200000
3203.137883	927.600000
3204.279004	934.300000
3205.416990	903.100000
3206.553327	922.700000
3207.689498	909.700000
3208.826986	905.600000
3209.962826	895.800000
3211.099983	873.600000
3212.232527	884.100000
3213.369353	901.400000
3214.501567	909.700000
3215.635098	891.600000
3216.768465	882.100000
3217.898704	894.100000
3219.031741	891.800000
3220.161652	854.000000
3221.292879	866.300000
3222.420982	886.800000
3223.551881	870.500000
3224.681136	850.500000
3225.808748	872.500000
3226.933237	875.600000
3228.062002	869.000000
3229.187645	842.300000
3230.313126	881.800000
3231.436965	873.400000
3232.563598	883.900000
3233.685634	866.200000
3234.808986	846.800000
3235.932176	867.000000
3237.055203	842.600000
3238.176592	890.100000
3239.297818	868.600000
3240.417407	866.800000
3241.536834	886.200000
3242.654623	856.500000
3243.775204	865.700000
3244.892672	886.400000
3246.009979	882.100000
3247.127126	906.900000
3248.242637	878.000000
3249.359462	887.700000
3250.473178	885.400000
3251.589683	912.200000
3252.704554	912.600000
3253.816316	916.100000
3254.927918	896.500000
3256.040836	895.100000
3257.153594	917.900000
3258.263246	902.100000
3259.374213	886.100000
3260.485021	907.800000
3261.594197	910.900000
3262.701743	914.800000
3263.810602	907.700000
3264.919304	897.900000
3266.024903	915.400000
3267.131816	924.600000
3268.237100	882.400000
3269.343698	925.700000
3270.447196	903.900000
3271.552009	890.100000
3272.656664	900.500000
3273.758220	924.700000
3274.859620	918.800000
3275.962334	893.900000
3277.064892	910.200000
3278.164353	901.200000
3279.266598	925.200000
3280.365747	911.200000
3281.463272	904.700000
3282.560641	928.500000
3283.660792	926.900000
3284.757851	903.200000
3285.854754	887.700000
3286.951502	909.000000
3288.043692	931.000000
3289.140130	875.500000
3290.234946	891.500000
3291.329608	927.200000
3292.422648	903.200000
3293.515533	892.800000
3294.606799	904.600000
3295.699376	902.600000
3296.790334	891.900000
3297.879672	887.300000
3298.968857	884.400000
3300.059355	886.300000
3301.146768	909.600000
3302.234028	910.700000
3303.322601	899.400000
3304.411022	912.700000
3305.494895	901.200000
3306.583010	896.400000
3307.668043	910.600000
3308.751461	892.800000
3309.836191	892.100000
3310.919305	913.200000
3312.003732	894.700000
3313.085080	887.300000
3314.167740	914.600000
3315.248786	942.100000
3316.329681	921.400000
3317.408962	897.000000
3318.488093	891.700000
3319.568536	909.500000
3320.645904	897.800000
3321.724584	921.600000
3322.801652	888.700000
3323.878571	889.700000
3324.953878	897.600000
3326.029036	910.200000
3327.105505	909.800000
3328.178904	894.200000
3329.252154	921.800000
3330.326714	928.900000
3331.399666	899.000000
3332.471009	904.300000
3333.543663	922.400000
3334.613251	918.900000
3335.684149	886.400000
3336.753440	889.100000
3337.824042	931.300000
3338.893037	908.100000
3339.960426	921.000000
3341.026210	892.900000
3342.096220	905.500000
3343.163167	914.200000
3344.227052	881.700000
3345.293705	883.800000
3346.358753	889.500000
3347.422198	888.800000
3348.485497	878.900000
3349.548649	890.600000
3350.611655	856.600000
3351.674515	888.300000
3352.735773	883.900000
3353.793974	912.400000
3354.856395	905.300000
3355.915761	900.200000
3356.974981	885.600000
3358.035511	905.800000
3359.091531	921.800000
3360.150315	904.200000
3361.204592	894.900000
3362.261633	917.800000
3363.317075	899.800000
3364.373827	911.100000
3365.428980	893.500000
3366.482536	909.300000
3367.534496	893.100000
3368.589217	934.800000
3369.640889	897.400000
3370.692418	896.200000
3371.745255	928.600000
3372.795045	916.600000
3373.846144	898.100000
3374.894197	935.900000
3375.945009	900.800000
3376.992777	902.100000
3378.040402	893.500000
3379.087884	917.400000
3380.133774	899.300000
3381.180972	887.200000
3382.225128	896.900000
3383.272042	902.700000
3384.317364	888.600000
3385.359645	896.500000
3386.401786	903.100000
3387.445234	906.700000
3388.488541	886.600000
3389.530259	923.000000
3390.571835	889.500000
3391.613270	891.400000
3392.653117	928.000000
3393.691375	903.200000
3394.730941	925.900000
3395.770367	873.900000
3396.808205	903.400000
3397.844456	923.200000
3398.880568	900.500000
3399.917987	907.900000
3400.952373	895.900000
3401.988066	921.300000
3403.023620	928.900000
3404.056143	893.400000
3405.091419	911.000000
3406.123664	918.100000
3407.155771	906.100000
3408.186294	926.300000
3409.218124	945.900000
3410.249816	893.600000
3411.278480	914.400000
3412.307007	890.000000
3413.336840	917.100000
3414.366536	918.500000
3415.393206	915.300000
3416.421183	885.600000
3417.446135	905.400000
3418.473837	910.600000
3419.498516	928.300000
3420.524501	899.000000
3421.548906	891.500000
3422.573175	901.800000
3423.595865	920.800000
3424.618419	887.100000
3425.642279	918.900000
3426.663119	910.000000
3427.683823	923.400000
3428.705834	933.300000
3429.724826	908.600000
3430.743682	915.400000
3431.763845	899.900000
3432.780991	907.600000
