-116.475622	45.400000
-113.806022	47.300000
-111.139357	29.700000
-108.473444	53.200000
-105.810463	21.900000
-103.146053	23.900000
-100.484573	38.100000
-97.821664	49.400000
-95.163861	42.100000
-92.504629	51.000000
-89.846145	51.700000
-87.190585	32.600000
-84.533597	51.700000
-81.881707	39.200000
-79.228387	36.800000
-76.577986	51.300000
-73.926156	43.200000
-71.279417	36.900000
-68.631249	43.400000
-65.983823	31.800000
-63.339311	49.000000
-60.693371	42.600000
-58.052512	36.000000
-55.410224	59.300000
-52.770845	31.100000
-50.130036	39.900000
-47.489968	50.600000
-44.854972	51.700000
-42.218548	38.700000
-39.585026	51.400000
-36.950076	43.400000
-34.320191	55.000000
-31.686714	62.900000
-29.058299	95.200000
-26.430618	36.900000
-23.801508	70.200000
-21.177455	56.800000
-18.549813	71.300000
-15.927224	99.400000
-13.305367	96.200000
-10.684240	183.100000
-8.063843	342.300000
-5.446335	1080.900000
-2.827398	3347.700000
-0.211346	7818.200000
2.403977	7522.000000
5.018573	3271.100000
7.630286	429.200000
10.243428	119.900000
12.851536	82.500000
15.463226	65.800000
18.069885	71.300000
20.677972	64.100000
23.285335	77.800000
25.887673	66.100000
28.493589	83.500000
31.094483	81.900000
33.696805	62.600000
36.294110	76.000000
38.894990	63.300000
41.490855	77.000000
44.088149	80.500000
46.684723	56.200000
49.276288	75.800000
51.869281	83.500000
54.459413	69.700000
57.050973	80.300000
59.639673	97.000000
62.229800	80.400000
64.814928	65.300000
67.401484	93.100000
69.987326	104.100000
72.570314	94.200000
75.154728	91.700000
77.732014	99.200000
80.312866	102.500000
82.890869	115.400000
85.468162	117.100000
88.046881	113.700000
90.620618	124.800000
93.195783	129.500000
95.768104	141.500000
98.339717	144.200000
100.908490	172.200000
103.478690	169.100000
106.046052	194.700000
108.614839	216.800000
111.180790	256.200000
113.743906	317.900000
116.310578	426.000000
118.868029	561.500000
121.431165	769.100000
123.989341	1100.300000
126.551072	1628.800000
129.107846	2416.500000
131.666047	3595.500000
134.219294	5410.300000
136.771844	7911.200000
139.327944	11097.100000
141.879096	14574.800000
144.429551	18227.400000
146.979308	20976.100000
149.526246	23008.000000
152.072489	24159.700000
154.620157	24607.800000
157.167129	25130.200000
159.709166	24869.400000
162.250509	24703.400000
164.791159	24653.000000
167.333235	24409.600000
169.872499	24590.600000
172.408955	24293.100000
174.944719	24273.300000
177.481909	24074.700000
180.018408	23880.300000
182.552101	23756.400000
185.082990	23651.400000
187.613192	23588.700000
190.144818	23669.700000
192.673643	23660.800000
195.199669	23524.800000
197.725009	23369.400000
200.251774	23409.000000
202.775743	23388.900000
205.299027	23278.000000
207.821626	23273.400000
210.341432	23231.900000
212.860555	23156.300000
215.378995	22954.500000
217.898859	23013.500000
220.411722	23175.400000
222.928116	23241.300000
225.443828	23318.800000
227.954650	23199.400000
230.466897	23305.900000
232.976362	23267.600000
235.485148	23320.600000
237.993255	23395.400000
240.502787	23466.900000
243.007438	23550.900000
245.511413	23558.500000
248.016812	23679.900000
250.517336	23750.300000
253.021384	23740.200000
255.518460	23787.800000
258.019060	23901.200000
260.516888	23951.800000
263.014043	23866.300000
265.510525	23992.000000
268.002144	24028.200000
270.497283	23960.500000
272.989655	23820.900000
275.481357	24014.100000
277.970296	24109.100000
280.460659	23938.300000
282.948259	23790.300000
285.433100	23993.200000
287.921456	23901.500000
290.402872	23951.600000
292.887802	23819.200000
295.367887	23872.500000
297.851484	23879.400000
300.330238	24043.500000
302.810416	24073.900000
305.287841	23985.400000
307.764603	23870.400000
310.240702	23889.500000
312.714052	23832.400000
315.186740	24022.600000
317.658767	24006.400000
320.130133	24255.800000
322.598754	24305.900000
325.066717	24437.800000
327.536101	24112.800000
330.000663	24101.500000
332.468729	23979.900000
334.931975	23904.000000
337.394563	23916.900000
339.856495	23678.900000
342.317770	23745.100000
344.776311	23724.300000
347.236274	23505.300000
349.693504	23328.000000
352.150080	23169.500000
354.606002	23107.100000
357.059194	22769.700000
359.513809	22583.800000
361.963622	22573.800000
364.416931	22280.600000
366.865442	21956.100000
369.313301	21721.200000
371.762583	21573.000000
374.207071	21423.200000
376.652981	21121.800000
379.098241	20798.200000
381.540783	20766.300000
383.982677	20524.600000
386.423924	20413.400000
388.862455	20101.800000
391.302408	19922.500000
393.739647	19749.600000
396.174174	19450.000000
398.612189	19461.400000
401.045427	19172.100000
403.480086	19022.300000
405.909973	18886.500000
408.343345	18833.600000
410.771947	18681.400000
413.199907	18413.300000
415.629289	18357.200000
418.053905	18454.700000
420.479943	18290.200000
422.905340	18107.800000
425.330097	18148.500000
427.750096	18068.100000
430.171516	18026.700000
432.590239	17975.200000
435.010383	17976.400000
437.427832	18010.000000
439.846701	17871.700000
442.262877	17934.900000
444.674305	17874.400000
447.089211	17892.600000
449.501426	17797.300000
451.913007	17865.500000
454.323954	17877.400000
456.732215	17829.700000
459.139843	17739.800000
461.546839	17817.700000
463.953204	17667.800000
466.356886	17553.600000
468.759938	17580.500000
471.162360	17566.900000
473.564152	17528.200000
475.963267	17479.200000
478.363801	17477.500000
480.763706	17386.100000
483.158888	17287.600000
485.557537	17387.300000
487.951466	17256.800000
490.344769	17167.500000
492.737446	17185.400000
495.129498	17113.500000
497.522968	16863.300000
499.911726	16880.900000
502.297818	16890.100000
504.685330	16789.900000
507.072219	16721.500000
509.456444	16720.600000
511.842087	16723.200000
514.225069	16570.900000
516.605390	16599.800000
518.987130	16710.200000
521.366211	16561.300000
523.746711	16551.700000
526.124553	16529.100000
528.499740	16451.300000
530.874309	16333.700000
533.250296	16229.500000
535.623631	16150.700000
537.998383	16062.800000
540.368450	15882.000000
542.737901	15916.700000
545.108770	15613.200000
547.474959	15286.300000
549.842566	15323.100000
552.207527	15048.100000
554.571875	14934.900000
556.935610	14658.400000
559.300763	14523.700000
561.661244	14280.700000
564.023143	14151.600000
566.382401	13841.800000
568.739022	13673.300000
571.099087	13505.400000
573.452461	13300.300000
575.809280	13201.100000
578.163464	12888.600000
580.517039	12664.200000
582.870007	12394.300000
585.220342	12163.200000
587.572095	12158.900000
589.917171	11876.300000
592.267711	11648.600000
594.611577	11485.400000
596.960905	11435.100000
599.305584	11274.300000
601.647639	11179.100000
603.991111	11064.500000
606.331960	10897.500000
608.672207	10756.100000
611.009833	10785.500000
613.350894	10635.000000
615.687317	10591.900000
618.025157	10523.100000
620.360380	10585.500000
622.692987	10508.600000
625.027010	10564.200000
627.358419	10573.600000
629.689230	10519.100000
632.019444	10472.700000
634.349059	10414.100000
636.674051	10449.200000
639.004485	10512.200000
641.330298	10509.800000
643.653503	10557.100000
645.978125	10511.900000
648.300141	10596.500000
650.621563	10516.500000
652.940383	10594.000000
655.260618	10662.600000
657.580260	10655.100000
659.897301	10780.000000
662.213750	10926.100000
664.527601	10927.700000
666.842868	11079.700000
669.155538	11192.000000
671.469623	11256.200000
673.779108	11505.700000
676.090009	11580.200000
678.398317	11581.700000
680.706037	11726.200000
683.015171	11790.900000
685.319713	12074.800000
687.623669	12094.300000
689.927039	12207.600000
692.231823	12394.100000
694.532021	12402.200000
696.833633	12637.100000
699.134661	12734.000000
701.431106	12835.200000
703.728967	13034.200000
706.026244	13171.100000
708.322938	13221.300000
710.615056	13291.800000
712.910585	13394.000000
715.201540	13703.800000
717.493910	13712.200000
719.783705	13844.500000
722.072919	13925.200000
724.361554	14057.400000
726.647616	14244.100000
728.935093	14287.100000
731.219998	14340.400000
733.504326	14595.300000
735.786085	14602.600000
738.069258	14618.300000
740.351854	14868.800000
742.629894	14928.500000
744.909349	15109.000000
747.188227	15283.300000
749.466531	15416.200000
751.740285	15458.200000
754.015452	15614.000000
756.290046	15850.500000
758.562081	15873.200000
760.835529	16126.600000
763.106419	16207.800000
765.374753	16259.700000
767.644500	16371.500000
769.911693	16507.700000
772.178315	16685.100000
774.444367	16924.800000
776.707868	16808.300000
778.972782	16999.300000
781.237126	17243.100000
783.496941	17141.800000
785.758168	17273.000000
788.018828	17348.300000
790.276942	17530.200000
792.532511	17585.500000
794.791471	17780.000000
797.043932	17780.700000
799.301759	17834.800000
801.555068	17942.400000
803.805837	18057.800000
806.058018	18182.300000
808.307660	18098.700000
810.558715	18171.000000
812.805258	18154.000000
815.053213	18183.100000
817.298634	18491.800000
819.545466	18371.100000
821.791737	18596.100000
824.033503	18758.500000
826.278653	18858.500000
828.517330	18907.400000
830.759389	18900.400000
832.996950	19109.300000
835.235923	19357.600000
837.472369	19278.800000
839.710226	19480.700000
841.945558	19526.100000
844.178367	20036.000000
846.412587	20148.500000
848.644284	20280.800000
850.875427	20550.600000
853.106015	20814.200000
855.336049	21207.500000
857.565529	21408.400000
859.790527	21911.000000
862.018900	22197.800000
864.242793	22532.800000
866.468098	23036.700000
868.688927	23520.300000
870.913128	23790.700000
873.132856	24082.900000
875.353994	24639.700000
877.574582	25207.300000
879.792661	25638.400000
882.012149	26065.600000
884.227171	26502.100000
886.441645	26715.000000
888.655572	27052.300000
890.868952	27281.700000
893.081784	27409.100000
895.294070	27628.600000
897.503853	27816.400000
899.713091	27640.400000
901.921784	27721.200000
904.127978	27726.100000
906.335581	27386.500000
908.540686	27090.000000
910.745248	26838.400000
912.947315	26535.800000
915.150791	26003.600000
917.351773	25441.900000
919.552213	24892.400000
921.754062	24251.000000
923.949520	23619.700000
926.148337	22869.800000
928.342715	22390.000000
930.540451	21651.700000
932.733751	21216.300000
934.928460	20607.800000
937.120683	20081.000000
939.312367	19645.200000
941.503514	19206.600000
943.692178	18971.700000
945.880306	18870.400000
948.065953	18444.700000
950.254952	18484.300000
952.439528	18313.100000
954.623569	18389.800000
956.810960	18313.400000
958.990047	18331.800000
961.172485	18249.100000
963.354389	18244.100000
965.533818	18353.900000
967.710775	18309.100000
969.889140	18297.400000
972.068912	18421.300000
974.242335	18220.000000
976.419104	18080.900000
978.591466	17918.600000
980.765236	17666.600000
982.934602	17473.800000
985.107312	17382.400000
987.277557	17066.900000
989.447273	16799.100000
991.616460	16490.300000
993.781250	16214.500000
995.949381	15976.300000
998.113118	15631.900000
1000.278261	15309.100000
1002.440945	15196.200000
1004.603104	14749.500000
1006.762806	14673.200000
1008.921983	14341.700000
1011.082567	14065.200000
1013.240697	13679.700000
1015.398302	13637.900000
1017.555384	13276.700000
1019.711942	13118.900000
1021.864121	12962.700000
1024.017707	12738.600000
1026.170771	12548.900000
1028.321386	12388.500000
1030.473408	12204.500000
1032.621056	12104.300000
1034.772036	11888.500000
1036.918645	11860.600000
1039.064735	11673.500000
1041.210307	11542.700000
1043.357284	11380.000000
1045.497972	11356.500000
1047.641990	11062.800000
1049.783567	11072.000000
1051.924628	10908.800000
1054.067093	10876.600000
1056.203279	10769.900000
1058.342790	10681.200000
1060.477947	10556.500000
1062.616428	10412.900000
1064.750555	10315.500000
1066.884169	10300.500000
1069.019188	10094.400000
1071.149857	9993.600000
1073.281931	9959.200000
1075.411576	9752.500000
1077.540709	9708.300000
1079.669330	9497.300000
1081.797440	9380.200000
1083.923124	9262.000000
1086.048298	9182.600000
1088.174876	8940.100000
1090.297116	8860.800000
1092.420761	8748.700000
1094.540071	8520.300000
1096.664611	8301.300000
1098.782905	8165.900000
1100.902604	7933.700000
1103.019884	7802.300000
1105.136658	7651.300000
1107.252925	7401.700000
1109.366776	7344.100000
1111.482032	7085.700000
1113.592964	6932.300000
1115.707209	6809.700000
1117.817133	6633.000000
1119.928461	6433.500000
1122.039284	6302.000000
1124.145791	6157.700000
1126.255608	6033.200000
1128.361110	5882.500000
1130.468015	5761.800000
1132.568705	5573.500000
1134.674607	5463.600000
1136.776200	5306.400000
1138.879196	5215.000000
1140.981691	5046.400000
1143.077979	4950.400000
1145.179475	4819.800000
1147.276667	4704.700000
1149.373362	4589.000000
1151.469558	4487.500000
1153.565257	4337.400000
1155.660457	4254.900000
1157.753261	4178.200000
1159.847468	4070.700000
1161.935483	3999.200000
1164.028696	3920.400000
1166.115721	3800.600000
1168.206045	3734.800000
1170.292082	3704.700000
1172.381416	3607.400000
1174.464569	3482.100000
1176.549124	3451.600000
1178.635081	3345.500000
1180.716756	3305.800000
1182.799833	3254.000000
1184.880524	3169.200000
1186.960723	3147.800000
1189.040431	3061.500000
1191.119648	3035.600000
1193.196483	2970.000000
1195.270937	2904.000000
1197.348682	2863.200000
1199.422158	2806.100000
1201.497034	2769.600000
1203.567643	2815.700000
1205.639653	2705.000000
1207.709288	2681.300000
1209.780323	2670.900000
1211.850870	2656.100000
1213.917156	2615.500000
1215.984843	2619.700000
1218.050158	2574.700000
1220.116873	2581.100000
1222.179332	2573.200000
1224.245076	2559.900000
1226.306566	2523.800000
1228.369457	2533.600000
1230.429980	2482.200000
1232.490019	2473.000000
1234.549576	2454.600000
1236.606767	2478.000000
1238.663477	2455.300000
1240.717823	2403.500000
1242.775451	2453.900000
1244.830716	2427.900000
1246.881740	2417.500000
1248.934164	2394.300000
1250.986108	2418.200000
1253.035694	2391.300000
1255.084801	2405.100000
1257.133430	2355.100000
1259.181580	2359.700000
1261.229251	2352.200000
1263.272692	2387.900000
1265.319409	2354.200000
1267.363772	2333.600000
1269.407659	2345.800000
1271.449194	2361.600000
1273.488380	2275.000000
1275.530839	2301.400000
1277.569075	2316.600000
1279.608710	2271.700000
1281.647870	2283.200000
1283.682811	2305.000000
1285.719151	2299.300000
1287.753147	2312.400000
1289.788540	2289.200000
1291.819721	2286.500000
1293.852299	2248.200000
1295.884406	2270.000000
1297.914172	2266.200000
1299.945336	2268.100000
1301.972292	2292.700000
1304.000646	2288.300000
1306.024795	2304.300000
1308.052210	2276.100000
1310.075422	2289.300000
1312.100032	2276.900000
1314.122308	2274.900000
1316.145981	2255.300000
1318.167321	2237.200000
1320.188193	2259.100000
1322.208598	2265.600000
1324.224810	2246.200000
1326.242419	2251.200000
1328.257700	2260.100000
1330.276240	2246.400000
1332.290591	2213.100000
1334.302616	2258.200000
1336.317898	2240.100000
1338.328995	2221.800000
1340.341489	2244.100000
1342.349800	2243.100000
1344.361366	2263.600000
1346.366894	2220.300000
1348.375677	2245.600000
1350.380282	2213.400000
1352.388141	2259.500000
1354.395538	2254.000000
1356.396904	2252.900000
1358.399666	2244.200000
1360.401969	2241.500000
1362.403812	2237.900000
1364.405195	2210.900000
1366.404265	2263.700000
1368.402876	2281.300000
1370.401029	2266.700000
1372.398723	2248.400000
1374.392255	2236.800000
1376.387182	2266.800000
1378.381653	2256.100000
1380.375667	2279.000000
1382.367374	2252.700000
1384.358626	2259.400000
1386.347572	2301.000000
1388.337913	2292.300000
1390.327799	2242.000000
1392.315381	2296.400000
1394.302510	2249.600000
1396.287337	2299.500000
1398.273559	2241.600000
1400.257481	2264.800000
1402.240950	2233.700000
1404.223966	2260.400000
1406.204685	2223.400000
1408.186798	2222.600000
1410.166615	2236.200000
1412.145980	2239.300000
1414.121207	2223.400000
1416.099672	2227.400000
1418.075844	2193.100000
1420.051567	2207.200000
1422.026840	2183.300000
1423.999822	2213.300000
1425.972356	2222.900000
1427.944442	2186.000000
1429.916081	2199.000000
1431.883591	2202.900000
1433.856175	2149.200000
1435.820953	2161.900000
1437.790804	2166.300000
1439.756531	2162.800000
1441.723650	2142.400000
1443.688486	2112.700000
1445.649202	2125.600000
1447.614986	2113.300000
1449.574815	2141.400000
1451.536038	2121.200000
1453.498653	2111.800000
1455.457153	2124.400000
1457.415210	2100.800000
1459.372826	2091.700000
1461.329999	2057.000000
1463.284897	2106.100000
1465.241188	2087.300000
1467.195204	2108.900000
1469.148779	2063.300000
1471.100082	2074.600000
1473.052778	2049.100000
1475.003201	2049.700000
1476.953186	2035.800000
1478.902732	2059.800000
1480.850009	2057.400000
1482.795018	2028.300000
1484.741420	2034.100000
1486.687384	2021.700000
1488.632911	2050.200000
1490.576172	2053.000000
1492.518998	2055.500000
1494.459560	2005.500000
1496.401513	2017.900000
1498.341204	1998.100000
1500.280461	2040.200000
1502.219282	1994.000000
1504.155844	1988.800000
1506.093797	2007.800000
1508.029491	1973.400000
1509.964752	1989.600000
1511.897757	1955.400000
1513.830329	2030.800000
1515.762469	1968.400000
1517.694177	1968.300000
1519.623631	1974.400000
1521.554476	1972.600000
1523.484889	1961.900000
1525.411230	1986.800000
1527.338962	1955.300000
1529.264443	2002.800000
1531.189495	1955.100000
1533.114118	1967.400000
1535.038312	1951.600000
1536.960258	1956.200000
1538.883595	1945.100000
1540.804685	1958.100000
1542.723531	1944.300000
1544.643767	1949.600000
1546.561760	1960.500000
1548.479326	1936.300000
1550.394650	1961.600000
1552.311364	1945.900000
1554.224023	1933.400000
1556.139886	1935.300000
1558.053509	1934.600000
1559.964894	1913.600000
1561.877669	1904.000000
1563.786394	1893.900000
1565.696508	1909.800000
1567.606199	1919.900000
1569.515467	1926.700000
1571.422501	1907.400000
1573.327302	1872.300000
1575.233492	1913.600000
1577.137450	1900.200000
1579.040987	1882.000000
1580.944104	1895.300000
1582.844991	1910.400000
1584.747267	1882.300000
1586.647315	1908.200000
1588.548750	1875.200000
1590.446152	1861.900000
1592.343135	1889.600000
1594.239700	1836.300000
1596.137653	1852.300000
1598.029771	1846.800000
1599.925082	1845.900000
1601.819976	1872.900000
1603.712648	1838.100000
1605.604903	1882.800000
1607.494939	1859.600000
1609.384559	1852.400000
1611.273764	1828.200000
1613.162554	1850.500000
1615.049126	1864.600000
1616.937086	1856.800000
1618.821029	1839.600000
1620.706359	1857.000000
1622.591276	1839.700000
1624.473979	1853.700000
1626.358069	1841.300000
1628.238147	1834.400000
1630.119613	1820.600000
1631.998868	1814.300000
1633.879509	1806.800000
1635.754346	1837.200000
1637.634164	1825.200000
1639.509978	1827.500000
1641.385381	1823.200000
1643.262170	1860.300000
1645.133163	1821.100000
1647.007337	1809.800000
1648.877512	1834.300000
1650.750869	1813.600000
1652.622022	1830.200000
1654.490973	1814.600000
1656.361309	1791.000000
1658.227653	1820.900000
1660.095382	1805.100000
1661.960912	1825.500000
1663.827828	1794.700000
1665.690755	1807.800000
1667.555067	1764.700000
1669.417183	1765.000000
1671.278894	1774.500000
1673.141991	1811.700000
1675.002892	1793.800000
1676.861601	1763.700000
1678.719906	1798.300000
1680.579596	1776.000000
1682.433518	1784.400000
1684.290614	1763.800000
1686.147307	1780.400000
1688.000023	1755.300000
1689.855911	1779.400000
1691.707825	1754.400000
1693.559338	1753.400000
1695.410450	1759.800000
1697.261162	1771.000000
1699.111473	1766.400000
1700.959599	1760.700000
1702.809110	1771.400000
1704.652872	1737.400000
1706.501583	1744.800000
1708.344548	1720.800000
1710.190680	1751.000000
1712.032849	1726.500000
1713.878184	1741.900000
1715.717778	1743.000000
1717.558756	1733.300000
1719.401117	1744.200000
1721.239522	1742.100000
1723.079310	1733.700000
1724.916923	1746.000000
1726.754140	1741.800000
1728.589184	1731.200000
1730.425611	1738.800000
1732.259866	1702.500000
1734.093726	1696.500000
1735.927192	1743.100000
1737.756713	1717.200000
1739.589392	1699.100000
1741.418127	1741.500000
1743.250019	1704.300000
1745.077969	1701.400000
1746.905528	1682.800000
1748.732694	1692.000000
1750.559469	1704.300000
1752.385852	1704.900000
1754.208299	1683.800000
1756.033901	1692.000000
1757.855568	1702.700000
1759.678617	1702.700000
1761.499504	1695.400000
1763.320003	1716.800000
1765.141882	1703.100000
1766.958063	1715.300000
1768.777395	1720.200000
1770.592800	1737.200000
1772.411355	1688.000000
1774.225985	1696.100000
1776.040228	1718.800000
1777.854085	1680.500000
1779.667555	1723.100000
1781.478872	1704.800000
1783.291569	1694.600000
1785.103881	1682.500000
1786.912275	1706.200000
1788.722049	1687.900000
1790.527909	1691.200000
1792.336914	1659.700000
1794.142006	1681.300000
1795.948479	1647.900000
1797.754568	1684.300000
1799.556746	1666.100000
1801.362069	1667.900000
1803.163483	1674.300000
1804.966277	1682.300000
1806.765165	1675.300000
1808.565434	1663.700000
1810.365321	1663.700000
1812.163066	1669.600000
1813.960431	1643.100000
1815.757416	1666.900000
1817.554020	1672.500000
1819.348485	1655.700000
1821.144329	1673.200000
1822.934518	1633.200000
1824.729604	1651.600000
1826.519038	1655.900000
1828.311608	1644.100000
1830.102043	1658.200000
1831.890344	1686.300000
1833.681780	1667.900000
1835.467570	1635.900000
1837.254740	1654.500000
1839.039778	1662.400000
1840.827950	1640.500000
1842.612236	1648.800000
1844.394392	1647.700000
1846.177928	1648.200000
1847.959335	1649.900000
1849.742121	1632.200000
1851.521026	1626.800000
1853.301311	1648.000000
1855.079469	1653.500000
1856.859006	1619.500000
1858.636418	1646.900000
1860.411706	1654.900000
1862.188372	1620.600000
1863.962916	1634.100000
1865.738838	1633.400000
1867.509139	1643.100000
1869.282568	1628.500000
1871.053877	1660.600000
1872.824815	1635.300000
1874.597131	1655.700000
1876.363833	1641.700000
1878.133661	1618.700000
1879.899625	1623.500000
1881.668712	1612.900000
1883.433938	1629.600000
1885.198796	1641.700000
1886.965031	1632.200000
1888.727407	1636.700000
1890.489416	1599.700000
1892.251057	1625.100000
1894.012332	1618.800000
1895.773239	1591.900000
1897.533780	1618.200000
1899.292211	1595.600000
1901.050276	1589.000000
1902.806234	1613.600000
1904.563568	1603.400000
1906.320537	1605.500000
1908.075399	1606.700000
1909.828157	1632.600000
1911.580550	1588.700000
1913.334320	1617.400000
1915.085986	1615.800000
1916.835550	1602.600000
1918.586489	1596.100000
1920.337066	1592.400000
1922.083803	1578.200000
1923.831917	1621.600000
1925.577931	1615.800000
1927.325320	1622.500000
1929.070612	1607.900000
1930.813806	1605.300000
1932.558375	1596.000000
1934.300849	1621.400000
1936.042962	1605.800000
1937.784715	1623.000000
1939.526108	1583.000000
1941.265408	1597.800000
1943.004349	1604.700000
1944.742931	1592.700000
1946.479422	1578.800000
1948.215555	1590.550000
1949.953062	1602.300000
1951.686747	1608.500000
1953.421807	1601.100000
1955.154778	1632.700000
1956.887393	1604.800000
1958.619652	1654.000000
1960.351554	1630.100000
1962.081370	1639.100000
1963.809101	1628.300000
1965.538207	1612.500000
1967.266958	1634.400000
1968.993625	1631.900000
1970.719938	1609.400000
1972.447624	1641.300000
1974.169774	1616.600000
1975.895025	1615.800000
1977.616469	1630.300000
1979.341014	1629.200000
1981.063478	1613.200000
1982.782140	1655.100000
1984.503900	1651.500000
1986.221858	1621.900000
1987.941189	1609.100000
1989.656721	1620.500000
1991.377073	1613.600000
1993.093627	1623.600000
1994.806384	1640.800000
1996.522237	1590.900000
1998.236018	1586.700000
1999.949449	1617.500000
2001.660809	1632.200000
2003.373541	1600.600000
2005.082483	1596.200000
2006.794517	1630.000000
2008.501043	1625.400000
2010.210660	1605.700000
2011.918211	1609.200000
2013.625413	1614.400000
2015.330550	1620.500000
2017.035341	1597.200000
2018.741503	1629.700000
2020.443883	1615.200000
2022.147634	1617.200000
2023.849323	1613.300000
2025.550667	1627.900000
2027.251665	1620.000000
2028.950602	1625.600000
2030.650911	1593.100000
2032.347445	1582.200000
2034.045350	1614.300000
2035.741196	1626.600000
2037.440128	1643.700000
2039.133574	1586.000000
2040.828391	1607.100000
2042.522866	1648.800000
2044.213572	1609.800000
2045.907362	1621.500000
2047.597385	1609.900000
2049.288779	1568.500000
2050.978120	1615.800000
2052.668831	1602.300000
2054.355779	1597.200000
2056.042388	1591.600000
2057.730366	1623.500000
2059.414585	1562.100000
2061.100175	1575.400000
2062.785425	1582.000000
2064.468626	1571.800000
2066.153198	1599.800000
2067.832307	1553.400000
2069.516201	1567.900000
2071.194634	1522.500000
2072.876145	1564.200000
2074.553904	1537.500000
2076.231327	1557.800000
2077.910119	1548.700000
2079.586869	1581.600000
2081.261577	1569.000000
2082.937654	1555.100000
2084.611691	1580.900000
2086.285392	1569.400000
2087.958758	1558.900000
2089.630085	1538.900000
2091.301078	1575.900000
2092.971737	1549.500000
2094.642062	1558.800000
2096.312053	1569.200000
2097.980008	1563.000000
2099.647630	1555.400000
2101.313217	1557.300000
2102.980173	1559.900000
2104.645096	1564.800000
2106.309687	1574.200000
2107.972246	1556.900000
2109.636173	1581.700000
2111.298069	1579.600000
2112.959635	1571.000000
2114.620869	1542.100000
2116.280075	1574.800000
2117.938950	1596.800000
2119.597496	1588.900000
2121.255711	1583.900000
2122.910204	1569.900000
2124.567761	1570.400000
2126.224989	1584.700000
2127.878495	1546.900000
2129.533369	1566.300000
2131.184524	1593.300000
2132.838742	1560.400000
2134.489243	1596.100000
2136.141110	1569.500000
2137.787569	1585.100000
2139.438783	1588.600000
2141.086283	1574.600000
2142.735150	1574.000000
2144.381998	1555.200000
2146.028521	1569.800000
2147.674718	1552.200000
2149.317207	1566.000000
2150.962754	1577.000000
2152.604594	1548.700000
2154.249491	1555.000000
2155.890682	1547.700000
2157.531551	1524.300000
2159.172095	1531.000000
2160.810627	1525.300000
2162.450525	1517.500000
2164.086723	1523.200000
2165.724287	1551.200000
2167.361529	1511.000000
2168.996761	1518.800000
2170.631672	1518.600000
2172.266260	1536.900000
2173.900528	1536.700000
2175.531102	1525.400000
2177.164728	1546.100000
2178.794662	1554.200000
2180.425961	1525.800000
2182.055255	1553.100000
2183.684230	1540.600000
2185.312885	1536.500000
2186.941221	1523.000000
2188.567555	1513.000000
2190.193570	1515.800000
2191.817583	1510.800000
2193.442962	1512.600000
2195.066340	1515.900000
2196.691083	1506.400000
2198.312145	1508.700000
2199.932890	1497.600000
2201.555000	1475.000000
2203.175112	1509.300000
2204.793227	1480.700000
2206.411027	1473.000000
2208.028512	1448.000000
2209.645681	1483.300000
2211.262535	1448.700000
2212.879073	1486.600000
2214.493619	1487.600000
2216.106172	1486.400000
2217.720089	1483.100000
2219.332015	1481.200000
2220.945304	1483.000000
2222.556603	1469.300000
2224.165912	1529.100000
2225.776585	1487.700000
2227.385269	1476.300000
2228.993640	1468.000000
2230.600025	1455.200000
2232.207773	1471.000000
2233.813534	1476.600000
2235.418984	1469.700000
2237.022449	1477.100000
2238.627277	1508.000000
2240.230121	1469.400000
2241.830982	1462.800000
2243.433206	1473.000000
2245.033448	1469.800000
2246.635052	1474.000000
2248.233003	1480.000000
2249.832317	1508.800000
2251.429651	1460.900000
2253.026677	1499.600000
2254.625065	1478.800000
2256.219804	1496.100000
2257.812566	1486.400000
2259.406691	1473.800000
2261.002177	1483.300000
2262.594018	1449.700000
2264.185553	1468.500000
2265.778450	1470.200000
2267.366037	1469.300000
2268.958320	1459.300000
2270.545297	1470.500000
2272.135301	1469.800000
2273.720001	1449.400000
2275.309395	1478.800000
2276.893487	1431.100000
2278.478939	1467.900000
2280.062423	1478.400000
2281.648932	1486.900000
2283.231808	1434.600000
2284.814381	1467.100000
2286.396650	1456.100000
2287.975289	1430.500000
2289.556953	1452.600000
2291.134988	1454.700000
2292.716046	1445.800000
2294.293477	1429.900000
2295.868945	1414.000000
2297.447435	1436.000000
2299.022301	1455.900000
2300.596866	1449.600000
2302.171131	1412.400000
2303.745095	1450.300000
2305.318758	1428.700000
2306.892122	1406.000000
2308.461867	1426.700000
2310.031313	1425.400000
2311.603777	1439.300000
2313.170967	1451.800000
2314.741175	1415.200000
2316.307768	1432.500000
2317.875721	1416.500000
2319.441718	1442.800000
2321.007418	1410.000000
2322.572820	1415.600000
2324.136269	1466.300000
2325.701077	1446.700000
2327.262277	1480.100000
2328.826491	1512.600000
2330.385443	1496.700000
2331.947410	1481.900000
2333.507425	1458.800000
2335.067146	1448.900000
2336.624917	1462.600000
2338.182393	1450.700000
2339.739575	1453.100000
2341.294809	1471.900000
2342.849750	1446.000000
2344.404396	1438.800000
2345.958749	1459.900000
2347.512809	1448.600000
2349.066574	1484.000000
2350.618395	1431.900000
2352.168274	1408.900000
2353.721160	1472.700000
2355.268803	1443.100000
2356.819455	1459.800000
2358.366515	1448.300000
2359.914933	1457.800000
2361.463060	1475.300000
2363.007598	1466.000000
2364.553494	1472.000000
2366.097452	1456.900000
2367.642767	1451.200000
2369.184497	1475.300000
2370.727584	1452.500000
2372.268735	1487.200000
2373.809597	1445.000000
2375.350170	1473.400000
2376.890454	1428.300000
2378.430449	1452.200000
2379.966866	1471.400000
2381.506284	1446.500000
2383.042124	1462.600000
2384.579322	1467.300000
2386.112944	1462.700000
2387.649566	1497.200000
2389.184258	1450.000000
2390.717020	1460.000000
2392.249495	1448.800000
2393.780042	1451.400000
2395.313587	1439.900000
2396.841921	1477.200000
2398.371612	1456.600000
2399.901016	1478.500000
2401.430136	1427.800000
2402.958971	1469.200000
2404.482600	1485.200000
2406.010865	1484.500000
2407.533928	1506.500000
2409.061624	1458.000000
2410.582481	1465.700000
2412.107971	1484.500000
2413.629900	1463.600000
2415.153185	1455.700000
2416.674548	1492.800000
2418.193992	1477.200000
2419.714791	1458.800000
2421.233672	1459.900000
2422.752270	1480.900000
2424.268951	1445.000000
2425.786986	1451.200000
2427.304740	1455.500000
2428.818943	1464.300000
2430.332865	1466.500000
2431.846507	1432.600000
2433.361504	1486.500000
2434.872952	1462.000000
2436.385755	1477.900000
2437.896644	1445.700000
2439.407255	1471.800000
2440.915954	1486.100000
2442.427639	1474.100000
2443.935781	1432.800000
2445.443645	1471.700000
2446.951231	1451.800000
2448.455276	1422.900000
2449.962306	1433.100000
2451.467428	1443.300000
2452.972273	1410.700000
2454.475211	1418.000000
2455.977873	1425.100000
2457.480258	1406.100000
2458.980738	1398.700000
2460.482571	1420.300000
2461.982499	1386.900000
2463.482152	1390.600000
2464.981530	1404.500000
2466.479005	1386.300000
2467.974578	1391.300000
2469.473131	1387.800000
2470.968156	1363.200000
2472.464533	1378.100000
2473.957384	1383.600000
2475.451588	1427.500000
2476.945518	1380.400000
2478.435924	1378.500000
2479.929308	1407.100000
2481.420794	1378.800000
2482.910383	1363.600000
2484.399700	1398.200000
2485.887121	1391.000000
2487.377518	1361.600000
2488.864397	1398.800000
2490.352627	1385.900000
2491.837340	1363.500000
2493.321784	1382.100000
2494.807578	1354.800000
2496.291481	1365.800000
2497.776734	1404.000000
2499.256854	1364.300000
2500.739947	1381.300000
2502.221149	1408.600000
2503.702082	1385.500000
2505.181126	1379.500000
2506.659901	1402.800000
2508.138408	1353.000000
2509.616647	1390.300000
2511.094617	1373.000000
2512.569082	1404.400000
2514.046517	1400.300000
2515.520448	1382.300000
2516.995729	1382.400000
2518.470743	1390.200000
2519.942256	1368.500000
2521.415120	1367.600000
2522.886101	1374.400000
2524.358432	1356.500000
2525.825649	1411.200000
2527.295833	1371.700000
2528.764136	1358.400000
2530.232174	1379.900000
2531.699947	1382.200000
2533.167455	1374.500000
2534.634698	1402.900000
2536.098449	1398.000000
2537.563550	1409.300000
2539.026774	1366.000000
2540.491347	1377.400000
2541.952432	1348.600000
2543.414866	1392.700000
2544.877037	1388.400000
2546.335722	1378.100000
2547.798978	1400.300000
2549.257139	1431.900000
2550.716648	1381.900000
2552.171063	1366.700000
2553.630049	1384.800000
2555.087163	1412.500000
2556.542406	1377.400000
2557.997387	1372.700000
2559.450500	1430.900000
2560.904961	1367.400000
2562.357552	1406.500000
2563.809884	1394.800000
2565.260349	1387.300000
2566.713769	1369.700000
2568.162107	1369.400000
2569.613400	1385.700000
2571.062828	1380.500000
2572.508783	1369.900000
2573.957693	1368.500000
2575.403133	1368.800000
2576.849920	1354.200000
2578.294845	1372.000000
2579.739511	1367.200000
2581.185525	1355.800000
2582.628073	1364.200000
2584.071968	1332.300000
2585.512398	1353.300000
2586.954175	1359.900000
2588.394093	1346.900000
2589.835358	1334.800000
2591.273161	1357.800000
2592.713914	1351.500000
2594.149605	1348.400000
2595.588245	1346.200000
2597.025027	1317.700000
2598.459954	1350.700000
2599.897828	1344.400000
2601.330645	1372.300000
2602.764809	1330.200000
2604.197119	1333.600000
2605.630775	1336.600000
2607.062578	1345.000000
2608.494127	1341.300000
2609.925424	1364.000000
2611.354868	1353.000000
2612.784060	1324.300000
2614.211402	1371.000000
2615.640089	1368.800000
2617.068525	1319.700000
2618.493513	1363.200000
2619.919848	1315.600000
2621.344334	1353.600000
2622.770166	1378.300000
2624.192554	1365.700000
2625.616288	1335.200000
2627.038175	1346.300000
2628.459813	1347.600000
2629.879605	1348.000000
2631.300743	1334.400000
2632.721631	1337.700000
2634.139081	1330.300000
2635.559470	1363.100000
2636.976422	1335.700000
2638.393125	1336.500000
2639.809580	1329.700000
2641.225787	1343.300000
2642.641746	1317.400000
2644.055864	1367.300000
2645.469734	1336.200000
2646.881766	1331.500000
2648.295141	1319.800000
2649.705087	1332.700000
2651.117969	1335.400000
2652.527422	1334.000000
2653.936629	1322.500000
2655.344000	1339.000000
2656.754305	1334.800000
2658.162775	1370.500000
2659.569409	1343.100000
2660.975798	1307.500000
2662.380353	1327.700000
2663.786252	1344.000000
2665.190318	1336.700000
2666.594139	1313.400000
2667.997716	1336.200000
2669.399462	1306.300000
2670.802551	1328.400000
2672.202222	1327.300000
2673.603237	1347.100000
2675.000836	1349.100000
2676.401365	1324.900000
2677.798478	1344.000000
2679.196935	1338.100000
2680.593565	1329.800000
2681.989952	1328.300000
2683.386097	1353.700000
2684.780416	1327.200000
2686.176078	1334.900000
2687.568331	1305.800000
2688.961926	1313.900000
2690.353697	1336.100000
2691.746811	1301.400000
2693.138101	1280.000000
2694.527568	1338.800000
2695.916795	1337.400000
2697.305783	1294.800000
2698.696112	1326.400000
2700.081458	1326.300000
2701.469727	1287.600000
2702.856176	1316.800000
2704.242386	1318.200000
2705.628357	1318.400000
2707.010930	1311.200000
2708.394845	1304.400000
2709.778522	1331.400000
2711.161960	1305.000000
2712.542004	1316.700000
2713.923388	1313.900000
2715.302958	1267.800000
2716.683868	1306.900000
2718.062964	1294.700000
2719.440246	1314.400000
2720.818869	1295.200000
2722.195679	1312.700000
2723.572252	1308.500000
2724.948590	1296.200000
2726.323117	1318.400000
2727.698984	1305.700000
2729.071464	1310.000000
2730.446860	1296.200000
2731.817296	1321.200000
2733.189073	1296.900000
2734.560615	1277.100000
2735.930349	1297.700000
2737.301424	1317.200000
2738.670690	1321.300000
2740.039723	1304.000000
2741.406950	1312.900000
2742.773943	1279.300000
2744.140704	1310.200000
2745.507233	1274.600000
2746.871956	1333.100000
2748.236447	1304.200000
2749.600707	1306.700000
2750.964734	1279.100000
2752.328530	1337.300000
2753.688952	1297.500000
2755.052284	1276.900000
2756.410674	1303.500000
2757.771974	1292.100000
2759.129904	1288.200000
2760.490742	1269.700000
2761.849781	1284.300000
2763.205451	1298.600000
2764.564029	1290.900000
2765.919240	1280.800000
2767.274222	1266.100000
2768.627408	1295.100000
2769.983500	1267.300000
2771.336227	1266.200000
2772.688727	1265.600000
2774.040998	1238.700000
2775.394607	1246.300000
2776.744856	1253.100000
2778.093310	1249.800000
2779.444670	1277.200000
2780.792670	1278.600000
2782.142008	1288.600000
2783.489554	1237.000000
2784.836874	1273.900000
2786.183967	1254.200000
2787.529269	1248.700000
2788.874344	1252.900000
2790.219194	1281.900000
2791.563818	1255.800000
2792.905090	1271.900000
2794.247700	1218.600000
2795.590084	1254.600000
2796.932243	1262.900000
2798.271053	1276.700000
2799.612763	1279.500000
2800.951125	1273.600000
2802.290823	1240.500000
2803.628737	1264.500000
2804.964866	1253.700000
2806.300771	1260.200000
2807.638014	1239.900000
2808.973473	1283.200000
2810.308709	1245.700000
2811.642162	1251.500000
2812.976952	1279.600000
2814.308402	1303.600000
2815.642747	1243.200000
2816.972194	1256.600000
2818.302978	1260.800000
2819.633540	1256.400000
2820.962323	1278.700000
2822.292442	1234.700000
2823.620783	1287.700000
2824.948903	1276.700000
2826.275245	1225.200000
2827.602924	1254.400000
2828.927269	1229.500000
2830.252951	1255.600000
2831.576857	1288.600000
2832.900544	1266.700000
2834.225566	1250.500000
2835.547258	1238.600000
2836.868732	1214.600000
2838.189987	1266.400000
2839.511023	1242.900000
2840.830286	1214.300000
2842.150885	1277.200000
2843.469713	1241.600000
2844.788322	1250.100000
2846.105160	1221.700000
2847.421781	1236.600000
2848.738185	1240.700000
2850.052819	1224.300000
2851.368789	1237.400000
2852.681438	1260.300000
2853.995422	1244.700000
2855.309190	1259.900000
2856.622741	1224.200000
2857.934526	1213.200000
2859.244544	1240.300000
2860.555897	1235.600000
2861.863935	1223.900000
2863.173307	1253.500000
2864.482465	1261.300000
2865.791407	1245.700000
2867.098585	1290.800000
2868.404001	1225.900000
2869.710750	1246.600000
2871.015738	1266.400000
2872.320512	1270.400000
2873.623524	1272.400000
2874.929417	1229.600000
2876.230456	1288.000000
2877.532829	1201.700000
2878.833442	1267.200000
2880.135389	1289.700000
2881.437122	1229.600000
2882.735552	1276.100000
2884.035315	1257.700000
2885.333321	1241.400000
2886.631115	1262.900000
2887.927153	1249.100000
2889.224524	1214.600000
2890.520139	1254.000000
2891.815543	1313.600000
2893.110736	1270.400000
2894.402632	1256.400000
2895.697404	1232.600000
2896.988879	1242.000000
2898.281687	1230.200000
2899.574285	1243.400000
2900.863589	1265.000000
2902.154225	1233.000000
2903.443110	1270.500000
2904.733327	1233.000000
2906.020253	1249.600000
2907.308511	1265.600000
2908.595020	1251.400000
2909.881320	1227.300000
2911.167413	1253.000000
2912.451757	1221.400000
2913.738972	1245.100000
2915.021361	1228.400000
2916.305082	1257.100000
2917.587057	1232.200000
2918.868824	1237.800000
2920.148847	1258.500000
2921.431739	1234.300000
2922.712886	1234.200000
2923.990751	1241.100000
2925.271485	1232.400000
2926.548938	1245.900000
2927.826185	1243.400000
2929.101690	1255.500000
2930.380063	1242.000000
2931.653622	1236.400000
2932.930048	1228.000000
2934.204733	1232.500000
2935.477677	1221.900000
2936.751953	1246.700000
2938.024489	1239.100000
2939.296820	1216.900000
2940.565879	1235.600000
2941.837803	1261.100000
2943.107989	1194.400000
2944.377971	1224.600000
2945.647750	1214.500000
2946.915793	1217.500000
2948.182099	1215.800000
2949.448204	1205.200000
2950.715638	1210.400000
2951.981338	1225.100000
2953.246835	1230.300000
2954.512130	1224.200000
2955.774160	1228.700000
2957.037520	1225.200000
2958.300679	1200.100000
2959.562106	1237.900000
2960.824862	1198.500000
2962.085886	1245.800000
2963.345180	1233.700000
2964.604274	1208.600000
2965.863167	1210.000000
2967.121860	1217.700000
2968.380353	1208.100000
2969.637117	1238.300000
2970.893681	1232.300000
2972.148518	1167.100000
2973.404683	1226.000000
2974.657594	1227.200000
2975.911834	1204.000000
2977.165875	1257.800000
2978.418190	1208.900000
2979.670306	1226.000000
2980.920698	1217.500000
2982.173945	1238.500000
2983.422415	1213.200000
2984.673740	1233.800000
2985.921815	1200.500000
2987.169694	1210.900000
2988.417375	1206.700000
2989.664859	1209.400000
2990.910622	1217.400000
2992.156189	1224.400000
2993.403083	1196.400000
2994.646733	1184.100000
2995.891711	1196.300000
2997.133445	1225.000000
2998.378031	1211.000000
2999.620898	1219.700000
3000.860524	1200.900000
3002.103000	1208.000000
3003.342236	1203.500000
3004.582800	1230.500000
3005.821648	1210.500000
3007.060300	1186.700000
3008.297237	1213.100000
3009.535502	1188.500000
3010.772051	1236.400000
3012.008407	1192.800000
3013.244569	1227.800000
3014.479017	1205.600000
3015.713273	1185.100000
3016.947335	1229.200000
3018.179685	1172.700000
3019.410323	1210.400000
3020.643807	1203.600000
3021.875579	1181.400000
3023.105641	1181.900000
3024.335510	1200.900000
3025.563671	1191.500000
3026.793157	1206.500000
3028.020934	1198.300000
3029.248520	1222.500000
3030.477433	1232.000000
3031.701603	1216.700000
3032.928616	1189.100000
3034.152405	1216.700000
3035.377521	1200.800000
3036.600930	1206.300000
3037.824149	1188.500000
3039.045663	1199.800000
3040.270018	1191.900000
3041.489638	1195.100000
3042.710584	1176.100000
3043.931341	1203.900000
3045.150394	1200.300000
3046.370772	1215.000000
3047.587934	1193.800000
3048.806422	1208.200000
3050.023207	1196.900000
3051.239805	1184.000000
3052.456214	1186.900000
3053.669411	1173.100000
3054.885445	1190.400000
3056.098267	1177.700000
3057.313926	1164.700000
3058.524862	1202.900000
3059.737123	1203.200000
3060.949198	1174.600000
3062.161085	1171.900000
3063.371276	1186.900000
3064.581280	1204.000000
3065.791098	1203.300000
3066.999220	1178.400000
3068.207157	1160.300000
3069.413398	1181.500000
3070.620964	1213.700000
3071.826835	1219.050000
3073.032522	1224.400000
3074.238023	1172.700000
3075.441831	1192.200000
3076.646963	1191.100000
3077.850402	1194.900000
3079.052150	1211.500000
3080.253713	1192.100000
3081.455093	1208.200000
3082.656289	1197.900000
3083.855795	1178.000000
3085.055118	1191.600000
3086.255764	1196.500000
3087.454720	1172.000000
3088.650482	1191.000000
3089.849073	1189.800000
3091.044470	1199.400000
3092.241190	1192.100000
3093.434718	1176.700000
3094.631074	1208.800000
3095.825744	1187.800000
3097.017223	1196.600000
3098.213033	1191.500000
3099.404149	1195.200000
3100.596589	1199.200000
3101.785841	1162.100000
3102.977918	1187.900000
3104.168312	1204.900000
3105.355520	1168.700000
3106.544051	1189.900000
3107.733903	1200.300000
3108.920572	1192.100000
3110.107060	1183.500000
3111.293370	1194.100000
3112.481001	1182.800000
3113.665450	1180.100000
3114.848220	1173.400000
3116.033812	1146.800000
3117.217725	1171.000000
3118.399959	1182.000000
3119.582014	1180.100000
3120.763891	1163.300000
3121.945590	1176.500000
3123.125612	1203.800000
3124.303957	1199.500000
3125.485122	1200.300000
3126.663112	1173.400000
3127.840926	1195.900000
3129.018562	1186.700000
3130.194523	1157.600000
3131.370307	1175.200000
3132.547413	1151.500000
3133.722844	1177.200000
3134.896602	1167.300000
3136.068687	1169.600000
3137.242094	1166.300000
3138.415324	1195.300000
3139.586883	1168.100000
3140.759762	1178.100000
3141.929474	1196.700000
3143.100507	1154.100000
3144.269870	1167.300000
3145.437562	1179.100000
3146.608070	1166.200000
3147.773920	1167.500000
3148.944078	1170.600000
3150.109580	1170.200000
3151.274907	1164.500000
3152.440061	1175.200000
3153.605042	1210.700000
3154.771342	1168.200000
3155.932990	1161.900000
3157.095957	1153.900000
3158.258752	1172.500000
3159.421374	1163.000000
3160.582331	1137.600000
3161.743115	1128.700000
3162.903727	1137.800000
3164.062675	1134.600000
3165.221452	1135.000000
3166.380057	1181.400000
3167.538489	1137.900000
3168.696751	1174.600000
3169.853350	1148.700000
3171.008288	1141.600000
3172.164545	1126.200000
3173.319141	1146.400000
3174.473567	1143.800000
3175.626333	1148.400000
3176.778928	1136.900000
3177.931354	1127.200000
3179.083610	1164.600000
3180.235695	1152.300000
3181.384635	1146.200000
3182.536381	1135.800000
3183.686469	1132.800000
3184.834901	1159.700000
3185.983163	1146.600000
3187.131257	1157.400000
3188.279182	1151.900000
3189.425451	1169.800000
3190.571552	1166.400000
3191.715999	1147.000000
3192.860278	1163.200000
3194.004389	1165.800000
3195.149817	1173.600000
3196.292107	1128.500000
3197.434230	1131.900000
3198.576185	1165.100000
3199.717973	1148.700000
3200.859594	1134.800000
3201.998080	1165.800000
3203.137883	1148.600000
3204.279004	1143.300000
3205.416990	1169.800000
3206.553327	1167.700000
3207.689498	1168.400000
3208.826986	1147.000000
3209.962826	1151.700000
3211.099983	1131.700000
3212.232527	1157.600000
3213.369353	1179.300000
3214.501567	1166.800000
3215.635098	1167.500000
3216.768465	1141.100000
3217.898704	1149.700000
3219.031741	1155.800000
3220.161652	1119.500000
3221.292879	1137.700000
3222.420982	1146.200000
3223.551881	1158.700000
3224.681136	1114.300000
3225.808748	1135.900000
3226.933237	1117.400000
3228.062002	1129.300000
3229.187645	1126.000000
3230.313126	1105.600000
3231.436965	1132.200000
3232.563598	1119.100000
3233.685634	1117.900000
3234.808986	1135.800000
3235.932176	1133.000000
3237.055203	1130.600000
3238.176592	1138.700000
3239.297818	1109.500000
3240.417407	1138.200000
3241.536834	1113.400000
3242.654623	1147.200000
3243.775204	1120.300000
3244.892672	1170.100000
3246.009979	1153.400000
3247.127126	1180.900000
3248.242637	1120.800000
3249.359462	1173.500000
3250.473178	1174.100000
3251.589683	1158.600000
3252.704554	1141.600000
3253.816316	1151.400000
3254.927918	1155.800000
3256.040836	1128.800000
3257.153594	1163.500000
3258.263246	1135.000000
3259.374213	1160.800000
3260.485021	1175.400000
3261.594197	1156.900000
3262.701743	1148.000000
3263.810602	1141.500000
3264.919304	1168.500000
3266.024903	1157.100000
3267.131816	1167.400000
3268.237100	1140.900000
3269.343698	1180.000000
3270.447196	1166.800000
3271.552009	1167.700000
3272.656664	1151.300000
3273.758220	1138.800000
3274.859620	1159.600000
3275.962334	1159.700000
3277.064892	1155.300000
3278.164353	1164.400000
3279.266598	1182.600000
3280.365747	1182.900000
3281.463272	1151.900000
3282.560641	1189.700000
3283.660792	1141.800000
3284.757851	1169.000000
3285.854754	1155.100000
3286.951502	1140.300000
3288.043692	1158.100000
3289.140130	1153.900000
3290.234946	1137.300000
3291.329608	1142.200000
3292.422648	1117.600000
3293.515533	1164.400000
3294.606799	1146.200000
3295.699376	1149.500000
3296.790334	1141.100000
3297.879672	1154.700000
3298.968857	1166.100000
3300.059355	1147.900000
3301.146768	1168.500000
3302.234028	1144.300000
3303.322601	1159.900000
3304.411022	1143.300000
3305.494895	1141.100000
3306.583010	1159.000000
3307.668043	1125.500000
3308.751461	1167.600000
3309.836191	1153.800000
3310.919305	1166.600000
3312.003732	1167.300000
3313.085080	1158.100000
3314.167740	1177.000000
3315.248786	1148.800000
3316.329681	1163.100000
3317.408962	1174.600000
3318.488093	1194.600000
3319.568536	1173.800000
3320.645904	1174.700000
3321.724584	1168.000000
3322.801652	1148.600000
3323.878571	1165.500000
3324.953878	1173.600000
3326.029036	1180.100000
3327.105505	1170.600000
3328.178904	1176.700000
3329.252154	1166.400000
3330.326714	1186.800000
3331.399666	1173.600000
3332.471009	1175.200000
3333.543663	1138.000000
3334.613251	1162.000000
3335.684149	1164.900000
3336.753440	1142.800000
3337.824042	1154.600000
3338.893037	1149.000000
3339.960426	1168.400000
3341.026210	1171.100000
3342.096220	1149.800000
3343.163167	1149.200000
3344.227052	1157.500000
3345.293705	1126.300000
3346.358753	1175.600000
3347.422198	1157.900000
3348.485497	1168.800000
3349.548649	1141.200000
3350.611655	1125.700000
3351.674515	1127.000000
3352.735773	1140.300000
3353.793974	1157.900000
3354.856395	1159.500000
3355.915761	1147.700000
3356.974981	1168.000000
3358.035511	1138.500000
3359.091531	1149.900000
3360.150315	1151.900000
3361.204592	1138.400000
3362.261633	1161.200000
3363.317075	1175.400000
3364.373827	1176.400000
3365.428980	1185.000000
3366.482536	1186.100000
3367.534496	1139.800000
3368.589217	1166.200000
3369.640889	1157.000000
3370.692418	1154.100000
3371.745255	1152.100000
3372.795045	1172.500000
3373.846144	1156.200000
3374.894197	1183.500000
3375.945009	1163.700000
3376.992777	1141.900000
3378.040402	1142.100000
3379.087884	1179.100000
3380.133774	1167.700000
3381.180972	1170.500000
3382.225128	1166.800000
3383.272042	1181.200000
3384.317364	1165.700000
3385.359645	1160.600000
3386.401786	1154.900000
3387.445234	1188.700000
3388.488541	1166.800000
3389.530259	1124.200000
3390.571835	1168.800000
3391.613270	1145.100000
3392.653117	1195.300000
3393.691375	1176.600000
3394.730941	1180.900000
3395.770367	1179.800000
3396.808205	1168.900000
3397.844456	1178.500000
3398.880568	1169.600000
3399.917987	1163.400000
3400.952373	1181.200000
3401.988066	1189.300000
3403.023620	1175.600000
3404.056143	1160.900000
3405.091419	1140.900000
3406.123664	1182.800000
3407.155771	1205.400000
3408.186294	1177.100000
3409.218124	1173.100000
3410.249816	1180.900000
3411.278480	1168.200000
3412.307007	1191.400000
3413.336840	1143.300000
3414.366536	1170.600000
3415.393206	1162.700000
3416.421183	1165.700000
3417.446135	1157.000000
3418.473837	1156.400000
3419.498516	1178.700000
3420.524501	1183.900000
3421.548906	1170.600000
3422.573175	1174.000000
3423.595865	1189.300000
3424.618419	1183.600000
3425.642279	1174.400000
3426.663119	1155.400000
3427.683823	1144.600000
3428.705834	1153.300000
3429.724826	1140.700000
3430.743682	1188.100000
3431.763845	1131.700000
3432.780991	1163.200000
