-117.018713	-17.350000
-114.349113	3.550000
-111.682448	-0.400000
-109.016535	5.150000
-106.353555	-0.850000
-103.689144	5.200000
-101.027664	8.250000
-98.364755	4.250000
-95.706952	-8.150000
-93.047720	-5.600000
-90.389236	-6.750000
-87.733677	-9.600000
-85.076688	-4.450000
-82.424798	-7.300000
-79.771478	1.700000
-77.121077	18.050000
-74.469248	3.300000
-71.822509	12.200000
-69.174340	1.800000
-66.526914	-15.000000
-63.882403	-7.750000
-61.236462	12.100000
-58.595603	-0.900000
-55.953315	18.850000
-53.313936	-14.250000
-50.673128	-1.450000
-48.033059	-10.600000
-45.398064	5.150000
-42.761639	-7.500000
-40.128117	13.150000
-37.493167	0.950000
-34.863283	1.500000
-32.229805	17.200000
-29.601390	0.700000
-26.973709	14.250000
-24.344599	2.500000
-21.720547	5.600000
-19.092904	22.450000
-16.470316	8.300000
-13.848458	37.150000
-11.227331	59.950000
-8.606935	149.950000
-5.989426	482.950000
-3.370489	1440.850000
-0.754438	4368.800000
1.860886	6461.450000
4.475481	3383.450000
7.087195	425.200000
9.700337	66.850000
12.308445	31.350000
14.920134	9.750000
17.526793	16.600000
20.134881	13.400000
22.742243	7.150000
25.344581	-2.250000
27.950498	5.400000
30.551392	-0.150000
33.153714	5.350000
35.751018	7.200000
38.351899	-1.850000
40.947764	3.300000
43.545057	-2.600000
46.141632	0.800000
48.733197	-5.800000
51.326190	3.600000
53.916322	-2.850000
56.507881	1.550000
59.096582	11.450000
61.686709	-8.500000
64.271837	4.250000
66.858393	2.200000
69.444235	-3.150000
72.027222	3.650000
74.611637	5.700000
77.188923	1.950000
79.769775	8.650000
82.347778	0.750000
84.925070	9.850000
87.503790	0.900000
90.077527	4.850000
92.652691	11.000000
95.225012	-1.350000
97.796626	2.550000
100.365399	7.650000
102.935599	-1.750000
105.502960	27.950000
108.071748	13.400000
110.637699	7.100000
113.200815	0.750000
115.767487	8.900000
118.324937	13.850000
120.888073	20.950000
123.446250	43.350000
126.007981	47.300000
128.564755	73.900000
131.122955	103.450000
133.676203	141.800000
136.228753	216.850000
138.784853	318.950000
141.336005	425.550000
143.886460	507.750000
146.436217	623.750000
148.983155	675.250000
151.529398	704.100000
154.077066	714.300000
156.624038	730.300000
159.166075	718.800000
161.707418	715.150000
164.248068	701.450000
166.790144	695.600000
169.329408	716.700000
171.865863	701.450000
174.401628	728.850000
176.938818	706.950000
179.475317	686.050000
182.009010	695.700000
184.539899	679.150000
187.070100	692.150000
189.601727	669.800000
192.130552	677.000000
194.656578	669.600000
197.181918	673.300000
199.708683	665.400000
202.232652	660.650000
204.755936	679.100000
207.278534	665.200000
209.798340	675.850000
212.317463	671.400000
214.835903	662.400000
217.355768	695.300000
219.868630	704.150000
222.385024	717.250000
224.900737	729.250000
227.411559	742.450000
229.923806	737.250000
232.433270	762.600000
234.942056	746.700000
237.450164	752.800000
239.959696	748.800000
242.464347	760.750000
244.968322	756.500000
247.473721	760.200000
249.974245	749.450000
252.478292	755.850000
254.975369	732.600000
257.475969	743.600000
259.973797	745.900000
262.470952	739.750000
264.967434	747.000000
267.459053	741.850000
269.954192	733.300000
272.446564	753.300000
274.938266	750.650000
277.427205	777.800000
279.917567	761.450000
282.405168	755.750000
284.890009	792.100000
287.378365	793.500000
289.859781	787.550000
292.344711	807.500000
294.824796	830.700000
297.308393	837.700000
299.787147	848.000000
302.267324	890.250000
304.744750	891.100000
307.221512	860.900000
309.697610	827.800000
312.170960	833.000000
314.643649	793.850000
317.115676	809.900000
319.587041	814.500000
322.055663	808.800000
324.523625	798.750000
326.993010	763.750000
329.457572	745.700000
331.925638	729.650000
334.388883	696.650000
336.851472	708.750000
339.313404	679.600000
341.774679	676.600000
344.233219	667.900000
346.693183	652.350000
349.150413	654.200000
351.606989	647.200000
354.062911	626.600000
356.516103	633.700000
358.970718	615.200000
361.420531	632.250000
363.873840	619.150000
366.322350	604.250000
368.770210	589.150000
371.219492	587.550000
373.663979	578.200000
376.109890	563.200000
378.555150	547.450000
380.997692	559.400000
383.439586	555.300000
385.880832	535.350000
388.319364	556.000000
390.759316	555.300000
393.196555	537.850000
395.631083	527.900000
398.069097	524.550000
400.502336	533.600000
402.936995	514.200000
405.366882	532.950000
407.800254	528.850000
410.228856	526.550000
412.656816	515.100000
415.086198	505.800000
417.510814	495.450000
419.936852	486.700000
422.362249	487.800000
424.787006	500.950000
427.207004	491.650000
429.628424	479.500000
432.047148	473.600000
434.467292	480.050000
436.884741	476.600000
439.303610	464.150000
441.719785	443.100000
444.131214	427.450000
446.546119	436.000000
448.958335	419.850000
451.369916	410.450000
453.780863	394.500000
456.189123	377.400000
458.596752	375.550000
461.003748	377.550000
463.410113	372.500000
465.813795	370.550000
468.216847	376.400000
470.619269	378.900000
473.021061	380.750000
475.420175	396.000000
477.820709	385.150000
480.220614	385.850000
482.615797	403.650000
485.014446	408.450000
487.408374	427.750000
489.801677	461.400000
492.194355	487.000000
494.586407	512.850000
496.979877	577.000000
499.368635	673.950000
501.754727	812.000000
504.142239	1036.800000
506.529128	1424.650000
508.913352	2035.850000
511.298996	2921.750000
513.681978	4100.950000
516.062299	5385.350000
518.444039	6279.700000
520.823120	6128.600000
523.203619	5427.900000
525.581462	4511.450000
527.956648	3729.900000
530.331218	3095.800000
532.707205	2644.600000
535.080540	2263.500000
537.455292	2043.400000
539.825358	1793.550000
542.194810	1615.750000
544.565679	1472.100000
546.931867	1361.200000
549.299474	1284.350000
551.664435	1203.350000
554.028784	1155.400000
556.392519	1097.700000
558.757672	1050.450000
561.118153	1012.150000
563.480052	1004.700000
565.839310	934.200000
568.195930	917.650000
570.555996	876.650000
572.909370	851.000000
575.266189	816.750000
577.620373	831.000000
579.973948	788.700000
582.326916	751.250000
584.677251	752.650000
587.029004	715.050000
589.374080	697.000000
591.724619	676.100000
594.068486	662.750000
596.417814	644.450000
598.762493	653.050000
601.104548	622.450000
603.448020	614.150000
605.788869	633.650000
608.129115	624.350000
610.466741	664.450000
612.807802	667.550000
615.144226	716.750000
617.482066	730.050000
619.817289	713.650000
622.149895	665.650000
624.483919	651.650000
626.815328	632.700000
629.146139	610.300000
631.476352	591.700000
633.805968	567.150000
636.130960	579.650000
638.461394	594.000000
640.787207	574.450000
643.110412	568.400000
645.435034	546.600000
647.757050	550.300000
650.078472	539.750000
652.397291	530.650000
654.717527	546.400000
657.037169	542.750000
659.354210	525.200000
661.670659	532.850000
663.984510	523.200000
666.299777	542.050000
668.612447	544.600000
670.926532	538.350000
673.236017	544.600000
675.546918	546.950000
677.855226	531.150000
680.162946	526.400000
682.472080	525.550000
684.776622	506.700000
687.080578	490.850000
689.383948	481.250000
691.688732	484.100000
693.988929	466.000000
696.290542	482.600000
698.591569	456.300000
700.888015	444.650000
703.185876	443.000000
705.483153	428.200000
707.779847	421.350000
710.071965	420.550000
712.367494	414.600000
714.658449	418.550000
716.950819	422.100000
719.240614	418.250000
721.529828	425.100000
723.818463	420.750000
726.104525	417.300000
728.392002	408.100000
730.676907	412.250000
732.961235	416.300000
735.242994	413.400000
737.526167	396.950000
739.808763	402.350000
742.086803	391.800000
744.366257	392.000000
746.645136	386.350000
748.923440	397.450000
751.197193	383.950000
753.472361	385.350000
755.746955	380.700000
758.018990	407.250000
760.292438	400.350000
762.563328	394.350000
764.831662	395.000000
767.101409	390.800000
769.368601	402.650000
771.635224	393.500000
773.901276	401.450000
776.164777	405.200000
778.429691	403.300000
780.694035	383.750000
782.953850	411.000000
785.215077	401.750000
787.475737	395.500000
789.733851	398.200000
791.989420	399.700000
794.248379	414.600000
796.500840	394.700000
798.758668	410.800000
801.011977	422.050000
803.262746	400.950000
805.514927	419.550000
807.764569	408.850000
810.015623	397.900000
812.262167	414.800000
814.510122	411.550000
816.755543	388.900000
819.002375	385.400000
821.248646	377.050000
823.490412	386.550000
825.735562	381.500000
827.974239	398.000000
830.216298	380.850000
832.453859	391.000000
834.692832	385.500000
836.929278	402.850000
839.167135	404.150000
841.402467	387.350000
843.635276	397.250000
845.869495	391.400000
848.101193	384.750000
850.332336	380.850000
852.562924	366.400000
854.792958	389.350000
857.022438	375.950000
859.247436	367.350000
861.475808	375.300000
863.699702	370.800000
865.925007	375.650000
868.145836	348.500000
870.370037	361.550000
872.589765	365.650000
874.810903	356.450000
877.031491	372.950000
879.249570	383.250000
881.469058	363.300000
883.684080	363.650000
885.898554	362.500000
888.112481	351.100000
890.325861	359.550000
892.538693	358.550000
894.750978	362.450000
896.960762	369.250000
899.170000	346.200000
901.378693	374.250000
903.584886	365.500000
905.792489	377.250000
907.997595	370.550000
910.202157	378.600000
912.404224	374.750000
914.607700	398.450000
916.808682	404.300000
919.009122	405.300000
921.210971	438.400000
923.406429	450.400000
925.605245	469.800000
927.799624	515.250000
929.997360	559.450000
932.190660	665.950000
934.385369	709.550000
936.577591	786.650000
938.769276	830.100000
940.960423	892.300000
943.149087	896.750000
945.337215	904.750000
947.522861	881.350000
949.711861	874.750000
951.896437	842.250000
954.080478	862.900000
956.267869	861.700000
958.446956	855.050000
960.629394	885.900000
962.811298	869.250000
964.990727	884.400000
967.167684	903.200000
969.346049	884.550000
971.525821	893.750000
973.699244	899.800000
975.876013	885.900000
978.048375	925.150000
980.222145	906.700000
982.391511	853.500000
984.564221	814.050000
986.734466	754.150000
988.904181	682.600000
991.073368	615.900000
993.238158	561.800000
995.406290	535.750000
997.570026	505.350000
999.735170	485.300000
1001.897854	462.900000
1004.060013	456.950000
1006.219715	436.050000
1008.378892	446.000000
1010.539476	424.600000
1012.697605	420.150000
1014.855211	403.550000
1017.012293	397.300000
1019.168851	374.700000
1021.321030	383.400000
1023.474616	367.100000
1025.627680	347.300000
1027.778295	349.650000
1029.930316	338.000000
1032.077965	336.750000
1034.228945	325.850000
1036.375554	332.150000
1038.521644	327.850000
1040.667216	318.600000
1042.814193	302.750000
1044.954881	317.700000
1047.098898	308.800000
1049.240476	306.100000
1051.381536	313.200000
1053.524002	315.000000
1055.660187	303.500000
1057.799699	307.700000
1059.934855	295.000000
1062.073336	307.800000
1064.207464	296.500000
1066.341078	313.100000
1068.476096	279.850000
1070.606766	301.850000
1072.738840	298.100000
1074.868485	291.900000
1076.997617	300.100000
1079.126239	296.900000
1081.254349	300.200000
1083.380033	292.000000
1085.505207	294.900000
1087.631785	300.200000
1089.754025	303.200000
1091.877670	295.000000
1093.996980	301.000000
1096.121519	287.200000
1098.239814	280.800000
1100.359512	299.150000
1102.476793	286.600000
1104.593566	279.550000
1106.709833	289.400000
1108.823685	286.350000
1110.938940	272.500000
1113.049873	287.750000
1115.164118	271.250000
1117.274042	290.700000
1119.385370	273.200000
1121.496193	267.600000
1123.602700	278.850000
1125.712516	269.750000
1127.818019	275.000000
1129.924924	268.350000
1132.025614	266.000000
1134.131516	259.550000
1136.233109	256.900000
1138.336105	258.950000
1140.438600	242.100000
1142.534888	257.650000
1144.636383	246.400000
1146.733576	239.900000
1148.830271	247.700000
1150.926467	248.900000
1153.022165	268.250000
1155.117366	258.300000
1157.210170	263.550000
1159.304376	255.300000
1161.392391	254.400000
1163.485604	263.750000
1165.572630	251.550000
1167.662954	259.300000
1169.748990	251.250000
1171.838324	252.200000
1173.921477	258.300000
1176.006033	271.650000
1178.091990	275.350000
1180.173665	252.300000
1182.256741	263.150000
1184.337432	256.800000
1186.417632	262.750000
1188.497340	259.300000
1190.576557	259.850000
1192.653391	244.850000
1194.727845	258.250000
1196.805591	258.750000
1198.879066	250.650000
1200.953943	262.250000
1203.024552	251.750000
1205.096562	255.200000
1207.166196	233.200000
1209.237231	236.350000
1211.307779	240.350000
1213.374065	241.750000
1215.441752	243.000000
1217.507066	236.500000
1219.573781	246.300000
1221.636241	236.950000
1223.701985	219.750000
1225.763475	249.250000
1227.826366	244.100000
1229.886888	254.600000
1231.946928	241.750000
1234.006484	259.900000
1236.063676	251.550000
1238.120385	266.150000
1240.174732	249.350000
1242.232360	265.750000
1244.287624	249.500000
1246.338649	254.150000
1248.391073	253.400000
1250.443017	261.500000
1252.492603	232.750000
1254.541710	247.550000
1256.590338	250.050000
1258.638488	251.100000
1260.686160	254.350000
1262.729601	269.800000
1264.776318	257.350000
1266.820681	266.600000
1268.864568	264.050000
1270.906103	261.200000
1272.945289	250.550000
1274.987748	261.500000
1277.025984	253.400000
1279.065619	257.450000
1281.104778	257.750000
1283.139720	262.050000
1285.176060	262.750000
1287.210056	266.750000
1289.245449	246.650000
1291.276629	253.150000
1293.309208	240.650000
1295.341315	244.850000
1297.371081	232.200000
1299.402244	236.800000
1301.429200	245.750000
1303.457555	231.500000
1305.481704	223.400000
1307.509119	230.500000
1309.532331	238.050000
1311.556941	233.600000
1313.579216	232.150000
1315.602889	246.100000
1317.624229	233.450000
1319.645102	233.700000
1321.665507	227.100000
1323.681719	233.050000
1325.699328	222.550000
1327.714609	223.200000
1329.733149	218.100000
1331.747499	219.850000
1333.759524	227.600000
1335.774807	245.050000
1337.785904	234.800000
1339.798397	240.250000
1341.806708	248.150000
1343.818275	235.100000
1345.823803	240.300000
1347.832586	241.750000
1349.837191	248.000000
1351.845050	258.700000
1353.852447	253.350000
1355.853813	242.850000
1357.856575	239.750000
1359.858878	246.000000
1361.860721	241.750000
1363.862104	248.800000
1365.861173	225.300000
1367.859785	235.550000
1369.857937	229.050000
1371.855632	242.650000
1373.849164	234.350000
1375.844091	223.250000
1377.838562	230.800000
1379.832576	230.500000
1381.824283	225.550000
1383.815534	225.000000
1385.804480	214.100000
1387.794821	236.350000
1389.784708	218.950000
1391.772290	223.750000
1393.759419	222.500000
1395.744246	228.450000
1397.730468	232.800000
1399.714389	221.500000
1401.697858	230.350000
1403.680875	234.700000
1405.661594	229.700000
1407.643707	231.500000
1409.623523	230.600000
1411.602889	235.250000
1413.578116	224.950000
1415.556581	243.500000
1417.532753	234.900000
1419.508475	234.850000
1421.483749	232.650000
1423.456731	228.400000
1425.429265	232.000000
1427.401351	222.850000
1429.372990	220.100000
1431.340500	226.050000
1433.313084	229.150000
1435.277862	221.400000
1437.247713	216.850000
1439.213439	231.550000
1441.180559	226.750000
1443.145395	219.950000
1445.106111	217.700000
1447.071895	220.550000
1449.031724	242.700000
1450.992947	240.100000
1452.955561	225.200000
1454.914061	240.100000
1456.872119	248.750000
1458.829735	235.350000
1460.786908	237.150000
1462.741806	232.650000
1464.698097	233.050000
1466.652113	222.850000
1468.605688	233.150000
1470.556991	221.350000
1472.509686	218.900000
1474.460110	212.800000
1476.410095	212.700000
1478.359641	224.750000
1480.306918	204.600000
1482.251927	208.850000
1484.198329	214.450000
1486.144293	204.950000
1488.089820	202.150000
1490.033081	210.050000
1491.975906	221.150000
1493.916468	193.650000
1495.858422	208.150000
1497.798113	204.250000
1499.737369	204.650000
1501.676191	210.900000
1503.612753	200.050000
1505.550706	201.750000
1507.486400	206.000000
1509.421661	215.950000
1511.354665	229.800000
1513.287237	208.650000
1515.219377	216.250000
1517.151085	221.100000
1519.080540	211.050000
1521.011385	226.100000
1522.941798	217.300000
1524.868139	223.300000
1526.795870	230.900000
1528.721352	213.500000
1530.646404	223.200000
1532.571027	225.850000
1534.495220	214.000000
1536.417167	234.550000
1538.340504	233.600000
1540.261594	232.250000
1542.180440	232.100000
1544.100676	227.800000
1546.018668	224.600000
1547.936234	237.250000
1549.851559	248.200000
1551.768273	250.350000
1553.680932	266.750000
1555.596794	267.600000
1557.510418	249.400000
1559.421803	257.950000
1561.334578	256.500000
1563.243303	268.300000
1565.153417	278.900000
1567.063108	309.600000
1568.972376	325.200000
1570.879409	339.950000
1572.784210	384.100000
1574.690400	414.500000
1576.594359	472.600000
1578.497896	514.500000
1580.401013	590.350000
1582.301900	669.100000
1584.204176	755.350000
1586.104223	794.750000
1588.005659	774.650000
1589.903061	727.200000
1591.800044	640.000000
1593.696609	528.600000
1595.594561	453.700000
1597.486679	396.950000
1599.381991	341.050000
1601.276885	323.950000
1603.169557	294.200000
1605.061812	304.850000
1606.951848	294.150000
1608.841468	275.550000
1610.730673	256.000000
1612.619462	256.700000
1614.506035	255.800000
1616.393995	249.150000
1618.277938	229.050000
1620.163268	235.550000
1622.048185	223.050000
1623.930888	237.350000
1625.814978	223.550000
1627.695056	232.450000
1629.576522	206.050000
1631.455776	199.100000
1633.336418	207.450000
1635.211255	207.300000
1637.091073	178.800000
1638.966887	191.300000
1640.842290	185.650000
1642.719079	191.800000
1644.590071	194.350000
1646.464246	185.350000
1648.334421	198.300000
1650.207777	176.800000
1652.078930	194.850000
1653.947881	192.200000
1655.818218	175.850000
1657.684562	189.100000
1659.552291	179.450000
1661.417821	183.300000
1663.284737	178.600000
1665.147663	168.850000
1667.011976	178.500000
1668.874092	175.850000
1670.735803	171.700000
1672.598899	165.300000
1674.459801	180.500000
1676.318510	179.100000
1678.176815	171.300000
1680.036504	171.700000
1681.890427	160.050000
1683.747523	170.950000
1685.604215	166.750000
1687.456932	154.950000
1689.312820	167.900000
1691.164734	163.500000
1693.016247	142.300000
1694.867359	155.250000
1696.718070	154.250000
1698.568381	150.800000
1700.416508	157.450000
1702.266019	150.200000
1704.109780	151.900000
1705.958492	153.950000
1707.801457	154.000000
1709.647588	160.100000
1711.489758	149.850000
1713.335093	151.350000
1715.174687	161.650000
1717.015665	162.450000
1718.858026	152.700000
1720.696430	160.650000
1722.536218	148.450000
1724.373831	158.800000
1726.211049	156.950000
1728.046093	157.150000
1729.882520	157.750000
1731.716774	146.300000
1733.550635	142.350000
1735.384101	165.800000
1737.213621	138.650000
1739.046301	146.950000
1740.875035	162.200000
1742.706928	154.500000
1744.534878	150.800000
1746.362436	153.850000
1748.189603	145.700000
1750.016378	156.350000
1751.842761	151.400000
1753.665208	157.500000
1755.490810	156.450000
1757.312477	150.350000
1759.135525	143.250000
1760.956413	155.950000
1762.776912	153.200000
1764.598791	153.650000
1766.414971	153.600000
1768.234303	149.550000
1770.049708	156.050000
1771.868264	152.000000
1773.682894	146.000000
1775.497137	166.300000
1777.310994	153.350000
1779.124464	136.650000
1780.935780	142.800000
1782.748478	145.900000
1784.560790	152.650000
1786.369183	156.800000
1788.178958	154.100000
1789.984818	152.900000
1791.793823	154.050000
1793.598915	151.350000
1795.405388	138.900000
1797.211476	163.500000
1799.013655	162.550000
1800.818978	154.050000
1802.620391	152.550000
1804.423186	145.050000
1806.222074	140.850000
1808.022343	140.300000
1809.822230	139.100000
1811.619975	166.950000
1813.417340	143.250000
1815.214324	155.800000
1817.010929	148.250000
1818.805393	159.100000
1820.601238	135.400000
1822.391427	151.800000
1824.186513	151.800000
1825.975946	157.950000
1827.768517	147.100000
1829.558952	148.900000
1831.347252	150.150000
1833.138688	148.600000
1834.924479	162.600000
1836.711649	150.400000
1838.496687	147.300000
1840.284858	158.000000
1842.069145	164.350000
1843.851301	155.050000
1845.634837	164.500000
1847.416244	155.700000
1849.199029	147.350000
1850.977935	159.950000
1852.758219	154.550000
1854.536378	162.750000
1856.315914	157.700000
1858.093326	172.200000
1859.868615	150.900000
1861.645281	154.800000
1863.419825	167.900000
1865.195746	151.800000
1866.966048	160.600000
1868.739477	152.450000
1870.510786	156.900000
1872.281724	150.350000
1874.054040	155.700000
1875.820742	171.600000
1877.590569	151.300000
1879.356533	160.550000
1881.125621	150.350000
1882.890847	167.900000
1884.655705	147.800000
1886.421939	165.700000
1888.184316	159.400000
1889.946324	140.400000
1891.707966	155.750000
1893.469240	144.350000
1895.230148	143.550000
1896.990688	152.300000
1898.749120	136.750000
1900.507185	136.050000
1902.263143	133.200000
1904.020477	147.550000
1905.777446	128.300000
1907.532308	137.200000
1909.285066	141.100000
1911.037459	152.100000
1912.791229	135.850000
1914.542895	141.750000
1916.292458	135.050000
1918.043398	137.000000
1919.793974	134.750000
1921.540712	150.750000
1923.288825	134.050000
1925.034840	148.100000
1926.782229	140.000000
1928.527520	140.250000
1930.270715	150.550000
1932.015284	146.300000
1933.757757	146.950000
1935.499871	142.600000
1937.241624	141.700000
1938.983017	128.550000
1940.722317	135.700000
1942.461258	148.850000
1944.199840	137.550000
1945.936331	142.450000
1947.672463	144.950000
1949.409971	147.450000
1951.143656	136.950000
1952.878716	127.300000
1954.611687	134.950000
1956.344302	146.200000
1958.076560	130.500000
1959.808462	143.450000
1961.538279	141.050000
1963.266010	142.200000
1964.995116	138.650000
1966.723866	128.950000
1968.450533	138.250000
1970.176846	128.850000
1971.904533	133.800000
1973.626683	129.300000
1975.351934	120.900000
1977.073378	137.150000
1978.797922	138.600000
1980.520387	147.900000
1982.239048	140.200000
1983.960809	132.800000
1985.678767	134.900000
1987.398098	135.450000
1989.113630	131.800000
1990.833982	132.000000
1992.550536	130.900000
1994.263293	133.300000
1995.979146	132.200000
1997.692927	137.850000
1999.406358	138.450000
2001.117718	144.050000
2002.830450	129.500000
2004.539392	139.250000
2006.251426	127.450000
2007.957951	140.250000
2009.667569	125.550000
2011.375119	128.900000
2013.082322	139.450000
2014.787459	125.900000
2016.492250	122.700000
2018.198412	130.150000
2019.900791	129.250000
2021.604543	121.950000
2023.306232	127.000000
2025.007575	139.000000
2026.708574	132.300000
2028.407511	125.250000
2030.107820	123.150000
2031.804353	135.350000
2033.502258	124.700000
2035.198105	113.700000
2036.897037	127.150000
2038.590483	126.100000
2040.285300	120.150000
2041.979774	132.150000
2043.670481	120.000000
2045.364270	122.700000
2047.054294	119.700000
2048.745688	126.800000
2050.435028	122.900000
2052.125740	119.100000
2053.812688	125.900000
2055.499296	129.250000
2057.187275	116.550000
2058.871494	136.300000
2060.557083	129.950000
2062.242333	132.100000
2063.925535	129.450000
2065.610107	130.500000
2067.289215	116.550000
2068.973110	136.100000
2070.651543	123.650000
2072.333054	126.000000
2074.010813	128.400000
2075.688236	141.150000
2077.367028	115.350000
2079.043777	113.250000
2080.718485	136.300000
2082.394563	142.900000
2084.068599	128.650000
2085.742301	143.750000
2087.415667	136.000000
2089.086994	130.150000
2090.757987	121.300000
2092.428646	126.400000
2094.098971	129.050000
2095.768962	139.550000
2097.436917	122.400000
2099.104538	127.700000
2100.770126	125.350000
2102.437082	124.600000
2104.102005	135.050000
2105.766596	135.700000
2107.429155	135.150000
2109.093082	127.700000
2110.754978	116.000000
2112.416544	128.950000
2114.077778	113.950000
2115.736983	133.200000
2117.395859	116.050000
2119.054405	127.100000
2120.712620	103.500000
2122.367113	120.000000
2124.024670	120.000000
2125.681897	117.850000
2127.335404	123.850000
2128.990278	111.050000
2130.641433	112.500000
2132.295651	113.000000
2133.946151	104.900000
2135.598019	112.600000
2137.244478	119.000000
2138.895691	116.550000
2140.543192	99.350000
2142.192059	109.000000
2143.838907	110.550000
2145.485430	117.500000
2147.131627	108.800000
2148.774116	116.150000
2150.419662	97.350000
2152.061502	113.050000
2153.706399	113.500000
2155.347591	114.000000
2156.988459	108.300000
2158.629004	122.100000
2160.267536	115.400000
2161.907434	123.200000
2163.543632	129.650000
2165.181196	130.000000
2166.818438	114.750000
2168.453670	117.900000
2170.088580	126.150000
2171.723169	127.350000
2173.357437	125.700000
2174.988011	123.000000
2176.621637	112.650000
2178.251571	119.650000
2179.882870	114.300000
2181.512164	122.400000
2183.141139	118.500000
2184.769794	122.250000
2186.398130	115.650000
2188.024463	111.100000
2189.650478	123.750000
2191.274492	121.100000
2192.899871	110.750000
2194.523249	108.350000
2196.147992	115.500000
2197.769054	121.450000
2199.389799	123.650000
2201.011908	118.750000
2202.632020	116.250000
2204.250136	123.000000
2205.867936	114.250000
2207.485420	115.150000
2209.102590	123.800000
2210.719443	133.500000
2212.335982	134.300000
2213.950528	137.800000
2215.563081	121.000000
2217.176998	128.600000
2218.788924	117.150000
2220.402213	124.800000
2222.013512	117.150000
2223.622821	125.850000
2225.233493	119.300000
2226.842177	123.400000
2228.450549	107.350000
2230.056934	111.150000
2231.664681	119.300000
2233.270443	107.850000
2234.875893	114.600000
2236.479358	115.600000
2238.084186	116.800000
2239.687030	112.600000
2241.287891	109.300000
2242.890115	118.350000
2244.490357	95.300000
2246.091961	118.500000
2247.689912	112.350000
2249.289226	119.650000
2250.886560	107.000000
2252.483586	110.250000
2254.081973	110.750000
2255.676713	124.850000
2257.269475	127.250000
2258.863600	116.650000
2260.459086	112.600000
2262.050927	125.500000
2263.642462	111.900000
2265.235359	114.800000
2266.822946	115.900000
2268.415229	109.050000
2270.002205	113.650000
2271.592210	111.950000
2273.176910	119.750000
2274.766304	111.650000
2276.350395	106.100000
2277.935848	117.600000
2279.519332	106.400000
2281.105841	122.150000
2282.688717	109.500000
2284.271290	119.400000
2285.853559	102.100000
2287.432198	116.550000
2289.013862	100.900000
2290.591897	119.400000
2292.172955	116.900000
2293.750386	117.425000
2295.325854	117.950000
2296.904344	101.600000
2298.479210	105.450000
2300.053775	110.250000
2301.628039	109.100000
2303.202003	105.900000
2304.775667	93.850000
2306.349031	115.500000
2307.918776	110.200000
2309.488222	111.550000
2311.060686	111.550000
2312.627876	114.300000
2314.198083	105.550000
2315.764677	109.900000
2317.332629	104.900000
2318.898627	101.350000
2320.464327	113.850000
2322.029729	102.200000
2323.593178	106.800000
2325.157986	111.750000
2326.719186	111.350000
2328.283399	127.900000
2329.842352	137.050000
2331.404318	116.750000
2332.964334	122.000000
2334.524054	98.750000
2336.081826	110.500000
2337.639302	111.300000
2339.196484	91.800000
2340.751718	110.350000
2342.306659	117.300000
2343.861305	99.950000
2345.415658	114.650000
2346.969717	113.250000
2348.523483	108.100000
2350.075304	125.900000
2351.625182	118.500000
2353.178069	122.150000
2354.725712	94.250000
2356.276364	127.750000
2357.823424	112.250000
2359.371842	122.350000
2360.919969	116.150000
2362.464507	107.050000
2364.010403	106.900000
2365.554361	113.050000
2367.099675	104.400000
2368.641405	98.150000
2370.184493	111.950000
2371.725644	111.250000
2373.266506	111.850000
2374.807079	106.500000
2376.347363	97.200000
2377.887358	107.600000
2379.423774	97.600000
2380.963192	124.500000
2382.499033	108.450000
2384.036231	102.800000
2385.569853	115.950000
2387.106475	100.100000
2388.641167	108.850000
2390.173929	99.900000
2391.706404	94.700000
2393.236951	113.450000
2394.770496	99.900000
2396.298830	110.550000
2397.828520	104.050000
2399.357925	119.350000
2400.887045	103.250000
2402.415879	107.900000
2403.939509	116.100000
2405.467774	97.400000
2406.990837	125.300000
2408.518533	109.100000
2410.039390	101.550000
2411.564879	108.900000
2413.086809	114.400000
2414.610093	112.850000
2416.131457	110.750000
2417.650901	118.850000
2419.171700	104.950000
2420.690580	123.100000
2422.209179	114.150000
2423.725859	120.300000
2425.243895	107.700000
2426.761649	126.650000
2428.275851	109.600000
2429.789774	109.100000
2431.303416	112.500000
2432.818412	124.300000
2434.329861	108.000000
2435.842663	140.300000
2437.353553	126.750000
2438.864164	121.100000
2440.372863	122.300000
2441.884548	118.350000
2443.392690	125.950000
2444.900554	140.150000
2446.408139	130.300000
2447.912185	130.450000
2449.419215	141.150000
2450.924337	146.500000
2452.429182	145.000000
2453.932120	144.300000
2455.434782	133.700000
2456.937167	139.700000
2458.437647	146.000000
2459.939480	144.250000
2461.439408	139.100000
2462.939061	143.750000
2464.438439	125.750000
2465.935914	119.350000
2467.431487	134.400000
2468.930040	127.450000
2470.425065	121.650000
2471.921442	125.650000
2473.414293	114.900000
2474.908497	121.150000
2476.402427	121.650000
2477.892833	122.700000
2479.386217	125.850000
2480.877703	123.750000
2482.367292	110.900000
2483.856609	133.950000
2485.344030	127.150000
2486.834427	102.700000
2488.321306	129.100000
2489.809536	110.850000
2491.294249	120.700000
2492.778692	113.400000
2494.264487	109.100000
2495.748390	103.800000
2497.233643	107.900000
2498.713763	108.900000
2500.196856	111.150000
2501.678058	95.150000
2503.158991	107.600000
2504.638035	97.300000
2506.116810	96.750000
2507.595317	103.850000
2509.073555	88.800000
2510.551526	107.050000
2512.025991	108.400000
2513.503426	104.550000
2514.977356	105.700000
2516.452638	111.250000
2517.927652	111.700000
2519.399165	107.450000
2520.872029	84.250000
2522.343010	97.050000
2523.815341	91.800000
2525.282558	95.450000
2526.752742	101.150000
2528.221045	97.250000
2529.689083	100.000000
2531.156855	103.650000
2532.624363	103.050000
2534.091607	104.200000
2535.555358	88.800000
2537.020459	102.300000
2538.483683	113.000000
2539.948256	106.600000
2541.409341	97.900000
2542.871775	100.350000
2544.333946	99.150000
2545.792630	101.200000
2547.255887	108.050000
2548.714047	100.000000
2550.173557	98.350000
2551.627972	93.000000
2553.086958	112.400000
2554.544072	109.300000
2555.999314	116.150000
2557.454296	117.350000
2558.907408	103.700000
2560.361869	114.500000
2561.814461	97.850000
2563.266793	99.050000
2564.717257	111.400000
2566.170678	110.950000
2567.619016	102.750000
2569.070309	102.400000
2570.519737	101.000000
2571.965692	128.750000
2573.414602	102.400000
2574.860042	90.800000
2576.306829	117.150000
2577.751753	112.050000
2579.196420	105.000000
2580.642434	104.400000
2582.084982	118.950000
2583.528876	115.900000
2584.969306	120.000000
2586.411084	117.600000
2587.851002	111.650000
2589.292267	122.800000
2590.730070	106.700000
2592.170823	99.100000
2593.606514	103.900000
2595.045153	114.600000
2596.481936	117.100000
2597.916863	101.650000
2599.354737	115.100000
2600.787554	118.150000
2602.221718	99.550000
2603.654028	110.150000
2605.087684	108.500000
2606.519487	114.050000
2607.951036	114.700000
2609.382332	121.400000
2610.811777	121.800000
2612.240969	106.900000
2613.668310	117.100000
2615.096998	117.950000
2616.525433	111.300000
2617.950422	129.200000
2619.376756	107.250000
2620.801243	132.850000
2622.227075	117.500000
2623.649463	131.600000
2625.073196	137.200000
2626.495084	146.050000
2627.916721	131.700000
2629.336514	141.900000
2630.757652	137.600000
2632.178540	141.300000
2633.595989	140.200000
2635.016378	156.000000
2636.433330	149.350000
2637.850034	151.250000
2639.266489	160.150000
2640.682696	176.550000
2642.098655	177.850000
2643.512773	193.650000
2644.926643	193.400000
2646.338674	201.000000
2647.752050	214.800000
2649.161996	224.450000
2650.574878	231.000000
2651.984331	253.400000
2653.393538	264.100000
2654.800909	287.800000
2656.211214	298.750000
2657.619683	337.700000
2659.026318	351.300000
2660.432707	362.050000
2661.837262	402.550000
2663.243161	435.850000
2664.647227	469.300000
2666.051048	498.750000
2667.454625	519.650000
2668.856371	576.000000
2670.259460	603.350000
2671.659131	636.350000
2673.060146	673.000000
2674.457745	698.850000
2675.858273	727.150000
2677.255387	738.900000
2678.653844	740.250000
2680.050474	748.700000
2681.446861	743.900000
2682.843006	729.550000
2684.237325	706.450000
2685.632987	689.850000
2687.025240	651.350000
2688.418835	627.150000
2689.810606	591.300000
2691.203720	548.950000
2692.595010	508.750000
2693.984477	470.400000
2695.373704	450.050000
2696.762692	419.150000
2698.153021	392.500000
2699.538367	359.450000
2700.926636	330.600000
2702.313085	307.350000
2703.699295	279.900000
2705.085266	260.350000
2706.467839	249.600000
2707.851754	241.350000
2709.235430	222.900000
2710.618869	226.100000
2711.998912	203.000000
2713.380297	191.050000
2714.759867	187.450000
2716.140777	171.400000
2717.519873	175.100000
2718.897155	161.550000
2720.275778	158.750000
2721.652587	160.450000
2723.029161	132.100000
2724.405499	142.350000
2725.780025	144.200000
2727.155892	143.650000
2728.528373	135.800000
2729.903769	138.450000
2731.274205	126.350000
2732.645981	132.800000
2734.017524	115.350000
2735.387258	125.400000
2736.758332	106.750000
2738.127599	119.700000
2739.496632	107.650000
2740.863859	108.350000
2742.230852	115.750000
2743.597613	118.800000
2744.964141	106.450000
2746.328865	105.850000
2747.693356	101.950000
2749.057616	102.450000
2750.421643	105.550000
2751.785438	112.100000
2753.145861	101.950000
2754.509193	109.450000
2755.867583	95.750000
2757.228883	91.300000
2758.586813	92.350000
2759.947651	90.600000
2761.306689	89.100000
2762.662360	100.150000
2764.020938	100.400000
2765.376149	94.200000
2766.731131	96.050000
2768.084316	101.100000
2769.440408	91.550000
2770.793136	100.350000
2772.145636	94.550000
2773.497907	83.300000
2774.851516	92.600000
2776.201765	81.550000
2777.550219	82.250000
2778.901578	101.450000
2780.249579	86.900000
2781.598917	102.700000
2782.946463	83.600000
2784.293783	94.950000
2785.640875	97.550000
2786.986177	94.500000
2788.331253	91.500000
2789.676103	93.800000
2791.020727	88.600000
2792.361999	99.350000
2793.704608	80.200000
2795.046993	99.150000
2796.389152	95.100000
2797.727962	93.650000
2799.069672	92.650000
2800.408033	98.450000
2801.747732	78.850000
2803.085646	90.700000
2804.421774	102.750000
2805.757680	94.950000
2807.094923	85.550000
2808.430382	98.400000
2809.765617	73.650000
2811.099071	94.900000
2812.433861	94.850000
2813.765311	98.800000
2815.099656	82.250000
2816.429102	89.650000
2817.759886	92.850000
2819.090449	83.500000
2820.419232	83.400000
2821.749351	86.600000
2823.077692	87.100000
2824.405812	83.200000
2825.732154	70.950000
2827.059832	80.200000
2828.384178	83.900000
2829.709860	98.400000
2831.033766	90.400000
2832.357452	86.100000
2833.682474	89.100000
2835.004167	73.850000
2836.325641	82.350000
2837.646895	82.700000
2838.967932	76.800000
2840.287195	84.000000
2841.607794	68.050000
2842.926621	81.200000
2844.245231	80.550000
2845.562069	79.350000
2846.878690	84.250000
2848.195094	75.200000
2849.509728	69.750000
2850.825697	69.300000
2852.138347	86.100000
2853.452331	88.950000
2854.766099	82.950000
2856.079650	84.950000
2857.391435	69.000000
2858.701453	80.700000
2860.012806	88.200000
2861.320844	70.950000
2862.630216	86.500000
2863.939373	79.200000
2865.248316	79.750000
2866.555494	81.350000
2867.860910	73.550000
2869.167659	77.300000
2870.472647	63.950000
2871.777420	86.350000
2873.080433	79.450000
2874.386326	75.250000
2875.687365	87.850000
2876.989737	75.300000
2878.290351	76.500000
2879.592297	79.900000
2880.894031	70.400000
2882.192461	68.450000
2883.492224	72.250000
2884.790230	85.600000
2886.088024	75.050000
2887.384062	69.100000
2888.681432	81.750000
2889.977048	85.100000
2891.272452	63.500000
2892.567645	73.350000
2893.859541	70.900000
2895.154312	93.100000
2896.445788	75.250000
2897.738596	91.100000
2899.031194	76.100000
2900.320497	76.350000
2901.611134	74.350000
2902.900019	67.050000
2904.190236	68.700000
2905.477162	82.500000
2906.765420	69.050000
2908.051929	76.200000
2909.338229	64.400000
2910.624321	78.600000
2911.908665	70.750000
2913.195881	86.950000
2914.478270	64.500000
2915.761991	73.800000
2917.043965	69.550000
2918.325733	69.400000
2919.605755	87.000000
2920.888648	72.250000
2922.169794	70.900000
2923.447659	69.750000
2924.728393	70.100000
2926.005847	74.750000
2927.283094	68.500000
2928.558599	71.650000
2929.836972	74.250000
2931.110531	70.600000
2932.386957	64.350000
2933.661642	67.900000
2934.934586	68.100000
2936.208862	61.350000
2937.481398	72.600000
2938.753729	77.300000
2940.022788	78.250000
2941.294712	79.200000
2942.564898	63.000000
2943.834880	74.800000
2945.104659	67.100000
2946.372702	72.150000
2947.639008	68.900000
2948.905112	74.350000
2950.172547	58.600000
2951.438246	79.100000
2952.703744	76.250000
2953.969039	67.700000
2955.231069	67.050000
2956.494429	70.800000
2957.757588	74.000000
2959.019015	64.650000
2960.281771	59.000000
2961.542795	68.700000
2962.802089	60.900000
2964.061182	60.650000
2965.320076	61.200000
2966.578769	69.050000
2967.837261	57.300000
2969.094025	75.350000
2970.350590	68.900000
2971.605426	60.300000
2972.861592	75.200000
2974.114503	72.200000
2975.368742	59.400000
2976.622783	75.700000
2977.875098	73.750000
2979.127215	80.950000
2980.377607	69.700000
2981.630854	84.950000
2982.879324	62.450000
2984.130649	69.100000
2985.378724	68.300000
2986.626602	76.950000
2987.874284	48.600000
2989.121768	67.750000
2990.367531	54.050000
2991.613098	67.300000
2992.859992	56.700000
2994.103642	68.300000
2995.348619	74.750000
2996.590354	71.200000
2997.834940	61.950000
2999.077807	58.550000
3000.317433	56.050000
3001.559909	58.150000
3002.799145	67.700000
3004.039709	59.650000
3005.278556	68.550000
3006.517209	64.900000
3007.754146	61.600000
3008.992411	82.350000
3010.228960	65.100000
3011.465316	56.250000
3012.701478	57.050000
3013.935926	69.650000
3015.170181	67.900000
3016.404244	72.400000
3017.636593	61.300000
3018.867231	52.950000
3020.100715	56.750000
3021.332488	65.500000
3022.562549	54.350000
3023.792419	76.450000
3025.020579	66.350000
3026.250066	65.250000
3027.477843	62.850000
3028.705429	59.350000
3029.934341	73.850000
3031.158511	58.150000
3032.385524	51.200000
3033.609314	59.050000
3034.834429	49.750000
3036.057839	66.250000
3037.281058	68.800000
3038.502572	54.900000
3039.726927	59.700000
3040.946547	61.900000
3042.167493	71.850000
3043.388249	58.700000
3044.607303	57.850000
3045.827681	61.300000
3047.044843	60.150000
3048.263330	61.050000
3049.480116	66.200000
3050.696713	65.350000
3051.913123	50.650000
3053.126319	72.150000
3054.342353	68.300000
3055.555175	66.050000
3056.770834	56.800000
3057.981771	73.350000
3059.194032	56.250000
3060.406106	60.350000
3061.617994	60.700000
3062.828185	56.200000
3064.038189	65.950000
3065.248007	65.100000
3066.456129	64.150000
3067.664066	42.250000
3068.870307	59.850000
3070.077873	52.350000
3071.283744	55.025000
3072.489430	57.700000
3073.694932	47.550000
3074.898740	59.150000
3076.103872	46.500000
3077.307311	55.650000
3078.509059	54.900000
3079.710622	65.900000
3080.912002	56.450000
3082.113198	42.750000
3083.312704	51.450000
3084.512027	58.400000
3085.712673	61.200000
3086.911629	59.100000
3088.107391	42.850000
3089.305981	53.500000
3090.501378	45.400000
3091.698099	56.850000
3092.891627	57.050000
3094.087983	57.150000
3095.282652	65.750000
3096.474131	56.550000
3097.669942	41.900000
3098.861058	45.100000
3100.053498	48.000000
3101.242749	63.950000
3102.434827	50.700000
3103.625221	43.350000
3104.812429	57.150000
3106.000959	53.850000
3107.190812	47.500000
3108.377480	55.700000
3109.563969	58.050000
3110.750279	50.200000
3111.937910	63.450000
3113.122359	54.400000
3114.305129	51.750000
3115.490721	56.350000
3116.674634	44.500000
3117.856867	46.250000
3119.038923	57.450000
3120.220800	63.100000
3121.402499	48.000000
3122.582521	53.550000
3123.760866	44.250000
3124.942031	56.900000
3126.120021	47.250000
3127.297834	50.700000
3128.475470	52.200000
3129.651431	50.300000
3130.827216	55.500000
3132.004321	37.100000
3133.179753	42.850000
3134.353511	44.600000
3135.525596	40.800000
3136.699003	46.150000
3137.872233	40.250000
3139.043792	57.100000
3140.216671	52.550000
3141.386383	51.250000
3142.557416	52.000000
3143.726778	53.250000
3144.894471	42.600000
3146.064979	55.450000
3147.230829	46.850000
3148.400987	50.250000
3149.566488	47.750000
3150.731816	55.550000
3151.896970	42.800000
3153.061951	59.300000
3154.228251	52.800000
3155.389898	47.600000
3156.552866	59.000000
3157.715661	50.450000
3158.878283	44.250000
3160.039239	51.750000
3161.200024	58.800000
3162.360636	53.750000
3163.519584	37.050000
3164.678361	57.250000
3165.836965	53.000000
3166.995398	52.950000
3168.153660	49.200000
3169.310259	57.350000
3170.465197	29.650000
3171.621454	50.200000
3172.776050	40.000000
3173.930476	58.300000
3175.083242	58.200000
3176.235837	53.950000
3177.388263	53.050000
3178.540518	51.000000
3179.692604	56.450000
3180.841543	53.450000
3181.993289	49.300000
3183.143378	59.600000
3184.291810	40.050000
3185.440072	51.200000
3186.588166	52.050000
3187.736091	56.850000
3188.882360	50.700000
3190.028461	56.300000
3191.172908	47.950000
3192.317187	54.250000
3193.461297	42.850000
3194.606726	42.400000
3195.749016	50.900000
3196.891139	49.850000
3198.033094	55.850000
3199.174882	36.600000
3200.316503	51.900000
3201.454989	62.900000
3202.594792	41.250000
3203.735912	49.450000
3204.873899	38.800000
3206.010235	50.750000
3207.146407	45.500000
3208.283895	50.100000
3209.419735	55.200000
3210.556892	36.050000
3211.689436	40.450000
3212.826261	36.450000
3213.958476	39.500000
3215.092007	47.900000
3216.225373	50.000000
3217.355613	49.500000
3218.488650	48.850000
3219.618561	42.600000
3220.749788	53.750000
3221.877891	56.250000
3223.008790	55.650000
3224.138045	58.950000
3225.265657	37.550000
3226.390146	47.800000
3227.518911	34.550000
3228.644554	53.300000
3229.770034	42.200000
3230.893873	58.850000
3232.020507	66.950000
3233.142543	52.750000
3234.265895	57.350000
3235.389085	65.900000
3236.512112	54.350000
3237.633501	60.600000
3238.754727	59.550000
3239.874315	69.300000
3240.993742	53.650000
3242.111532	68.250000
3243.232113	63.250000
3244.349581	65.950000
3245.466888	64.150000
3246.584035	73.350000
3247.699545	65.650000
3248.816371	59.850000
3249.930087	69.600000
3251.046592	70.600000
3252.161462	53.900000
3253.273224	61.400000
3254.384827	55.100000
3255.497745	58.450000
3256.610503	57.750000
3257.720155	65.000000
3258.831122	57.000000
3259.941930	50.100000
3261.051106	40.600000
3262.158651	54.500000
3263.267511	54.450000
3264.376212	41.200000
3265.481811	52.450000
3266.588725	65.250000
3267.694009	23.450000
3268.800607	42.150000
3269.904105	47.100000
3271.008917	52.150000
3272.113572	59.400000
3273.215129	59.750000
3274.316529	52.150000
3275.419243	53.300000
3276.521801	42.350000
3277.621262	41.750000
3278.723507	44.100000
3279.822656	36.600000
3280.920180	34.050000
3282.017550	49.650000
3283.117701	41.250000
3284.214760	32.300000
3285.311663	28.400000
3286.408411	38.850000
3287.500600	40.750000
3288.597039	34.650000
3289.691855	41.150000
3290.786517	36.650000
3291.879556	38.050000
3292.972442	34.150000
3294.063707	41.950000
3295.156285	32.950000
3296.247243	38.450000
3297.336581	30.000000
3298.425766	47.500000
3299.516263	47.750000
3300.603677	38.200000
3301.690937	45.150000
3302.779510	35.900000
3303.867930	33.200000
3304.951804	34.800000
3306.039919	37.500000
3307.124952	36.850000
3308.208370	43.200000
3309.293100	45.350000
3310.376214	38.050000
3311.460641	35.150000
3312.541989	52.800000
3313.624649	40.700000
3314.705694	33.750000
3315.786589	41.700000
3316.865871	47.450000
3317.945002	46.300000
3319.025445	44.550000
3320.102813	38.400000
3321.181493	37.300000
3322.258561	47.550000
3323.335479	30.550000
3324.410787	29.000000
3325.485945	43.400000
3326.562414	44.650000
3327.635813	44.150000
3328.709062	42.050000
3329.783623	41.250000
3330.856575	32.150000
3331.927918	33.450000
3333.000572	34.250000
3334.070159	49.550000
3335.141058	37.750000
3336.210349	47.900000
3337.280950	35.350000
3338.349946	44.950000
3339.417335	37.600000
3340.483119	33.600000
3341.553129	37.550000
3342.620076	34.200000
3343.683961	31.450000
3344.750613	47.450000
3345.815662	26.700000
3346.879107	35.000000
3347.942406	46.800000
3349.005558	47.700000
3350.068564	37.200000
3351.131424	47.100000
3352.192681	48.850000
3353.250882	49.050000
3354.313304	25.900000
3355.372670	50.950000
3356.431890	37.800000
3357.492419	42.350000
3358.548440	54.300000
3359.607224	48.500000
3360.661501	37.700000
3361.718542	39.350000
3362.773984	38.400000
3363.830736	45.100000
3364.885889	54.100000
3365.939445	52.550000
3366.991404	41.850000
3368.046126	49.150000
3369.097798	52.300000
3370.149327	51.700000
3371.202164	41.850000
3372.251954	39.850000
3373.303053	29.500000
3374.351105	44.750000
3375.401918	37.850000
3376.449685	55.700000
3377.497310	36.200000
3378.544793	39.750000
3379.590683	47.850000
3380.637881	43.900000
3381.682037	43.650000
3382.728951	33.650000
3383.774273	36.350000
3384.816554	29.900000
3385.858694	47.200000
3386.902143	55.050000
3387.945450	38.550000
3388.987167	34.800000
3390.028744	51.850000
3391.070179	41.500000
3392.110026	38.250000
3393.148284	34.200000
3394.187850	37.800000
3395.227276	44.300000
3396.265114	39.000000
3397.301365	47.050000
3398.337477	37.500000
3399.374895	43.250000
3400.409281	31.550000
3401.444975	31.450000
3402.480529	30.150000
3403.513052	35.450000
3404.548327	42.400000
3405.580573	44.950000
3406.612680	45.050000
3407.643203	41.300000
3408.675033	25.050000
3409.706725	34.650000
3410.735389	45.750000
3411.763916	44.750000
3412.793749	29.400000
3413.823445	36.600000
3414.850115	33.950000
3415.878091	37.100000
3416.903044	37.000000
3417.930746	33.200000
3418.955424	49.800000
3419.981409	37.400000
3421.005815	37.600000
3422.030084	38.600000
3423.052774	27.200000
3424.075328	41.200000
3425.099188	39.500000
3426.120028	34.650000
3427.140732	26.550000
3428.162742	45.650000
3429.181734	41.700000
3430.200591	41.250000
3431.220754	36.400000
3432.237900	35.850000
