-117.018713	20.300000
-114.349113	-13.200000
-111.682448	13.500000
-109.016535	-2.300000
-106.353555	-2.200000
-103.689144	15.100000
-101.027664	15.500000
-98.364755	4.200000
-95.706952	30.400000
-93.047720	-0.600000
-90.389236	-4.100000
-87.733677	13.600000
-85.076688	15.000000
-82.424798	-13.500000
-79.771478	25.500000
-77.121077	21.300000
-74.469248	16.200000
-71.822509	19.000000
-69.174340	18.800000
-66.526914	6.900000
-63.882403	8.300000
-61.236462	4.000000
-58.595603	3.600000
-55.953315	6.300000
-53.313936	27.700000
-50.673128	-1.200000
-48.033059	19.100000
-45.398064	6.600000
-42.761639	30.300000
-40.128117	21.400000
-37.493167	12.200000
-34.863283	30.900000
-32.229805	25.800000
-29.601390	21.600000
-26.973709	38.900000
-24.344599	46.400000
-21.720547	19.200000
-19.092904	43.500000
-16.470316	68.800000
-13.848458	91.300000
-11.227331	164.400000
-8.606935	353.700000
-5.989426	1378.400000
-3.370489	4126.200000
-0.754438	11308.400000
1.860886	18119.000000
4.475481	9436.000000
7.087195	1042.200000
9.700337	145.700000
12.308445	103.700000
14.920134	48.600000
17.526793	53.300000
20.134881	23.100000
22.742243	45.000000
25.344581	41.100000
27.950498	29.000000
30.551392	14.300000
33.153714	-11.400000
35.751018	18.700000
38.351899	20.000000
40.947764	13.700000
43.545057	9.100000
46.141632	3.400000
48.733197	0.500000
51.326190	17.200000
53.916322	-10.200000
56.507881	8.000000
59.096582	10.800000
61.686709	13.300000
64.271837	15.000000
66.858393	11.000000
69.444235	12.900000
72.027222	13.900000
74.611637	17.600000
77.188923	14.900000
79.769775	3.200000
82.347778	7.500000
84.925070	-2.300000
87.503790	1.200000
90.077527	11.900000
92.652691	13.000000
95.225012	18.500000
97.796626	22.800000
100.365399	2.400000
102.935599	25.300000
105.502960	15.400000
108.071748	3.600000
110.637699	-0.200000
113.200815	16.800000
115.767487	29.200000
118.324937	36.400000
120.888073	20.600000
123.446250	48.300000
126.007981	64.200000
128.564755	83.600000
131.122955	122.400000
133.676203	168.900000
136.228753	228.900000
138.784853	352.800000
141.336005	461.600000
143.886460	561.700000
146.436217	636.400000
148.983155	701.000000
151.529398	735.500000
154.077066	765.800000
156.624038	772.600000
159.166075	745.900000
161.707418	760.800000
164.248068	720.500000
166.790144	710.500000
169.329408	713.300000
171.865863	725.400000
174.401628	722.100000
176.938818	732.000000
179.475317	708.600000
182.009010	715.600000
184.539899	724.100000
187.070100	723.100000
189.601727	712.200000
192.130552	707.700000
194.656578	718.500000
197.181918	701.500000
199.708683	710.900000
202.232652	709.600000
204.755936	692.300000
207.278534	751.800000
209.798340	721.500000
212.317463	705.000000
214.835903	711.900000
217.355768	722.400000
219.868630	697.800000
222.385024	730.200000
224.900737	759.800000
227.411559	763.900000
229.923806	782.500000
232.433270	767.100000
234.942056	777.300000
237.450164	771.300000
239.959696	793.600000
242.464347	752.700000
244.968322	749.500000
247.473721	739.600000
249.974245	755.900000
252.478292	759.100000
254.975369	770.300000
257.475969	761.300000
259.973797	778.300000
262.470952	759.900000
264.967434	759.000000
267.459053	748.300000
269.954192	755.600000
272.446564	748.700000
274.938266	785.700000
277.427205	785.500000
279.917567	780.100000
282.405168	772.500000
284.890009	793.600000
287.378365	787.100000
289.859781	808.100000
292.344711	782.200000
294.824796	832.200000
297.308393	798.400000
299.787147	871.700000
302.267324	876.000000
304.744750	887.700000
307.221512	900.600000
309.697610	848.000000
312.170960	823.200000
314.643649	849.300000
317.115676	845.200000
319.587041	855.800000
322.055663	861.600000
324.523625	842.800000
326.993010	829.300000
329.457572	808.300000
331.925638	769.500000
334.388883	778.500000
336.851472	759.800000
339.313404	722.400000
341.774679	733.000000
344.233219	713.300000
346.693183	693.800000
349.150413	710.600000
351.606989	682.500000
354.062911	681.600000
356.516103	676.600000
358.970718	667.800000
361.420531	686.300000
363.873840	672.100000
366.322350	650.100000
368.770210	670.600000
371.219492	657.000000
373.663979	644.100000
376.109890	630.500000
378.555150	629.300000
380.997692	614.300000
383.439586	599.000000
385.880832	587.900000
388.319364	601.900000
390.759316	597.100000
393.196555	625.600000
395.631083	611.300000
398.069097	593.600000
400.502336	596.000000
402.936995	601.100000
405.366882	584.800000
407.800254	594.300000
410.228856	595.600000
412.656816	560.400000
415.086198	573.300000
417.510814	575.400000
419.936852	563.500000
422.362249	561.600000
424.787006	568.100000
427.207004	551.100000
429.628424	537.900000
432.047148	562.000000
434.467292	549.600000
436.884741	545.800000
439.303610	530.200000
441.719785	550.100000
444.131214	506.500000
446.546119	518.400000
448.958335	485.000000
451.369916	504.600000
453.780863	463.200000
456.189123	488.700000
458.596752	460.800000
461.003748	447.200000
463.410113	448.700000
465.813795	460.300000
468.216847	425.400000
470.619269	451.100000
473.021061	454.500000
475.420175	461.600000
477.820709	452.900000
480.220614	468.100000
482.615797	471.500000
485.014446	505.400000
487.408374	517.300000
489.801677	525.200000
492.194355	548.600000
494.586407	564.800000
496.979877	615.700000
499.368635	683.300000
501.754727	802.100000
504.142239	993.800000
506.529128	1254.800000
508.913352	1726.200000
511.298996	2480.000000
513.681978	3521.900000
516.062299	4790.800000
518.444039	5758.600000
520.823120	5743.600000
523.203619	5192.500000
525.581462	4286.200000
527.956648	3499.700000
530.331218	2830.600000
532.707205	2442.300000
535.080540	2074.500000
537.455292	1866.400000
539.825358	1628.600000
542.194810	1525.200000
544.565679	1353.600000
546.931867	1235.800000
549.299474	1155.300000
551.664435	1114.600000
554.028784	1021.900000
556.392519	996.800000
558.757672	971.900000
561.118153	915.600000
563.480052	898.400000
565.839310	903.800000
568.195930	834.800000
570.555996	859.100000
572.909370	804.100000
575.266189	817.000000
577.620373	761.800000
579.973948	741.000000
582.326916	740.900000
584.677251	720.800000
587.029004	671.200000
589.374080	694.900000
591.724619	659.900000
594.068486	652.000000
596.417814	637.400000
598.762493	621.900000
601.104548	622.500000
603.448020	604.100000
605.788869	611.100000
608.129115	621.800000
610.466741	635.300000
612.807802	649.600000
615.144226	670.000000
617.482066	703.800000
619.817289	679.400000
622.149895	657.000000
624.483919	625.900000
626.815328	604.100000
629.146139	589.100000
631.476352	565.800000
633.805968	572.500000
636.130960	574.900000
638.461394	565.200000
640.787207	564.900000
643.110412	555.100000
645.435034	556.100000
647.757050	543.900000
650.078472	538.100000
652.397291	532.900000
654.717527	516.000000
657.037169	495.400000
659.354210	511.800000
661.670659	500.200000
663.984510	516.200000
666.299777	521.200000
668.612447	515.200000
670.926532	525.000000
673.236017	550.700000
675.546918	528.100000
677.855226	504.200000
680.162946	514.500000
682.472080	519.000000
684.776622	502.200000
687.080578	497.100000
689.383948	463.200000
691.688732	466.900000
693.988929	463.800000
696.290542	451.000000
698.591569	439.200000
700.888015	475.300000
703.185876	413.600000
705.483153	437.400000
707.779847	419.700000
710.071965	400.400000
712.367494	423.600000
714.658449	397.100000
716.950819	412.200000
719.240614	420.100000
721.529828	383.000000
723.818463	401.200000
726.104525	408.300000
728.392002	417.900000
730.676907	402.800000
732.961235	394.200000
735.242994	396.000000
737.526167	365.700000
739.808763	414.000000
742.086803	415.000000
744.366257	393.500000
746.645136	383.300000
748.923440	385.300000
751.197193	390.200000
753.472361	387.200000
755.746955	388.500000
758.018990	397.000000
760.292438	397.900000
762.563328	387.200000
764.831662	400.300000
767.101409	392.800000
769.368601	398.000000
771.635224	397.500000
773.901276	408.500000
776.164777	403.000000
778.429691	415.400000
780.694035	402.200000
782.953850	401.800000
785.215077	395.700000
787.475737	403.600000
789.733851	410.200000
791.989420	393.900000
794.248379	409.600000
796.500840	420.600000
798.758668	379.300000
801.011977	405.400000
803.262746	416.500000
805.514927	402.700000
807.764569	410.400000
810.015623	401.200000
812.262167	426.300000
814.510122	433.400000
816.755543	409.300000
819.002375	402.100000
821.248646	388.400000
823.490412	408.400000
825.735562	358.000000
827.974239	376.600000
830.216298	387.900000
832.453859	386.900000
834.692832	389.700000
836.929278	390.100000
839.167135	369.200000
841.402467	388.300000
843.635276	378.600000
845.869495	372.700000
848.101193	385.000000
850.332336	383.100000
852.562924	366.300000
854.792958	365.100000
857.022438	383.000000
859.247436	377.600000
861.475808	387.800000
863.699702	391.300000
865.925007	360.900000
868.145836	370.500000
870.370037	363.400000
872.589765	381.200000
874.810903	366.900000
877.031491	380.300000
879.249570	388.900000
881.469058	369.000000
883.684080	366.500000
885.898554	367.900000
888.112481	360.900000
890.325861	353.100000
892.538693	382.900000
894.750978	362.800000
896.960762	355.100000
899.170000	392.200000
901.378693	374.600000
903.584886	375.400000
905.792489	378.900000
907.997595	372.000000
910.202157	371.300000
912.404224	388.600000
914.607700	394.700000
916.808682	394.600000
919.009122	423.100000
921.210971	424.800000
923.406429	406.000000
925.605245	447.000000
927.799624	487.900000
929.997360	532.600000
932.190660	609.600000
934.385369	658.100000
936.577591	701.100000
938.769276	804.300000
940.960423	837.000000
943.149087	870.600000
945.337215	857.200000
947.522861	834.600000
949.711861	818.600000
951.896437	846.600000
954.080478	831.500000
956.267869	812.500000
958.446956	833.900000
960.629394	850.800000
962.811298	831.900000
964.990727	828.800000
967.167684	864.300000
969.346049	829.200000
971.525821	886.200000
973.699244	886.400000
975.876013	868.300000
978.048375	838.700000
980.222145	882.000000
982.391511	831.300000
984.564221	817.700000
986.734466	762.600000
988.904181	713.900000
991.073368	674.800000
993.238158	585.500000
995.406290	559.700000
997.570026	523.400000
999.735170	524.900000
1001.897854	511.900000
1004.060013	478.400000
1006.219715	469.100000
1008.378892	464.000000
1010.539476	456.000000
1012.697605	443.400000
1014.855211	443.700000
1017.012293	418.200000
1019.168851	420.600000
1021.321030	433.000000
1023.474616	411.100000
1025.627680	397.600000
1027.778295	390.000000
1029.930316	381.100000
1032.077965	393.600000
1034.228945	408.500000
1036.375554	379.200000
1038.521644	355.400000
1040.667216	350.700000
1042.814193	364.500000
1044.954881	362.800000
1047.098898	371.300000
1049.240476	384.800000
1051.381536	365.500000
1053.524002	374.800000
1055.660187	365.400000
1057.799699	394.000000
1059.934855	392.000000
1062.073336	375.900000
1064.207464	377.500000
1066.341078	362.200000
1068.476096	360.600000
1070.606766	376.100000
1072.738840	381.900000
1074.868485	397.000000
1076.997617	352.700000
1079.126239	345.800000
1081.254349	356.200000
1083.380033	342.100000
1085.505207	358.900000
1087.631785	337.600000
1089.754025	351.000000
1091.877670	339.400000
1093.996980	350.300000
1096.121519	346.900000
1098.239814	343.000000
1100.359512	345.700000
1102.476793	339.700000
1104.593566	369.900000
1106.709833	322.700000
1108.823685	327.700000
1110.938940	335.200000
1113.049873	317.800000
1115.164118	328.600000
1117.274042	322.000000
1119.385370	315.400000
1121.496193	318.800000
1123.602700	322.900000
1125.712516	323.700000
1127.818019	313.100000
1129.924924	316.800000
1132.025614	311.000000
1134.131516	302.400000
1136.233109	322.800000
1138.336105	310.900000
1140.438600	316.800000
1142.534888	301.500000
1144.636383	296.500000
1146.733576	300.600000
1148.830271	306.900000
1150.926467	303.100000
1153.022165	312.500000
1155.117366	300.800000
1157.210170	300.600000
1159.304376	314.100000
1161.392391	305.800000
1163.485604	319.400000
1165.572630	317.100000
1167.662954	327.200000
1169.748990	313.000000
1171.838324	317.500000
1173.921477	311.000000
1176.006033	323.700000
1178.091990	333.600000
1180.173665	318.100000
1182.256741	308.500000
1184.337432	343.700000
1186.417632	316.700000
1188.497340	315.300000
1190.576557	335.700000
1192.653391	315.000000
1194.727845	319.100000
1196.805591	309.000000
1198.879066	309.800000
1200.953943	335.900000
1203.024552	312.800000
1205.096562	298.600000
1207.166196	328.900000
1209.237231	314.800000
1211.307779	310.100000
1213.374065	300.200000
1215.441752	309.300000
1217.507066	289.400000
1219.573781	295.900000
1221.636241	307.300000
1223.701985	298.600000
1225.763475	297.700000
1227.826366	320.300000
1229.886888	292.500000
1231.946928	314.300000
1234.006484	303.400000
1236.063676	314.100000
1238.120385	316.100000
1240.174732	302.300000
1242.232360	319.500000
1244.287624	332.700000
1246.338649	300.000000
1248.391073	303.300000
1250.443017	319.400000
1252.492603	323.900000
1254.541710	327.600000
1256.590338	330.200000
1258.638488	335.500000
1260.686160	336.800000
1262.729601	318.100000
1264.776318	344.200000
1266.820681	350.200000
1268.864568	333.100000
1270.906103	334.800000
1272.945289	332.100000
1274.987748	327.900000
1277.025984	337.500000
1279.065619	315.500000
1281.104778	346.900000
1283.139720	333.600000
1285.176060	338.600000
1287.210056	341.400000
1289.245449	331.500000
1291.276629	319.900000
1293.309208	346.500000
1295.341315	329.900000
1297.371081	345.400000
1299.402244	332.100000
1301.429200	331.100000
1303.457555	323.800000
1305.481704	340.700000
1307.509119	336.100000
1309.532331	333.000000
1311.556941	315.000000
1313.579216	327.500000
1315.602889	335.000000
1317.624229	318.200000
1319.645102	325.600000
1321.665507	319.200000
1323.681719	350.600000
1325.699328	347.300000
1327.714609	332.100000
1329.733149	320.600000
1331.747499	345.100000
1333.759524	329.000000
1335.774807	318.100000
1337.785904	326.400000
1339.798397	331.200000
1341.806708	337.800000
1343.818275	343.800000
1345.823803	331.900000
1347.832586	337.000000
1349.837191	350.100000
1351.845050	343.200000
1353.852447	359.900000
1355.853813	321.100000
1357.856575	336.700000
1359.858878	355.000000
1361.860721	343.900000
1363.862104	361.700000
1365.861173	343.100000
1367.859785	337.600000
1369.857937	344.600000
1371.855632	330.500000
1373.849164	342.500000
1375.844091	357.800000
1377.838562	314.400000
1379.832576	334.300000
1381.824283	346.400000
1383.815534	350.400000
1385.804480	337.800000
1387.794821	320.200000
1389.784708	321.400000
1391.772290	317.000000
1393.759419	315.600000
1395.744246	315.900000
1397.730468	316.600000
1399.714389	318.800000
1401.697858	320.000000
1403.680875	325.700000
1405.661594	324.500000
1407.643707	321.800000
1409.623523	318.200000
1411.602889	313.700000
1413.578116	337.000000
1415.556581	333.200000
1417.532753	344.400000
1419.508475	322.200000
1421.483749	320.600000
1423.456731	336.400000
1425.429265	329.500000
1427.401351	348.800000
1429.372990	337.600000
1431.340500	322.800000
1433.313084	321.500000
1435.277862	311.400000
1437.247713	339.300000
1439.213439	315.500000
1441.180559	340.700000
1443.145395	315.200000
1445.106111	324.600000
1447.071895	325.300000
1449.031724	333.000000
1450.992947	325.600000
1452.955561	340.000000
1454.914061	347.400000
1456.872119	335.300000
1458.829735	345.800000
1460.786908	352.400000
1462.741806	334.200000
1464.698097	357.500000
1466.652113	347.600000
1468.605688	365.600000
1470.556991	328.000000
1472.509686	363.900000
1474.460110	350.500000
1476.410095	356.200000
1478.359641	341.800000
1480.306918	355.400000
1482.251927	319.200000
1484.198329	338.000000
1486.144293	325.300000
1488.089820	328.000000
1490.033081	326.200000
1491.975906	322.700000
1493.916468	315.400000
1495.858422	305.600000
1497.798113	300.600000
1499.737369	331.400000
1501.676191	321.600000
1503.612753	319.100000
1505.550706	340.700000
1507.486400	345.000000
1509.421661	341.200000
1511.354665	337.900000
1513.287237	337.900000
1515.219377	359.800000
1517.151085	348.500000
1519.080540	362.100000
1521.011385	346.500000
1522.941798	333.200000
1524.868139	372.200000
1526.795870	379.500000
1528.721352	378.100000
1530.646404	391.500000
1532.571027	396.000000
1534.495220	404.300000
1536.417167	394.600000
1538.340504	416.100000
1540.261594	417.500000
1542.180440	415.700000
1544.100676	443.800000
1546.018668	432.800000
1547.936234	441.300000
1549.851559	447.500000
1551.768273	480.100000
1553.680932	469.900000
1555.596794	492.500000
1557.510418	552.300000
1559.421803	559.200000
1561.334578	584.500000
1563.243303	649.700000
1565.153417	689.600000
1567.063108	745.900000
1568.972376	852.900000
1570.879409	939.100000
1572.784210	1072.000000
1574.690400	1249.700000
1576.594359	1414.500000
1578.497896	1603.700000
1580.401013	1859.000000
1582.301900	2076.600000
1584.204176	2180.200000
1586.104223	2233.100000
1588.005659	2111.800000
1589.903061	1990.400000
1591.800044	1804.600000
1593.696609	1622.700000
1595.594561	1426.300000
1597.486679	1217.200000
1599.381991	1038.500000
1601.276885	897.300000
1603.169557	789.900000
1605.061812	683.200000
1606.951848	650.900000
1608.841468	567.200000
1610.730673	533.100000
1612.619462	508.300000
1614.506035	466.800000
1616.393995	454.000000
1618.277938	437.900000
1620.163268	411.700000
1622.048185	437.400000
1623.930888	388.700000
1625.814978	375.800000
1627.695056	355.300000
1629.576522	339.300000
1631.455776	331.400000
1633.336418	325.000000
1635.211255	295.700000
1637.091073	311.000000
1638.966887	286.400000
1640.842290	297.300000
1642.719079	273.800000
1644.590071	280.000000
1646.464246	262.900000
1648.334421	279.100000
1650.207777	272.700000
1652.078930	254.000000
1653.947881	267.400000
1655.818218	242.500000
1657.684562	238.500000
1659.552291	256.500000
1661.417821	253.700000
1663.284737	247.700000
1665.147663	248.400000
1667.011976	256.600000
1668.874092	234.100000
1670.735803	250.900000
1672.598899	234.200000
1674.459801	224.400000
1676.318510	219.000000
1678.176815	231.900000
1680.036504	225.000000
1681.890427	217.500000
1683.747523	239.000000
1685.604215	224.700000
1687.456932	214.600000
1689.312820	228.600000
1691.164734	217.500000
1693.016247	215.000000
1694.867359	221.700000
1696.718070	204.500000
1698.568381	224.100000
1700.416508	225.000000
1702.266019	199.200000
1704.109780	208.900000
1705.958492	191.900000
1707.801457	205.400000
1709.647588	200.200000
1711.489758	202.000000
1713.335093	215.000000
1715.174687	185.000000
1717.015665	203.100000
1718.858026	215.600000
1720.696430	188.600000
1722.536218	227.800000
1724.373831	205.300000
1726.211049	190.800000
1728.046093	196.500000
1729.882520	202.700000
1731.716774	206.200000
1733.550635	203.100000
1735.384101	188.500000
1737.213621	189.100000
1739.046301	191.500000
1740.875035	192.600000
1742.706928	199.300000
1744.534878	192.700000
1746.362436	198.900000
1748.189603	195.100000
1750.016378	204.100000
1751.842761	200.000000
1753.665208	194.000000
1755.490810	208.700000
1757.312477	209.100000
1759.135525	185.900000
1760.956413	187.400000
1762.776912	193.600000
1764.598791	202.100000
1766.414971	199.700000
1768.234303	197.700000
1770.049708	196.300000
1771.868264	190.400000
1773.682894	216.700000
1775.497137	182.800000
1777.310994	191.000000
1779.124464	179.000000
1780.935780	191.000000
1782.748478	172.000000
1784.560790	199.900000
1786.369183	176.700000
1788.178958	204.100000
1789.984818	187.800000
1791.793823	192.800000
1793.598915	186.300000
1795.405388	169.100000
1797.211476	193.700000
1799.013655	195.800000
1800.818978	195.700000
1802.620391	178.600000
1804.423186	182.200000
1806.222074	188.200000
1808.022343	179.300000
1809.822230	183.900000
1811.619975	171.500000
1813.417340	195.100000
1815.214324	181.900000
1817.010929	173.100000
1818.805393	194.700000
1820.601238	187.900000
1822.391427	160.200000
1824.186513	178.400000
1825.975946	170.900000
1827.768517	176.800000
1829.558952	196.300000
1831.347252	174.200000
1833.138688	176.400000
1834.924479	180.800000
1836.711649	175.500000
1838.496687	201.600000
1840.284858	184.200000
1842.069145	188.600000
1843.851301	189.400000
1845.634837	184.200000
1847.416244	174.500000
1849.199029	172.800000
1850.977935	184.300000
1852.758219	192.900000
1854.536378	179.000000
1856.315914	172.700000
1858.093326	196.400000
1859.868615	186.700000
1861.645281	179.500000
1863.419825	182.000000
1865.195746	183.200000
1866.966048	191.100000
1868.739477	191.100000
1870.510786	186.000000
1872.281724	188.800000
1874.054040	186.000000
1875.820742	184.700000
1877.590569	191.500000
1879.356533	188.400000
1881.125621	181.000000
1882.890847	196.200000
1884.655705	176.900000
1886.421939	181.100000
1888.184316	200.100000
1889.946324	187.300000
1891.707966	176.500000
1893.469240	180.800000
1895.230148	178.100000
1896.990688	175.700000
1898.749120	169.000000
1900.507185	178.400000
1902.263143	184.500000
1904.020477	167.100000
1905.777446	184.900000
1907.532308	174.700000
1909.285066	188.100000
1911.037459	148.900000
1912.791229	179.800000
1914.542895	167.500000
1916.292458	184.600000
1918.043398	183.600000
1919.793974	150.000000
1921.540712	181.900000
1923.288825	173.800000
1925.034840	162.700000
1926.782229	186.000000
1928.527520	162.000000
1930.270715	165.100000
1932.015284	162.900000
1933.757757	172.900000
1935.499871	181.000000
1937.241624	175.300000
1938.983017	160.700000
1940.722317	175.300000
1942.461258	171.100000
1944.199840	162.800000
1945.936331	171.800000
1947.672463	172.600000
1949.409971	173.400000
1951.143656	179.400000
1952.878716	170.000000
1954.611687	161.000000
1956.344302	145.400000
1958.076560	158.800000
1959.808462	176.100000
1961.538279	180.100000
1963.266010	155.700000
1964.995116	179.200000
1966.723866	171.600000
1968.450533	174.300000
1970.176846	165.100000
1971.904533	155.400000
1973.626683	172.500000
1975.351934	183.700000
1977.073378	163.200000
1978.797922	177.400000
1980.520387	198.600000
1982.239048	173.400000
1983.960809	163.900000
1985.678767	162.300000
1987.398098	175.800000
1989.113630	160.100000
1990.833982	176.700000
1992.550536	183.900000
1994.263293	176.200000
1995.979146	169.900000
1997.692927	167.700000
1999.406358	186.800000
2001.117718	178.300000
2002.830450	184.200000
2004.539392	169.700000
2006.251426	175.900000
2007.957951	160.300000
2009.667569	159.700000
2011.375119	182.400000
2013.082322	163.900000
2014.787459	153.200000
2016.492250	170.000000
2018.198412	170.900000
2019.900791	172.300000
2021.604543	166.100000
2023.306232	169.200000
2025.007575	157.000000
2026.708574	166.300000
2028.407511	159.600000
2030.107820	166.400000
2031.804353	162.700000
2033.502258	173.500000
2035.198105	158.400000
2036.897037	168.500000
2038.590483	170.200000
2040.285300	182.800000
2041.979774	163.100000
2043.670481	169.500000
2045.364270	163.900000
2047.054294	174.100000
2048.745688	155.100000
2050.435028	169.500000
2052.125740	164.900000
2053.812688	154.500000
2055.499296	167.000000
2057.187275	168.200000
2058.871494	165.300000
2060.557083	173.400000
2062.242333	165.300000
2063.925535	170.100000
2065.610107	168.800000
2067.289215	159.500000
2068.973110	168.600000
2070.651543	186.200000
2072.333054	160.800000
2074.010813	159.500000
2075.688236	170.500000
2077.367028	179.900000
2079.043777	178.000000
2080.718485	165.200000
2082.394563	159.900000
2084.068599	162.500000
2085.742301	174.000000
2087.415667	174.300000
2089.086994	154.800000
2090.757987	155.300000
2092.428646	167.900000
2094.098971	178.600000
2095.768962	160.800000
2097.436917	185.900000
2099.104538	195.900000
2100.770126	174.500000
2102.437082	163.400000
2104.102005	182.300000
2105.766596	166.100000
2107.429155	167.100000
2109.093082	166.900000
2110.754978	183.200000
2112.416544	157.100000
2114.077778	163.600000
2115.736983	138.300000
2117.395859	175.000000
2119.054405	165.200000
2120.712620	164.400000
2122.367113	175.600000
2124.024670	134.700000
2125.681897	136.900000
2127.335404	164.200000
2128.990278	152.400000
2130.641433	152.900000
2132.295651	156.100000
2133.946151	145.900000
2135.598019	143.100000
2137.244478	158.800000
2138.895691	149.900000
2140.543192	171.900000
2142.192059	161.000000
2143.838907	147.000000
2145.485430	145.200000
2147.131627	156.400000
2148.774116	157.600000
2150.419662	162.000000
2152.061502	156.100000
2153.706399	167.000000
2155.347591	138.800000
2156.988459	156.000000
2158.629004	136.600000
2160.267536	150.800000
2161.907434	160.300000
2163.543632	160.700000
2165.181196	153.700000
2166.818438	170.500000
2168.453670	159.500000
2170.088580	159.400000
2171.723169	155.800000
2173.357437	144.400000
2174.988011	172.000000
2176.621637	164.500000
2178.251571	154.600000
2179.882870	170.200000
2181.512164	151.900000
2183.141139	167.500000
2184.769794	166.200000
2186.398130	160.700000
2188.024463	163.300000
2189.650478	160.100000
2191.274492	161.400000
2192.899871	164.600000
2194.523249	155.000000
2196.147992	159.500000
2197.769054	152.300000
2199.389799	169.600000
2201.011908	149.900000
2202.632020	180.300000
2204.250136	166.400000
2205.867936	157.600000
2207.485420	144.300000
2209.102590	187.200000
2210.719443	165.400000
2212.335982	169.000000
2213.950528	157.800000
2215.563081	157.500000
2217.176998	138.000000
2218.788924	156.000000
2220.402213	166.800000
2222.013512	175.100000
2223.622821	156.200000
2225.233493	187.000000
2226.842177	155.300000
2228.450549	155.200000
2230.056934	151.100000
2231.664681	166.600000
2233.270443	155.500000
2234.875893	161.900000
2236.479358	149.400000
2238.084186	151.700000
2239.687030	149.000000
2241.287891	167.800000
2242.890115	161.000000
2244.490357	156.100000
2246.091961	150.200000
2247.689912	164.200000
2249.289226	142.800000
2250.886560	173.400000
2252.483586	138.600000
2254.081973	165.700000
2255.676713	152.700000
2257.269475	163.800000
2258.863600	153.600000
2260.459086	156.300000
2262.050927	147.000000
2263.642462	147.900000
2265.235359	155.700000
2266.822946	158.400000
2268.415229	151.900000
2270.002205	159.900000
2271.592210	145.200000
2273.176910	155.300000
2274.766304	150.700000
2276.350395	146.500000
2277.935848	153.900000
2279.519332	159.000000
2281.105841	148.600000
2282.688717	160.300000
2284.271290	144.700000
2285.853559	142.300000
2287.432198	141.000000
2289.013862	161.600000
2290.591897	129.900000
2292.172955	152.900000
2293.750386	152.200000
2295.325854	151.500000
2296.904344	157.800000
2298.479210	145.200000
2300.053775	150.600000
2301.628039	173.500000
2303.202003	135.800000
2304.775667	137.500000
2306.349031	150.000000
2307.918776	140.500000
2309.488222	156.400000
2311.060686	154.600000
2312.627876	127.800000
2314.198083	154.600000
2315.764677	165.700000
2317.332629	169.700000
2318.898627	152.900000
2320.464327	150.000000
2322.029729	146.500000
2323.593178	140.600000
2325.157986	148.600000
2326.719186	169.400000
2328.283399	180.100000
2329.842352	199.500000
2331.404318	145.100000
2332.964334	168.800000
2334.524054	165.300000
2336.081826	130.400000
2337.639302	157.600000
2339.196484	163.600000
2340.751718	144.700000
2342.306659	162.800000
2343.861305	166.300000
2345.415658	174.300000
2346.969717	157.300000
2348.523483	139.900000
2350.075304	150.300000
2351.625182	157.600000
2353.178069	150.500000
2354.725712	143.400000
2356.276364	140.200000
2357.823424	146.400000
2359.371842	153.400000
2360.919969	155.400000
2362.464507	156.500000
2364.010403	155.000000
2365.554361	145.300000
2367.099675	170.800000
2368.641405	136.200000
2370.184493	149.200000
2371.725644	147.400000
2373.266506	137.600000
2374.807079	143.700000
2376.347363	135.900000
2377.887358	126.300000
2379.423774	151.100000
2380.963192	156.100000
2382.499033	138.900000
2384.036231	139.800000
2385.569853	150.400000
2387.106475	151.400000
2388.641167	142.200000
2390.173929	149.000000
2391.706404	166.000000
2393.236951	151.000000
2394.770496	164.900000
2396.298830	154.700000
2397.828520	122.900000
2399.357925	138.500000
2400.887045	144.400000
2402.415879	140.400000
2403.939509	164.800000
2405.467774	161.200000
2406.990837	152.700000
2408.518533	138.300000
2410.039390	163.600000
2411.564879	163.100000
2413.086809	148.500000
2414.610093	141.200000
2416.131457	179.100000
2417.650901	151.700000
2419.171700	170.200000
2420.690580	154.700000
2422.209179	158.900000
2423.725859	161.000000
2425.243895	166.100000
2426.761649	178.400000
2428.275851	183.800000
2429.789774	166.700000
2431.303416	172.000000
2432.818412	178.800000
2434.329861	178.000000
2435.842663	186.100000
2437.353553	184.400000
2438.864164	181.000000
2440.372863	189.400000
2441.884548	183.300000
2443.392690	184.300000
2444.900554	181.400000
2446.408139	199.300000
2447.912185	189.000000
2449.419215	199.500000
2450.924337	207.800000
2452.429182	211.900000
2453.932120	207.200000
2455.434782	201.900000
2456.937167	185.200000
2458.437647	204.500000
2459.939480	194.500000
2461.439408	192.700000
2462.939061	186.400000
2464.438439	205.700000
2465.935914	185.800000
2467.431487	183.200000
2468.930040	168.500000
2470.425065	184.100000
2471.921442	186.600000
2473.414293	176.400000
2474.908497	183.700000
2476.402427	159.800000
2477.892833	188.000000
2479.386217	184.300000
2480.877703	169.300000
2482.367292	183.400000
2483.856609	177.900000
2485.344030	158.200000
2486.834427	156.300000
2488.321306	152.400000
2489.809536	149.900000
2491.294249	159.400000
2492.778692	159.200000
2494.264487	154.800000
2495.748390	164.500000
2497.233643	149.700000
2498.713763	167.100000
2500.196856	163.100000
2501.678058	162.600000
2503.158991	170.600000
2504.638035	168.200000
2506.116810	153.000000
2507.595317	185.000000
2509.073555	142.300000
2510.551526	156.600000
2512.025991	178.100000
2513.503426	168.500000
2514.977356	143.900000
2516.452638	157.000000
2517.927652	157.600000
2519.399165	158.100000
2520.872029	147.600000
2522.343010	156.700000
2523.815341	157.000000
2525.282558	170.200000
2526.752742	160.800000
2528.221045	151.100000
2529.689083	160.000000
2531.156855	153.700000
2532.624363	154.900000
2534.091607	159.700000
2535.555358	148.000000
2537.020459	166.900000
2538.483683	156.500000
2539.948256	161.400000
2541.409341	168.000000
2542.871775	167.800000
2544.333946	159.400000
2545.792630	174.200000
2547.255887	158.200000
2548.714047	153.700000
2550.173557	153.400000
2551.627972	159.400000
2553.086958	151.900000
2554.544072	154.500000
2555.999314	153.600000
2557.454296	161.600000
2558.907408	170.800000
2560.361869	151.300000
2561.814461	164.300000
2563.266793	171.700000
2564.717257	148.900000
2566.170678	168.900000
2567.619016	155.200000
2569.070309	153.600000
2570.519737	147.500000
2571.965692	166.400000
2573.414602	167.200000
2574.860042	172.300000
2576.306829	153.100000
2577.751753	165.000000
2579.196420	164.500000
2580.642434	170.100000
2582.084982	179.900000
2583.528876	157.800000
2584.969306	176.500000
2586.411084	156.900000
2587.851002	156.300000
2589.292267	169.300000
2590.730070	172.400000
2592.170823	158.100000
2593.606514	169.000000
2595.045153	172.700000
2596.481936	175.900000
2597.916863	180.200000
2599.354737	156.000000
2600.787554	160.900000
2602.221718	157.300000
2603.654028	168.000000
2605.087684	150.300000
2606.519487	169.200000
2607.951036	186.000000
2609.382332	172.200000
2610.811777	182.900000
2612.240969	179.600000
2613.668310	174.000000
2615.096998	180.500000
2616.525433	185.100000
2617.950422	179.000000
2619.376756	190.600000
2620.801243	195.000000
2622.227075	210.600000
2623.649463	200.400000
2625.073196	204.800000
2626.495084	223.900000
2627.916721	210.900000
2629.336514	220.400000
2630.757652	222.800000
2632.178540	218.000000
2633.595989	265.000000
2635.016378	237.600000
2636.433330	236.900000
2637.850034	236.900000
2639.266489	243.500000
2640.682696	265.500000
2642.098655	268.000000
2643.512773	269.400000
2644.926643	301.500000
2646.338674	277.200000
2647.752050	293.000000
2649.161996	318.800000
2650.574878	305.600000
2651.984331	336.100000
2653.393538	346.100000
2654.800909	344.000000
2656.211214	369.300000
2657.619683	385.100000
2659.026318	438.600000
2660.432707	396.600000
2661.837262	435.400000
2663.243161	481.900000
2664.647227	488.300000
2666.051048	499.600000
2667.454625	538.400000
2668.856371	550.500000
2670.259460	585.400000
2671.659131	629.800000
2673.060146	612.400000
2674.457745	658.700000
2675.858273	683.700000
2677.255387	716.400000
2678.653844	735.100000
2680.050474	733.100000
2681.446861	769.900000
2682.843006	805.700000
2684.237325	817.600000
2685.632987	807.800000
2687.025240	803.700000
2688.418835	822.400000
2689.810606	827.500000
2691.203720	782.500000
2692.595010	775.600000
2693.984477	767.700000
2695.373704	735.800000
2696.762692	735.600000
2698.153021	723.400000
2699.538367	690.800000
2700.926636	653.900000
2702.313085	638.600000
2703.699295	594.600000
2705.085266	593.900000
2706.467839	547.200000
2707.851754	550.400000
2709.235430	479.700000
2710.618869	493.200000
2711.998912	458.000000
2713.380297	426.400000
2714.759867	417.400000
2716.140777	360.300000
2717.519873	379.900000
2718.897155	369.200000
2720.275778	346.000000
2721.652587	327.400000
2723.029161	317.500000
2724.405499	294.200000
2725.780025	314.800000
2727.155892	275.400000
2728.528373	283.200000
2729.903769	260.000000
2731.274205	247.000000
2732.645981	232.600000
2734.017524	234.500000
2735.387258	232.000000
2736.758332	249.500000
2738.127599	227.400000
2739.496632	233.700000
2740.863859	209.600000
2742.230852	186.700000
2743.597613	199.100000
2744.964141	186.100000
2746.328865	194.100000
2747.693356	179.000000
2749.057616	192.400000
2750.421643	197.200000
2751.785438	196.500000
2753.145861	167.600000
2754.509193	170.200000
2755.867583	202.500000
2757.228883	144.900000
2758.586813	171.100000
2759.947651	163.000000
2761.306689	158.500000
2762.662360	135.000000
2764.020938	166.000000
2765.376149	152.200000
2766.731131	153.800000
2768.084316	152.900000
2769.440408	145.000000
2770.793136	142.500000
2772.145636	141.000000
2773.497907	149.400000
2774.851516	149.200000
2776.201765	129.800000
2777.550219	152.200000
2778.901578	168.700000
2780.249579	147.000000
2781.598917	148.900000
2782.946463	150.900000
2784.293783	144.800000
2785.640875	150.700000
2786.986177	166.700000
2788.331253	148.600000
2789.676103	144.900000
2791.020727	143.700000
2792.361999	152.500000
2793.704608	148.700000
2795.046993	160.900000
2796.389152	130.700000
2797.727962	133.100000
2799.069672	140.700000
2800.408033	140.100000
2801.747732	137.000000
2803.085646	141.600000
2804.421774	147.000000
2805.757680	142.800000
2807.094923	154.700000
2808.430382	129.700000
2809.765617	160.700000
2811.099071	150.100000
2812.433861	146.700000
2813.765311	138.000000
2815.099656	124.500000
2816.429102	139.800000
2817.759886	147.100000
2819.090449	136.600000
2820.419232	140.500000
2821.749351	136.900000
2823.077692	115.700000
2824.405812	122.800000
2825.732154	132.100000
2827.059832	137.000000
2828.384178	140.700000
2829.709860	116.000000
2831.033766	135.600000
2832.357452	129.700000
2833.682474	126.400000
2835.004167	127.000000
2836.325641	149.200000
2837.646895	128.500000
2838.967932	148.800000
2840.287195	143.200000
2841.607794	118.100000
2842.926621	133.700000
2844.245231	137.900000
2845.562069	119.900000
2846.878690	131.200000
2848.195094	131.100000
2849.509728	122.400000
2850.825697	113.600000
2852.138347	144.800000
2853.452331	122.500000
2854.766099	139.700000
2856.079650	124.500000
2857.391435	128.200000
2858.701453	130.500000
2860.012806	124.100000
2861.320844	127.000000
2862.630216	133.300000
2863.939373	122.800000
2865.248316	115.600000
2866.555494	148.300000
2867.860910	119.900000
2869.167659	135.400000
2870.472647	138.500000
2871.777420	113.300000
2873.080433	121.800000
2874.386326	129.600000
2875.687365	133.000000
2876.989737	127.400000
2878.290351	131.200000
2879.592297	127.600000
2880.894031	150.600000
2882.192461	121.300000
2883.492224	127.800000
2884.790230	140.300000
2886.088024	122.600000
2887.384062	125.400000
2888.681432	108.300000
2889.977048	118.200000
2891.272452	125.100000
2892.567645	131.100000
2893.859541	122.300000
2895.154312	128.600000
2896.445788	127.000000
2897.738596	105.800000
2899.031194	134.100000
2900.320497	114.000000
2901.611134	111.700000
2902.900019	131.900000
2904.190236	121.000000
2905.477162	126.200000
2906.765420	108.300000
2908.051929	118.800000
2909.338229	130.500000
2910.624321	123.900000
2911.908665	106.300000
2913.195881	123.700000
2914.478270	124.800000
2915.761991	114.400000
2917.043965	131.500000
2918.325733	121.600000
2919.605755	127.200000
2920.888648	106.400000
2922.169794	118.800000
2923.447659	103.500000
2924.728393	134.600000
2926.005847	113.500000
2927.283094	130.600000
2928.558599	116.000000
2929.836972	119.200000
2931.110531	125.600000
2932.386957	92.100000
2933.661642	109.700000
2934.934586	128.500000
2936.208862	133.600000
2937.481398	116.600000
2938.753729	124.600000
2940.022788	135.600000
2941.294712	117.400000
2942.564898	111.200000
2943.834880	134.700000
2945.104659	104.100000
2946.372702	101.800000
2947.639008	126.300000
2948.905112	111.100000
2950.172547	131.900000
2951.438246	130.900000
2952.703744	119.300000
2953.969039	115.100000
2955.231069	123.200000
2956.494429	126.400000
2957.757588	119.000000
2959.019015	107.200000
2960.281771	115.600000
2961.542795	121.100000
2962.802089	106.800000
2964.061182	112.300000
2965.320076	115.600000
2966.578769	120.500000
2967.837261	125.700000
2969.094025	108.000000
2970.350590	101.500000
2971.605426	106.500000
2972.861592	104.200000
2974.114503	97.600000
2975.368742	128.100000
2976.622783	111.000000
2977.875098	121.400000
2979.127215	112.200000
2980.377607	100.900000
2981.630854	107.400000
2982.879324	119.800000
2984.130649	115.100000
2985.378724	107.600000
2986.626602	111.800000
2987.874284	106.100000
2989.121768	96.100000
2990.367531	111.500000
2991.613098	117.100000
2992.859992	110.800000
2994.103642	106.100000
2995.348619	106.700000
2996.590354	116.800000
2997.834940	104.500000
2999.077807	111.200000
3000.317433	114.900000
3001.559909	120.100000
3002.799145	110.700000
3004.039709	100.200000
3005.278556	106.100000
3006.517209	105.500000
3007.754146	103.200000
3008.992411	102.200000
3010.228960	122.100000
3011.465316	126.400000
3012.701478	106.300000
3013.935926	110.400000
3015.170181	106.900000
3016.404244	109.300000
3017.636593	103.400000
3018.867231	98.800000
3020.100715	120.600000
3021.332488	110.200000
3022.562549	114.500000
3023.792419	102.000000
3025.020579	112.700000
3026.250066	106.900000
3027.477843	109.600000
3028.705429	106.400000
3029.934341	97.000000
3031.158511	112.100000
3032.385524	110.700000
3033.609314	102.400000
3034.834429	115.900000
3036.057839	98.900000
3037.281058	108.300000
3038.502572	94.000000
3039.726927	107.800000
3040.946547	104.500000
3042.167493	101.000000
3043.388249	94.400000
3044.607303	102.700000
3045.827681	91.500000
3047.044843	103.800000
3048.263330	93.200000
3049.480116	108.000000
3050.696713	90.000000
3051.913123	100.200000
3053.126319	100.200000
3054.342353	111.100000
3055.555175	103.700000
3056.770834	117.800000
3057.981771	86.500000
3059.194032	102.400000
3060.406106	98.200000
3061.617994	97.900000
3062.828185	101.600000
3064.038189	81.200000
3065.248007	105.300000
3066.456129	96.000000
3067.664066	87.000000
3068.870307	111.300000
3070.077873	98.200000
3071.283744	95.450000
3072.489430	92.700000
3073.694932	101.900000
3074.898740	101.100000
3076.103872	96.200000
3077.307311	90.800000
3078.509059	101.900000
3079.710622	91.600000
3080.912002	98.800000
3082.113198	93.900000
3083.312704	91.700000
3084.512027	84.200000
3085.712673	84.200000
3086.911629	89.800000
3088.107391	106.500000
3089.305981	110.200000
3090.501378	89.900000
3091.698099	90.800000
3092.891627	116.900000
3094.087983	86.200000
3095.282652	92.100000
3096.474131	98.800000
3097.669942	79.000000
3098.861058	87.200000
3100.053498	98.200000
3101.242749	86.800000
3102.434827	113.400000
3103.625221	92.900000
3104.812429	107.300000
3106.000959	83.800000
3107.190812	98.900000
3108.377480	99.000000
3109.563969	75.000000
3110.750279	82.400000
3111.937910	88.600000
3113.122359	83.500000
3114.305129	96.200000
3115.490721	103.000000
3116.674634	88.600000
3117.856867	88.700000
3119.038923	73.000000
3120.220800	87.500000
3121.402499	86.000000
3122.582521	92.700000
3123.760866	89.300000
3124.942031	104.500000
3126.120021	103.500000
3127.297834	92.000000
3128.475470	84.500000
3129.651431	88.500000
3130.827216	102.400000
3132.004321	85.600000
3133.179753	81.700000
3134.353511	95.300000
3135.525596	81.100000
3136.699003	83.500000
3137.872233	78.700000
3139.043792	91.700000
3140.216671	109.100000
3141.386383	80.600000
3142.557416	92.400000
3143.726778	97.900000
3144.894471	99.700000
3146.064979	76.500000
3147.230829	81.000000
3148.400987	89.100000
3149.566488	97.100000
3150.731816	93.700000
3151.896970	87.700000
3153.061951	102.300000
3154.228251	96.500000
3155.389898	87.000000
3156.552866	94.300000
3157.715661	88.100000
3158.878283	105.300000
3160.039239	97.300000
3161.200024	67.000000
3162.360636	93.200000
3163.519584	87.700000
3164.678361	75.400000
3165.836965	81.300000
3166.995398	63.700000
3168.153660	72.000000
3169.310259	90.200000
3170.465197	88.800000
3171.621454	105.900000
3172.776050	81.400000
3173.930476	95.400000
3175.083242	82.300000
3176.235837	84.300000
3177.388263	76.300000
3178.540518	80.400000
3179.692604	100.500000
3180.841543	87.300000
3181.993289	96.900000
3183.143378	76.200000
3184.291810	85.800000
3185.440072	86.600000
3186.588166	84.800000
3187.736091	95.100000
3188.882360	98.700000
3190.028461	80.400000
3191.172908	85.600000
3192.317187	77.400000
3193.461297	91.500000
3194.606726	89.500000
3195.749016	86.000000
3196.891139	80.300000
3198.033094	78.300000
3199.174882	67.200000
3200.316503	95.100000
3201.454989	58.500000
3202.594792	90.200000
3203.735912	102.700000
3204.873899	99.500000
3206.010235	75.200000
3207.146407	73.800000
3208.283895	97.500000
3209.419735	105.800000
3210.556892	87.500000
3211.689436	83.300000
3212.826261	87.500000
3213.958476	104.800000
3215.092007	78.800000
3216.225373	70.600000
3217.355613	71.300000
3218.488650	87.800000
3219.618561	77.300000
3220.749788	75.100000
3221.877891	94.600000
3223.008790	106.100000
3224.138045	87.200000
3225.265657	85.900000
3226.390146	80.000000
3227.518911	106.100000
3228.644554	66.800000
3229.770034	104.900000
3230.893873	102.800000
3232.020507	95.800000
3233.142543	114.400000
3234.265895	96.100000
3235.389085	94.500000
3236.512112	112.100000
3237.633501	91.500000
3238.754727	119.800000
3239.874315	107.500000
3240.993742	97.800000
3242.111532	117.700000
3243.232113	106.700000
3244.349581	107.100000
3245.466888	107.100000
3246.584035	93.400000
3247.699545	100.500000
3248.816371	97.700000
3249.930087	102.600000
3251.046592	101.100000
3252.161462	108.800000
3253.273224	93.900000
3254.384827	87.800000
3255.497745	84.900000
3256.610503	80.100000
3257.720155	88.100000
3258.831122	81.600000
3259.941930	79.500000
3261.051106	90.400000
3262.158651	97.200000
3263.267511	101.600000
3264.376212	84.800000
3265.481811	68.600000
3266.588725	87.500000
3267.694009	89.100000
3268.800607	65.100000
3269.904105	86.500000
3271.008917	87.700000
3272.113572	71.300000
3273.215129	72.000000
3274.316529	78.500000
3275.419243	73.400000
3276.521801	78.600000
3277.621262	80.700000
3278.723507	91.200000
3279.822656	65.700000
3280.920180	96.100000
3282.017550	66.700000
3283.117701	74.800000
3284.214760	65.400000
3285.311663	86.400000
3286.408411	76.400000
3287.500600	74.600000
3288.597039	86.600000
3289.691855	82.300000
3290.786517	70.100000
3291.879556	77.400000
3292.972442	73.900000
3294.063707	71.100000
3295.156285	67.200000
3296.247243	71.100000
3297.336581	77.900000
3298.425766	69.500000
3299.516263	73.100000
3300.603677	67.100000
3301.690937	54.000000
3302.779510	81.700000
3303.867930	73.500000
3304.951804	77.500000
3306.039919	68.300000
3307.124952	83.000000
3308.208370	62.100000
3309.293100	105.600000
3310.376214	67.000000
3311.460641	71.100000
3312.541989	80.000000
3313.624649	84.000000
3314.705694	69.100000
3315.786589	89.500000
3316.865871	84.200000
3317.945002	78.500000
3319.025445	77.400000
3320.102813	60.700000
3321.181493	75.200000
3322.258561	70.600000
3323.335479	72.000000
3324.410787	59.100000
3325.485945	58.500000
3326.562414	79.700000
3327.635813	80.200000
3328.709062	91.400000
3329.783623	64.200000
3330.856575	64.000000
3331.927918	63.800000
3333.000572	54.000000
3334.070159	79.600000
3335.141058	68.500000
3336.210349	68.200000
3337.280950	87.300000
3338.349946	79.400000
3339.417335	58.000000
3340.483119	60.800000
3341.553129	55.300000
3342.620076	71.100000
3343.683961	52.800000
3344.750613	57.300000
3345.815662	47.100000
3346.879107	66.100000
3347.942406	65.000000
3349.005558	59.500000
3350.068564	64.200000
3351.131424	73.500000
3352.192681	46.200000
3353.250882	82.500000
3354.313304	71.300000
3355.372670	66.600000
3356.431890	79.900000
3357.492419	60.400000
3358.548440	71.000000
3359.607224	56.800000
3360.661501	86.800000
3361.718542	95.100000
3362.773984	67.100000
3363.830736	74.900000
3364.885889	78.600000
3365.939445	74.300000
3366.991404	76.300000
3368.046126	72.000000
3369.097798	72.500000
3370.149327	58.900000
3371.202164	60.600000
3372.251954	75.200000
3373.303053	69.400000
3374.351105	63.300000
3375.401918	73.200000
3376.449685	77.100000
3377.497310	59.700000
3378.544793	67.800000
3379.590683	49.900000
3380.637881	80.900000
3381.682037	52.700000
3382.728951	61.100000
3383.774273	68.100000
3384.816554	56.500000
3385.858694	77.600000
3386.902143	73.500000
3387.945450	57.000000
3388.987167	55.400000
3390.028744	58.500000
3391.070179	83.600000
3392.110026	53.100000
3393.148284	60.400000
3394.187850	62.700000
3395.227276	70.300000
3396.265114	62.000000
3397.301365	68.500000
3398.337477	67.100000
3399.374895	60.300000
3400.409281	66.300000
3401.444975	55.200000
3402.480529	64.100000
3403.513052	68.400000
3404.548327	67.000000
3405.580573	52.200000
3406.612680	79.500000
3407.643203	78.000000
3408.675033	60.600000
3409.706725	77.200000
3410.735389	73.600000
3411.763916	59.000000
3412.793749	53.700000
3413.823445	50.400000
3414.850115	78.200000
3415.878091	74.100000
3416.903044	57.200000
3417.930746	57.800000
3418.955424	65.700000
3419.981409	50.000000
3421.005815	60.700000
3422.030084	81.700000
3423.052774	68.900000
3424.075328	59.700000
3425.099188	57.500000
3426.120028	52.100000
3427.140732	71.900000
3428.162742	54.100000
3429.181734	70.400000
3430.200591	73.600000
3431.220754	64.500000
3432.237900	74.500000
