-117.018713	13.900000
-114.349113	-11.200000
-111.682448	8.300000
-109.016535	0.700000
-106.353555	-9.100000
-103.689144	4.300000
-101.027664	-7.100000
-98.364755	20.600000
-95.706952	12.700000
-93.047720	-4.400000
-90.389236	3.500000
-87.733677	0.100000
-85.076688	8.700000
-82.424798	7.100000
-79.771478	10.000000
-77.121077	-1.100000
-74.469248	3.400000
-71.822509	8.700000
-69.174340	-7.400000
-66.526914	13.500000
-63.882403	-15.100000
-61.236462	0.500000
-58.595603	-16.800000
-55.953315	-10.500000
-53.313936	4.800000
-50.673128	-0.400000
-48.033059	19.000000
-45.398064	10.800000
-42.761639	3.500000
-40.128117	20.900000
-37.493167	16.300000
-34.863283	17.700000
-32.229805	16.000000
-29.601390	14.600000
-26.973709	11.400000
-24.344599	40.000000
-21.720547	26.200000
-19.092904	43.600000
-16.470316	45.400000
-13.848458	68.900000
-11.227331	119.800000
-8.606935	300.500000
-5.989426	937.900000
-3.370489	2869.100000
-0.754438	9142.800000
1.860886	13612.400000
4.475481	7293.600000
7.087195	775.800000
9.700337	118.200000
12.308445	57.800000
14.920134	23.400000
17.526793	39.500000
20.134881	21.000000
22.742243	12.200000
25.344581	29.600000
27.950498	7.100000
30.551392	12.000000
33.153714	12.600000
35.751018	18.700000
38.351899	9.400000
40.947764	6.300000
43.545057	15.500000
46.141632	0.300000
48.733197	2.700000
51.326190	6.700000
53.916322	21.500000
56.507881	1.600000
59.096582	-14.900000
61.686709	7.600000
64.271837	17.200000
66.858393	12.700000
69.444235	6.000000
72.027222	-8.100000
74.611637	15.300000
77.188923	-3.700000
79.769775	24.200000
82.347778	12.800000
84.925070	7.500000
87.503790	22.900000
90.077527	1.200000
92.652691	10.100000
95.225012	15.800000
97.796626	20.800000
100.365399	-17.200000
102.935599	-2.800000
105.502960	1.400000
108.071748	-2.500000
110.637699	-0.200000
113.200815	2.200000
115.767487	13.200000
118.324937	30.400000
120.888073	26.000000
123.446250	31.300000
126.007981	60.800000
128.564755	74.600000
131.122955	123.000000
133.676203	182.400000
136.228753	291.900000
138.784853	377.200000
141.336005	484.200000
143.886460	625.800000
146.436217	717.200000
148.983155	817.500000
151.529398	827.300000
154.077066	862.100000
156.624038	861.700000
159.166075	857.300000
161.707418	869.400000
164.248068	818.400000
166.790144	825.400000
169.329408	839.300000
171.865863	832.500000
174.401628	858.500000
176.938818	836.000000
179.475317	818.400000
182.009010	806.200000
184.539899	819.100000
187.070100	807.500000
189.601727	809.500000
192.130552	812.100000
194.656578	826.700000
197.181918	803.400000
199.708683	806.000000
202.232652	792.200000
204.755936	809.400000
207.278534	778.900000
209.798340	798.800000
212.317463	788.200000
214.835903	799.700000
217.355768	788.900000
219.868630	804.600000
222.385024	827.700000
224.900737	851.800000
227.411559	854.300000
229.923806	899.800000
232.433270	885.900000
234.942056	886.600000
237.450164	877.900000
239.959696	880.600000
242.464347	889.500000
244.968322	890.800000
247.473721	869.800000
249.974245	857.500000
252.478292	842.500000
254.975369	876.800000
257.475969	870.300000
259.973797	866.100000
262.470952	866.100000
264.967434	849.700000
267.459053	849.800000
269.954192	846.900000
272.446564	872.100000
274.938266	864.700000
277.427205	866.800000
279.917567	920.400000
282.405168	913.900000
284.890009	890.800000
287.378365	917.300000
289.859781	892.200000
292.344711	924.700000
294.824796	953.200000
297.308393	979.900000
299.787147	1007.000000
302.267324	1031.200000
304.744750	1066.900000
307.221512	1013.700000
309.697610	986.300000
312.170960	973.600000
314.643649	938.300000
317.115676	952.900000
319.587041	972.300000
322.055663	946.100000
324.523625	943.500000
326.993010	914.600000
329.457572	869.400000
331.925638	858.100000
334.388883	839.000000
336.851472	818.400000
339.313404	819.500000
341.774679	793.300000
344.233219	774.400000
346.693183	766.500000
349.150413	753.000000
351.606989	757.100000
354.062911	748.000000
356.516103	751.600000
358.970718	756.500000
361.420531	753.900000
363.873840	754.200000
366.322350	736.100000
368.770210	702.100000
371.219492	684.400000
373.663979	680.400000
376.109890	669.600000
378.555150	680.100000
380.997692	666.100000
383.439586	688.400000
385.880832	652.800000
388.319364	668.700000
390.759316	670.000000
393.196555	668.100000
395.631083	647.500000
398.069097	648.700000
400.502336	638.400000
402.936995	650.600000
405.366882	650.300000
407.800254	635.000000
410.228856	653.200000
412.656816	632.900000
415.086198	615.900000
417.510814	612.500000
419.936852	609.600000
422.362249	604.300000
424.787006	601.000000
427.207004	584.000000
429.628424	605.700000
432.047148	591.400000
434.467292	592.700000
436.884741	583.300000
439.303610	565.700000
441.719785	569.300000
444.131214	568.000000
446.546119	537.800000
448.958335	520.400000
451.369916	531.400000
453.780863	488.900000
456.189123	475.600000
458.596752	466.200000
461.003748	475.500000
463.410113	467.600000
465.813795	449.900000
468.216847	480.500000
470.619269	459.200000
473.021061	466.300000
475.420175	476.900000
477.820709	464.900000
480.220614	500.300000
482.615797	512.000000
485.014446	514.900000
487.408374	532.100000
489.801677	546.300000
492.194355	608.700000
494.586407	610.100000
496.979877	660.300000
499.368635	790.000000
501.754727	929.700000
504.142239	1174.900000
506.529128	1565.300000
508.913352	2175.100000
511.298996	3128.800000
513.681978	4401.900000
516.062299	5689.800000
518.444039	6640.200000
520.823120	6502.400000
523.203619	5779.900000
525.581462	4816.400000
527.956648	4039.300000
530.331218	3351.900000
532.707205	2874.700000
535.080540	2473.700000
537.455292	2192.500000
539.825358	1968.600000
542.194810	1790.600000
544.565679	1638.200000
546.931867	1508.900000
549.299474	1409.400000
551.664435	1314.400000
554.028784	1276.800000
556.392519	1168.900000
558.757672	1176.100000
561.118153	1113.900000
563.480052	1109.500000
565.839310	1062.100000
568.195930	1029.700000
570.555996	986.900000
572.909370	955.700000
575.266189	921.400000
577.620373	921.000000
579.973948	864.600000
582.326916	832.000000
584.677251	855.200000
587.029004	824.400000
589.374080	797.700000
591.724619	760.300000
594.068486	779.200000
596.417814	744.100000
598.762493	727.200000
601.104548	727.200000
603.448020	704.700000
605.788869	698.300000
608.129115	737.400000
610.466741	728.900000
612.807802	786.800000
615.144226	802.200000
617.482066	797.700000
619.817289	780.000000
622.149895	769.900000
624.483919	757.000000
626.815328	715.000000
629.146139	692.900000
631.476352	665.600000
633.805968	668.400000
636.130960	657.900000
638.461394	680.200000
640.787207	660.800000
643.110412	646.300000
645.435034	635.300000
647.757050	640.400000
650.078472	609.000000
652.397291	645.400000
654.717527	600.500000
657.037169	618.500000
659.354210	600.500000
661.670659	594.400000
663.984510	613.800000
666.299777	600.800000
668.612447	635.300000
670.926532	591.000000
673.236017	615.400000
675.546918	611.700000
677.855226	610.900000
680.162946	606.000000
682.472080	600.300000
684.776622	603.200000
687.080578	569.900000
689.383948	568.000000
691.688732	556.900000
693.988929	537.800000
696.290542	523.000000
698.591569	529.400000
700.888015	519.600000
703.185876	503.300000
705.483153	490.200000
707.779847	508.500000
710.071965	505.400000
712.367494	483.900000
714.658449	508.000000
716.950819	470.700000
719.240614	469.000000
721.529828	468.400000
723.818463	492.700000
726.104525	473.400000
728.392002	503.000000
730.676907	481.800000
732.961235	486.300000
735.242994	464.900000
737.526167	468.200000
739.808763	484.300000
742.086803	462.000000
744.366257	458.700000
746.645136	459.300000
748.923440	474.500000
751.197193	476.700000
753.472361	451.100000
755.746955	438.500000
758.018990	467.300000
760.292438	449.000000
762.563328	449.700000
764.831662	456.000000
767.101409	454.500000
769.368601	448.400000
771.635224	453.800000
773.901276	474.100000
776.164777	470.000000
778.429691	467.300000
780.694035	462.700000
782.953850	481.200000
785.215077	471.100000
787.475737	484.300000
789.733851	488.000000
791.989420	481.200000
794.248379	475.100000
796.500840	477.300000
798.758668	478.500000
801.011977	490.700000
803.262746	489.800000
805.514927	460.900000
807.764569	486.000000
810.015623	464.400000
812.262167	479.200000
814.510122	461.600000
816.755543	486.500000
819.002375	461.600000
821.248646	478.000000
823.490412	466.300000
825.735562	451.800000
827.974239	450.200000
830.216298	459.800000
832.453859	466.900000
834.692832	469.200000
836.929278	473.100000
839.167135	460.200000
841.402467	463.600000
843.635276	476.200000
845.869495	445.200000
848.101193	453.500000
850.332336	453.100000
852.562924	448.300000
854.792958	447.100000
857.022438	446.300000
859.247436	455.500000
861.475808	445.300000
863.699702	442.500000
865.925007	430.500000
868.145836	436.500000
870.370037	417.600000
872.589765	431.300000
874.810903	451.600000
877.031491	450.900000
879.249570	433.900000
881.469058	443.400000
883.684080	443.600000
885.898554	455.200000
888.112481	433.300000
890.325861	434.100000
892.538693	404.700000
894.750978	412.100000
896.960762	424.300000
899.170000	449.400000
901.378693	420.900000
903.584886	434.500000
905.792489	444.000000
907.997595	435.300000
910.202157	440.000000
912.404224	467.100000
914.607700	481.000000
916.808682	467.500000
919.009122	508.700000
921.210971	497.300000
923.406429	519.700000
925.605245	557.000000
927.799624	633.200000
929.997360	663.300000
932.190660	749.900000
934.385369	816.000000
936.577591	890.900000
938.769276	926.800000
940.960423	982.500000
943.149087	1019.100000
945.337215	1007.200000
947.522861	1002.400000
949.711861	1014.200000
951.896437	1011.700000
954.080478	971.200000
956.267869	992.500000
958.446956	981.300000
960.629394	1013.600000
962.811298	1017.300000
964.990727	988.800000
967.167684	1007.800000
969.346049	1021.600000
971.525821	1018.200000
973.699244	1040.800000
975.876013	1037.100000
978.048375	1034.500000
980.222145	1033.700000
982.391511	990.300000
984.564221	964.800000
986.734466	871.600000
988.904181	805.100000
991.073368	751.700000
993.238158	671.400000
995.406290	650.800000
997.570026	615.700000
999.735170	570.400000
1001.897854	572.600000
1004.060013	567.600000
1006.219715	548.000000
1008.378892	526.100000
1010.539476	536.200000
1012.697605	516.400000
1014.855211	517.400000
1017.012293	488.200000
1019.168851	476.600000
1021.321030	479.100000
1023.474616	429.700000
1025.627680	460.200000
1027.778295	443.500000
1029.930316	457.700000
1032.077965	418.900000
1034.228945	423.600000
1036.375554	407.200000
1038.521644	419.000000
1040.667216	402.000000
1042.814193	408.400000
1044.954881	413.600000
1047.098898	413.500000
1049.240476	409.600000
1051.381536	396.800000
1053.524002	411.200000
1055.660187	405.400000
1057.799699	406.600000
1059.934855	415.500000
1062.073336	404.100000
1064.207464	402.500000
1066.341078	401.000000
1068.476096	397.400000
1070.606766	397.300000
1072.738840	398.100000
1074.868485	387.000000
1076.997617	387.700000
1079.126239	372.700000
1081.254349	383.400000
1083.380033	378.300000
1085.505207	376.200000
1087.631785	379.600000
1089.754025	389.100000
1091.877670	390.600000
1093.996980	369.600000
1096.121519	381.400000
1098.239814	362.100000
1100.359512	382.700000
1102.476793	360.300000
1104.593566	393.200000
1106.709833	380.000000
1108.823685	376.100000
1110.938940	350.200000
1113.049873	347.500000
1115.164118	367.600000
1117.274042	369.400000
1119.385370	369.000000
1121.496193	335.400000
1123.602700	359.100000
1125.712516	359.600000
1127.818019	343.100000
1129.924924	359.800000
1132.025614	355.200000
1134.131516	344.000000
1136.233109	353.100000
1138.336105	345.400000
1140.438600	348.100000
1142.534888	319.300000
1144.636383	335.800000
1146.733576	331.700000
1148.830271	322.800000
1150.926467	332.100000
1153.022165	325.200000
1155.117366	332.800000
1157.210170	328.500000
1159.304376	347.700000
1161.392391	364.200000
1163.485604	322.200000
1165.572630	342.400000
1167.662954	326.800000
1169.748990	328.600000
1171.838324	341.000000
1173.921477	352.800000
1176.006033	358.300000
1178.091990	336.700000
1180.173665	354.900000
1182.256741	338.600000
1184.337432	335.000000
1186.417632	343.800000
1188.497340	354.600000
1190.576557	348.100000
1192.653391	346.600000
1194.727845	339.400000
1196.805591	333.500000
1198.879066	325.200000
1200.953943	352.400000
1203.024552	361.700000
1205.096562	317.700000
1207.166196	330.100000
1209.237231	323.100000
1211.307779	334.400000
1213.374065	350.800000
1215.441752	318.100000
1217.507066	299.400000
1219.573781	338.300000
1221.636241	326.700000
1223.701985	321.200000
1225.763475	333.900000
1227.826366	330.600000
1229.886888	346.100000
1231.946928	323.400000
1234.006484	338.200000
1236.063676	332.800000
1238.120385	333.400000
1240.174732	330.700000
1242.232360	344.400000
1244.287624	354.300000
1246.338649	339.400000
1248.391073	352.900000
1250.443017	364.300000
1252.492603	330.800000
1254.541710	342.800000
1256.590338	351.800000
1258.638488	355.300000
1260.686160	338.700000
1262.729601	377.200000
1264.776318	363.400000
1266.820681	366.400000
1268.864568	363.300000
1270.906103	354.800000
1272.945289	350.200000
1274.987748	348.900000
1277.025984	364.400000
1279.065619	371.600000
1281.104778	360.200000
1283.139720	331.600000
1285.176060	362.200000
1287.210056	355.400000
1289.245449	349.200000
1291.276629	360.700000
1293.309208	355.800000
1295.341315	356.400000
1297.371081	341.500000
1299.402244	338.900000
1301.429200	358.000000
1303.457555	321.700000
1305.481704	345.400000
1307.509119	357.000000
1309.532331	355.200000
1311.556941	338.500000
1313.579216	328.600000
1315.602889	346.600000
1317.624229	345.100000
1319.645102	349.400000
1321.665507	357.300000
1323.681719	350.200000
1325.699328	343.800000
1327.714609	366.600000
1329.733149	353.300000
1331.747499	382.800000
1333.759524	375.500000
1335.774807	377.500000
1337.785904	383.300000
1339.798397	389.200000
1341.806708	413.300000
1343.818275	409.500000
1345.823803	431.300000
1347.832586	420.800000
1349.837191	419.600000
1351.845050	409.200000
1353.852447	427.200000
1355.853813	403.900000
1357.856575	372.500000
1359.858878	404.200000
1361.860721	379.500000
1363.862104	398.800000
1365.861173	373.400000
1367.859785	370.700000
1369.857937	362.100000
1371.855632	349.300000
1373.849164	355.400000
1375.844091	374.800000
1377.838562	362.000000
1379.832576	352.000000
1381.824283	364.000000
1383.815534	337.700000
1385.804480	356.500000
1387.794821	363.600000
1389.784708	314.000000
1391.772290	328.900000
1393.759419	329.000000
1395.744246	330.300000
1397.730468	328.300000
1399.714389	334.700000
1401.697858	337.200000
1403.680875	313.600000
1405.661594	343.700000
1407.643707	343.300000
1409.623523	329.900000
1411.602889	331.400000
1413.578116	340.800000
1415.556581	342.700000
1417.532753	335.400000
1419.508475	328.300000
1421.483749	308.200000
1423.456731	332.200000
1425.429265	323.300000
1427.401351	308.100000
1429.372990	311.800000
1431.340500	325.600000
1433.313084	331.000000
1435.277862	324.400000
1437.247713	331.700000
1439.213439	310.900000
1441.180559	315.100000
1443.145395	328.100000
1445.106111	337.400000
1447.071895	325.700000
1449.031724	348.100000
1450.992947	340.900000
1452.955561	344.000000
1454.914061	347.900000
1456.872119	360.200000
1458.829735	348.600000
1460.786908	353.900000
1462.741806	353.100000
1464.698097	375.800000
1466.652113	340.000000
1468.605688	332.300000
1470.556991	326.300000
1472.509686	374.500000
1474.460110	358.300000
1476.410095	335.000000
1478.359641	331.400000
1480.306918	332.800000
1482.251927	332.100000
1484.198329	322.600000
1486.144293	335.600000
1488.089820	320.000000
1490.033081	310.400000
1491.975906	315.900000
1493.916468	317.300000
1495.858422	335.800000
1497.798113	309.800000
1499.737369	310.000000
1501.676191	325.200000
1503.612753	328.700000
1505.550706	343.300000
1507.486400	320.500000
1509.421661	351.700000
1511.354665	311.900000
1513.287237	327.100000
1515.219377	348.400000
1517.151085	331.200000
1519.080540	355.400000
1521.011385	335.900000
1522.941798	346.200000
1524.868139	359.700000
1526.795870	368.300000
1528.721352	366.600000
1530.646404	369.600000
1532.571027	375.400000
1534.495220	354.400000
1536.417167	383.300000
1538.340504	388.500000
1540.261594	386.500000
1542.180440	402.800000
1544.100676	399.800000
1546.018668	421.800000
1547.936234	428.700000
1549.851559	445.800000
1551.768273	440.600000
1553.680932	486.300000
1555.596794	506.200000
1557.510418	518.000000
1559.421803	557.900000
1561.334578	603.600000
1563.243303	650.900000
1565.153417	719.300000
1567.063108	803.900000
1568.972376	932.700000
1570.879409	1088.800000
1572.784210	1222.800000
1574.690400	1403.900000
1576.594359	1594.300000
1578.497896	1714.500000
1580.401013	1721.600000
1582.301900	1717.100000
1584.204176	1594.400000
1586.104223	1407.300000
1588.005659	1224.000000
1589.903061	1061.300000
1591.800044	902.500000
1593.696609	784.800000
1595.594561	712.300000
1597.486679	607.600000
1599.381991	566.500000
1601.276885	541.800000
1603.169557	504.500000
1605.061812	477.900000
1606.951848	466.100000
1608.841468	457.500000
1610.730673	449.700000
1612.619462	431.700000
1614.506035	454.000000
1616.393995	444.800000
1618.277938	427.800000
1620.163268	448.100000
1622.048185	416.400000
1623.930888	418.200000
1625.814978	395.600000
1627.695056	357.100000
1629.576522	359.600000
1631.455776	342.300000
1633.336418	305.300000
1635.211255	307.600000
1637.091073	290.300000
1638.966887	312.100000
1640.842290	314.400000
1642.719079	285.300000
1644.590071	293.000000
1646.464246	300.800000
1648.334421	298.600000
1650.207777	276.200000
1652.078930	283.700000
1653.947881	260.600000
1655.818218	274.000000
1657.684562	261.300000
1659.552291	246.800000
1661.417821	261.500000
1663.284737	258.900000
1665.147663	245.200000
1667.011976	263.000000
1668.874092	272.100000
1670.735803	248.100000
1672.598899	255.100000
1674.459801	252.900000
1676.318510	251.000000
1678.176815	234.900000
1680.036504	259.400000
1681.890427	227.900000
1683.747523	240.800000
1685.604215	252.400000
1687.456932	245.400000
1689.312820	250.600000
1691.164734	237.400000
1693.016247	232.200000
1694.867359	232.200000
1696.718070	238.900000
1698.568381	215.400000
1700.416508	218.700000
1702.266019	240.300000
1704.109780	222.900000
1705.958492	227.400000
1707.801457	220.200000
1709.647588	227.400000
1711.489758	220.000000
1713.335093	206.900000
1715.174687	213.300000
1717.015665	214.300000
1718.858026	204.900000
1720.696430	229.500000
1722.536218	239.200000
1724.373831	232.700000
1726.211049	227.900000
1728.046093	227.900000
1729.882520	235.300000
1731.716774	204.600000
1733.550635	218.500000
1735.384101	230.600000
1737.213621	225.600000
1739.046301	234.600000
1740.875035	212.400000
1742.706928	228.600000
1744.534878	237.000000
1746.362436	204.100000
1748.189603	228.800000
1750.016378	209.900000
1751.842761	208.900000
1753.665208	225.100000
1755.490810	213.600000
1757.312477	224.100000
1759.135525	227.500000
1760.956413	223.000000
1762.776912	221.000000
1764.598791	221.000000
1766.414971	228.300000
1768.234303	231.900000
1770.049708	214.300000
1771.868264	221.500000
1773.682894	236.700000
1775.497137	212.100000
1777.310994	208.100000
1779.124464	247.700000
1780.935780	228.100000
1782.748478	210.200000
1784.560790	232.700000
1786.369183	228.100000
1788.178958	221.300000
1789.984818	204.900000
1791.793823	222.300000
1793.598915	224.300000
1795.405388	216.800000
1797.211476	210.000000
1799.013655	211.100000
1800.818978	221.600000
1802.620391	195.000000
1804.423186	204.100000
1806.222074	224.200000
1808.022343	207.300000
1809.822230	209.200000
1811.619975	224.400000
1813.417340	204.700000
1815.214324	207.600000
1817.010929	211.500000
1818.805393	224.200000
1820.601238	225.500000
1822.391427	222.100000
1824.186513	230.100000
1825.975946	217.600000
1827.768517	226.200000
1829.558952	212.800000
1831.347252	213.500000
1833.138688	212.800000
1834.924479	231.400000
1836.711649	218.900000
1838.496687	211.700000
1840.284858	219.800000
1842.069145	211.300000
1843.851301	221.600000
1845.634837	221.900000
1847.416244	225.900000
1849.199029	224.200000
1850.977935	201.400000
1852.758219	225.700000
1854.536378	222.200000
1856.315914	205.600000
1858.093326	218.100000
1859.868615	214.000000
1861.645281	196.400000
1863.419825	207.000000
1865.195746	215.100000
1866.966048	214.600000
1868.739477	220.100000
1870.510786	221.600000
1872.281724	222.200000
1874.054040	239.900000
1875.820742	219.000000
1877.590569	211.600000
1879.356533	231.800000
1881.125621	234.100000
1882.890847	225.100000
1884.655705	220.400000
1886.421939	208.200000
1888.184316	222.500000
1889.946324	202.500000
1891.707966	206.900000
1893.469240	215.200000
1895.230148	235.500000
1896.990688	192.200000
1898.749120	220.500000
1900.507185	208.000000
1902.263143	217.600000
1904.020477	219.300000
1905.777446	208.700000
1907.532308	200.900000
1909.285066	205.800000
1911.037459	208.400000
1912.791229	189.100000
1914.542895	191.600000
1916.292458	201.500000
1918.043398	186.300000
1919.793974	209.000000
1921.540712	207.300000
1923.288825	199.700000
1925.034840	197.100000
1926.782229	203.500000
1928.527520	191.300000
1930.270715	207.600000
1932.015284	197.300000
1933.757757	191.300000
1935.499871	204.700000
1937.241624	197.000000
1938.983017	208.500000
1940.722317	207.500000
1942.461258	197.400000
1944.199840	210.000000
1945.936331	211.900000
1947.672463	202.700000
1949.409971	193.500000
1951.143656	221.700000
1952.878716	192.600000
1954.611687	200.800000
1956.344302	189.600000
1958.076560	188.300000
1959.808462	180.800000
1961.538279	193.700000
1963.266010	198.500000
1964.995116	201.900000
1966.723866	197.000000
1968.450533	196.200000
1970.176846	190.600000
1971.904533	186.100000
1973.626683	201.500000
1975.351934	210.400000
1977.073378	174.800000
1978.797922	190.300000
1980.520387	176.000000
1982.239048	186.800000
1983.960809	199.000000
1985.678767	196.900000
1987.398098	194.300000
1989.113630	195.700000
1990.833982	176.800000
1992.550536	191.600000
1994.263293	194.700000
1995.979146	198.400000
1997.692927	195.600000
1999.406358	194.400000
2001.117718	199.200000
2002.830450	208.800000
2004.539392	185.900000
2006.251426	222.000000
2007.957951	194.900000
2009.667569	191.600000
2011.375119	193.700000
2013.082322	199.100000
2014.787459	228.700000
2016.492250	215.500000
2018.198412	215.400000
2019.900791	207.500000
2021.604543	218.700000
2023.306232	193.800000
2025.007575	204.900000
2026.708574	204.400000
2028.407511	186.100000
2030.107820	179.400000
2031.804353	178.000000
2033.502258	196.500000
2035.198105	199.400000
2036.897037	192.000000
2038.590483	202.400000
2040.285300	177.700000
2041.979774	182.300000
2043.670481	187.900000
2045.364270	187.100000
2047.054294	201.000000
2048.745688	176.500000
2050.435028	191.700000
2052.125740	194.900000
2053.812688	189.700000
2055.499296	187.300000
2057.187275	198.100000
2058.871494	171.000000
2060.557083	195.300000
2062.242333	196.400000
2063.925535	182.400000
2065.610107	185.300000
2067.289215	172.200000
2068.973110	191.200000
2070.651543	205.900000
2072.333054	188.400000
2074.010813	195.100000
2075.688236	182.900000
2077.367028	190.600000
2079.043777	171.700000
2080.718485	197.400000
2082.394563	175.200000
2084.068599	190.600000
2085.742301	167.200000
2087.415667	177.500000
2089.086994	168.500000
2090.757987	182.700000
2092.428646	202.400000
2094.098971	177.900000
2095.768962	175.700000
2097.436917	180.700000
2099.104538	188.500000
2100.770126	186.900000
2102.437082	185.600000
2104.102005	166.900000
2105.766596	181.000000
2107.429155	170.700000
2109.093082	174.800000
2110.754978	179.200000
2112.416544	181.200000
2114.077778	151.100000
2115.736983	202.400000
2117.395859	174.800000
2119.054405	180.400000
2120.712620	181.200000
2122.367113	174.600000
2124.024670	180.000000
2125.681897	177.100000
2127.335404	175.400000
2128.990278	173.500000
2130.641433	178.700000
2132.295651	179.800000
2133.946151	160.000000
2135.598019	173.400000
2137.244478	163.500000
2138.895691	161.500000
2140.543192	181.700000
2142.192059	158.100000
2143.838907	157.800000
2145.485430	165.700000
2147.131627	166.100000
2148.774116	177.700000
2150.419662	180.400000
2152.061502	175.800000
2153.706399	160.500000
2155.347591	173.700000
2156.988459	174.500000
2158.629004	196.400000
2160.267536	186.700000
2161.907434	174.500000
2163.543632	189.900000
2165.181196	171.900000
2166.818438	197.700000
2168.453670	189.200000
2170.088580	170.400000
2171.723169	181.500000
2173.357437	194.000000
2174.988011	194.900000
2176.621637	165.600000
2178.251571	169.200000
2179.882870	179.400000
2181.512164	165.000000
2183.141139	176.900000
2184.769794	170.900000
2186.398130	173.400000
2188.024463	155.500000
2189.650478	183.500000
2191.274492	149.100000
2192.899871	180.000000
2194.523249	181.100000
2196.147992	166.900000
2197.769054	184.800000
2199.389799	198.800000
2201.011908	176.600000
2202.632020	177.500000
2204.250136	181.100000
2205.867936	191.400000
2207.485420	185.600000
2209.102590	173.700000
2210.719443	179.300000
2212.335982	168.600000
2213.950528	171.600000
2215.563081	198.800000
2217.176998	157.800000
2218.788924	169.600000
2220.402213	168.900000
2222.013512	169.500000
2223.622821	189.800000
2225.233493	195.900000
2226.842177	180.500000
2228.450549	191.000000
2230.056934	159.000000
2231.664681	174.500000
2233.270443	183.400000
2234.875893	159.000000
2236.479358	183.500000
2238.084186	144.600000
2239.687030	183.100000
2241.287891	189.300000
2242.890115	172.300000
2244.490357	193.500000
2246.091961	166.700000
2247.689912	172.100000
2249.289226	179.100000
2250.886560	186.400000
2252.483586	172.000000
2254.081973	185.500000
2255.676713	185.100000
2257.269475	176.600000
2258.863600	174.000000
2260.459086	181.500000
2262.050927	179.000000
2263.642462	186.700000
2265.235359	181.500000
2266.822946	155.900000
2268.415229	184.400000
2270.002205	180.500000
2271.592210	189.600000
2273.176910	179.300000
2274.766304	182.700000
2276.350395	165.100000
2277.935848	173.500000
2279.519332	185.300000
2281.105841	175.000000
2282.688717	164.100000
2284.271290	167.200000
2285.853559	165.600000
2287.432198	150.500000
2289.013862	179.100000
2290.591897	159.900000
2292.172955	163.900000
2293.750386	163.700000
2295.325854	163.500000
2296.904344	151.400000
2298.479210	159.000000
2300.053775	153.200000
2301.628039	172.000000
2303.202003	176.500000
2304.775667	174.900000
2306.349031	164.500000
2307.918776	176.800000
2309.488222	171.600000
2311.060686	177.200000
2312.627876	161.200000
2314.198083	170.300000
2315.764677	187.100000
2317.332629	148.100000
2318.898627	151.300000
2320.464327	164.700000
2322.029729	176.600000
2323.593178	185.000000
2325.157986	173.900000
2326.719186	160.100000
2328.283399	168.800000
2329.842352	185.500000
2331.404318	174.700000
2332.964334	163.600000
2334.524054	169.300000
2336.081826	176.500000
2337.639302	167.700000
2339.196484	159.800000
2340.751718	165.700000
2342.306659	161.800000
2343.861305	150.900000
2345.415658	187.000000
2346.969717	186.800000
2348.523483	178.400000
2350.075304	169.900000
2351.625182	190.400000
2353.178069	176.200000
2354.725712	179.100000
2356.276364	157.500000
2357.823424	164.400000
2359.371842	161.200000
2360.919969	174.800000
2362.464507	164.400000
2364.010403	177.500000
2365.554361	158.400000
2367.099675	161.300000
2368.641405	167.800000
2370.184493	163.300000
2371.725644	170.700000
2373.266506	163.200000
2374.807079	165.200000
2376.347363	169.800000
2377.887358	163.300000
2379.423774	166.200000
2380.963192	160.400000
2382.499033	171.600000
2384.036231	167.300000
2385.569853	162.700000
2387.106475	172.400000
2388.641167	167.100000
2390.173929	173.100000
2391.706404	181.500000
2393.236951	159.500000
2394.770496	165.000000
2396.298830	191.200000
2397.828520	172.600000
2399.357925	162.400000
2400.887045	173.600000
2402.415879	186.900000
2403.939509	183.400000
2405.467774	169.600000
2406.990837	202.900000
2408.518533	183.900000
2410.039390	178.800000
2411.564879	167.900000
2413.086809	191.500000
2414.610093	179.000000
2416.131457	204.400000
2417.650901	175.900000
2419.171700	195.200000
2420.690580	191.200000
2422.209179	196.900000
2423.725859	189.200000
2425.243895	196.800000
2426.761649	198.200000
2428.275851	211.400000
2429.789774	195.700000
2431.303416	216.600000
2432.818412	202.200000
2434.329861	214.300000
2435.842663	230.900000
2437.353553	231.900000
2438.864164	212.400000
2440.372863	229.700000
2441.884548	243.500000
2443.392690	243.100000
2444.900554	259.000000
2446.408139	272.300000
2447.912185	243.000000
2449.419215	246.200000
2450.924337	261.600000
2452.429182	249.100000
2453.932120	273.400000
2455.434782	251.900000
2456.937167	242.200000
2458.437647	244.500000
2459.939480	233.700000
2461.439408	256.700000
2462.939061	234.900000
2464.438439	238.100000
2465.935914	235.600000
2467.431487	221.700000
2468.930040	209.900000
2470.425065	205.800000
2471.921442	207.100000
2473.414293	224.500000
2474.908497	213.000000
2476.402427	209.400000
2477.892833	210.700000
2479.386217	188.500000
2480.877703	199.500000
2482.367292	202.300000
2483.856609	195.300000
2485.344030	201.800000
2486.834427	213.000000
2488.321306	190.000000
2489.809536	194.700000
2491.294249	185.000000
2492.778692	181.200000
2494.264487	182.200000
2495.748390	178.600000
2497.233643	198.500000
2498.713763	178.500000
2500.196856	180.500000
2501.678058	185.000000
2503.158991	191.100000
2504.638035	171.600000
2506.116810	183.300000
2507.595317	165.800000
2509.073555	166.400000
2510.551526	161.800000
2512.025991	182.600000
2513.503426	172.100000
2514.977356	170.300000
2516.452638	175.200000
2517.927652	171.200000
2519.399165	173.700000
2520.872029	166.800000
2522.343010	183.900000
2523.815341	184.500000
2525.282558	162.600000
2526.752742	163.200000
2528.221045	177.000000
2529.689083	176.600000
2531.156855	172.500000
2532.624363	166.200000
2534.091607	165.300000
2535.555358	176.100000
2537.020459	170.100000
2538.483683	173.400000
2539.948256	181.100000
2541.409341	170.100000
2542.871775	187.900000
2544.333946	189.700000
2545.792630	170.900000
2547.255887	178.800000
2548.714047	162.800000
2550.173557	191.600000
2551.627972	171.400000
2553.086958	207.700000
2554.544072	189.100000
2555.999314	199.300000
2557.454296	192.400000
2558.907408	219.400000
2560.361869	164.100000
2561.814461	170.300000
2563.266793	167.100000
2564.717257	185.500000
2566.170678	173.900000
2567.619016	171.900000
2569.070309	195.900000
2570.519737	187.000000
2571.965692	184.200000
2573.414602	186.700000
2574.860042	171.100000
2576.306829	189.300000
2577.751753	193.000000
2579.196420	181.400000
2580.642434	199.300000
2582.084982	198.600000
2583.528876	189.600000
2584.969306	177.600000
2586.411084	194.500000
2587.851002	194.800000
2589.292267	181.700000
2590.730070	185.400000
2592.170823	192.200000
2593.606514	190.400000
2595.045153	198.100000
2596.481936	218.700000
2597.916863	190.800000
2599.354737	206.500000
2600.787554	207.200000
2602.221718	206.400000
2603.654028	200.900000
2605.087684	192.100000
2606.519487	187.700000
2607.951036	198.600000
2609.382332	217.700000
2610.811777	220.400000
2612.240969	181.600000
2613.668310	217.700000
2615.096998	225.600000
2616.525433	210.800000
2617.950422	210.900000
2619.376756	245.900000
2620.801243	245.100000
2622.227075	254.200000
2623.649463	238.400000
2625.073196	248.200000
2626.495084	243.700000
2627.916721	259.600000
2629.336514	259.000000
2630.757652	278.100000
2632.178540	273.700000
2633.595989	287.300000
2635.016378	302.600000
2636.433330	311.200000
2637.850034	315.500000
2639.266489	310.800000
2640.682696	328.600000
2642.098655	356.200000
2643.512773	361.000000
2644.926643	392.900000
2646.338674	379.000000
2647.752050	415.500000
2649.161996	429.800000
2650.574878	426.000000
2651.984331	457.100000
2653.393538	491.000000
2654.800909	516.100000
2656.211214	580.200000
2657.619683	597.700000
2659.026318	617.900000
2660.432707	636.400000
2661.837262	691.900000
2663.243161	732.900000
2664.647227	824.200000
2666.051048	849.500000
2667.454625	897.600000
2668.856371	986.000000
2670.259460	1081.300000
2671.659131	1147.000000
2673.060146	1232.200000
2674.457745	1321.200000
2675.858273	1392.400000
2677.255387	1477.600000
2678.653844	1501.400000
2680.050474	1585.300000
2681.446861	1638.900000
2682.843006	1705.200000
2684.237325	1684.300000
2685.632987	1700.700000
2687.025240	1722.800000
2688.418835	1685.100000
2689.810606	1647.700000
2691.203720	1534.600000
2692.595010	1456.300000
2693.984477	1408.600000
2695.373704	1287.700000
2696.762692	1229.800000
2698.153021	1116.400000
2699.538367	1029.000000
2700.926636	967.100000
2702.313085	885.400000
2703.699295	813.700000
2705.085266	769.500000
2706.467839	726.700000
2707.851754	658.800000
2709.235430	608.900000
2710.618869	602.500000
2711.998912	521.600000
2713.380297	485.600000
2714.759867	470.900000
2716.140777	427.600000
2717.519873	434.500000
2718.897155	416.400000
2720.275778	383.100000
2721.652587	373.600000
2723.029161	368.500000
2724.405499	322.900000
2725.780025	323.800000
2727.155892	331.700000
2728.528373	295.700000
2729.903769	288.900000
2731.274205	269.200000
2732.645981	274.600000
2734.017524	278.200000
2735.387258	247.600000
2736.758332	250.600000
2738.127599	228.900000
2739.496632	228.700000
2740.863859	227.200000
2742.230852	223.900000
2743.597613	225.100000
2744.964141	217.100000
2746.328865	205.000000
2747.693356	195.800000
2749.057616	213.900000
2750.421643	201.600000
2751.785438	183.900000
2753.145861	177.600000
2754.509193	196.400000
2755.867583	186.100000
2757.228883	166.400000
2758.586813	190.300000
2759.947651	174.900000
2761.306689	194.600000
2762.662360	165.700000
2764.020938	167.200000
2765.376149	157.800000
2766.731131	172.700000
2768.084316	179.900000
2769.440408	196.400000
2770.793136	179.600000
2772.145636	173.900000
2773.497907	165.200000
2774.851516	164.000000
2776.201765	168.700000
2777.550219	186.600000
2778.901578	172.800000
2780.249579	177.500000
2781.598917	161.900000
2782.946463	161.400000
2784.293783	166.800000
2785.640875	163.100000
2786.986177	179.600000
2788.331253	157.600000
2789.676103	157.200000
2791.020727	154.700000
2792.361999	158.200000
2793.704608	162.800000
2795.046993	155.000000
2796.389152	167.100000
2797.727962	165.700000
2799.069672	163.100000
2800.408033	163.900000
2801.747732	169.500000
2803.085646	140.000000
2804.421774	155.900000
2805.757680	173.600000
2807.094923	158.700000
2808.430382	152.400000
2809.765617	168.700000
2811.099071	145.900000
2812.433861	147.100000
2813.765311	163.100000
2815.099656	154.700000
2816.429102	149.000000
2817.759886	157.700000
2819.090449	136.900000
2820.419232	142.000000
2821.749351	147.200000
2823.077692	153.300000
2824.405812	147.700000
2825.732154	149.400000
2827.059832	137.900000
2828.384178	151.200000
2829.709860	122.000000
2831.033766	154.500000
2832.357452	142.500000
2833.682474	136.100000
2835.004167	129.100000
2836.325641	151.800000
2837.646895	129.300000
2838.967932	139.000000
2840.287195	132.800000
2841.607794	146.600000
2842.926621	145.200000
2844.245231	134.500000
2845.562069	134.300000
2846.878690	125.700000
2848.195094	136.000000
2849.509728	123.900000
2850.825697	135.300000
2852.138347	138.500000
2853.452331	125.700000
2854.766099	142.500000
2856.079650	149.000000
2857.391435	149.200000
2858.701453	130.200000
2860.012806	126.300000
2861.320844	143.700000
2862.630216	130.400000
2863.939373	139.800000
2865.248316	119.000000
2866.555494	131.400000
2867.860910	121.400000
2869.167659	132.000000
2870.472647	147.800000
2871.777420	144.800000
2873.080433	121.800000
2874.386326	130.500000
2875.687365	147.200000
2876.989737	118.300000
2878.290351	126.100000
2879.592297	143.800000
2880.894031	123.400000
2882.192461	134.200000
2883.492224	124.100000
2884.790230	131.900000
2886.088024	119.400000
2887.384062	114.100000
2888.681432	121.600000
2889.977048	128.100000
2891.272452	116.900000
2892.567645	116.700000
2893.859541	126.200000
2895.154312	130.000000
2896.445788	119.700000
2897.738596	135.200000
2899.031194	128.100000
2900.320497	128.800000
2901.611134	132.700000
2902.900019	124.100000
2904.190236	119.900000
2905.477162	134.500000
2906.765420	143.300000
2908.051929	140.000000
2909.338229	139.600000
2910.624321	144.500000
2911.908665	151.600000
2913.195881	128.900000
2914.478270	116.700000
2915.761991	127.200000
2917.043965	137.200000
2918.325733	126.700000
2919.605755	134.100000
2920.888648	133.900000
2922.169794	131.400000
2923.447659	110.700000
2924.728393	128.900000
2926.005847	135.000000
2927.283094	133.400000
2928.558599	120.300000
2929.836972	118.800000
2931.110531	96.000000
2932.386957	117.600000
2933.661642	131.800000
2934.934586	127.300000
2936.208862	136.100000
2937.481398	130.800000
2938.753729	120.200000
2940.022788	121.300000
2941.294712	129.500000
2942.564898	123.100000
2943.834880	105.600000
2945.104659	136.600000
2946.372702	131.600000
2947.639008	126.000000
2948.905112	124.100000
2950.172547	123.200000
2951.438246	123.600000
2952.703744	144.300000
2953.969039	123.200000
2955.231069	137.200000
2956.494429	116.800000
2957.757588	109.100000
2959.019015	108.800000
2960.281771	118.400000
2961.542795	124.000000
2962.802089	129.800000
2964.061182	123.100000
2965.320076	144.700000
2966.578769	112.700000
2967.837261	114.700000
2969.094025	114.700000
2970.350590	119.800000
2971.605426	105.100000
2972.861592	119.400000
2974.114503	119.500000
2975.368742	109.500000
2976.622783	119.500000
2977.875098	121.300000
2979.127215	126.200000
2980.377607	112.500000
2981.630854	116.600000
2982.879324	116.100000
2984.130649	107.900000
2985.378724	114.200000
2986.626602	108.000000
2987.874284	119.100000
2989.121768	106.300000
2990.367531	111.100000
2991.613098	106.100000
2992.859992	105.000000
2994.103642	114.500000
2995.348619	119.700000
2996.590354	123.000000
2997.834940	115.000000
2999.077807	123.600000
3000.317433	102.400000
3001.559909	93.900000
3002.799145	113.300000
3004.039709	104.300000
3005.278556	108.700000
3006.517209	102.300000
3007.754146	101.300000
3008.992411	117.100000
3010.228960	105.200000
3011.465316	103.000000
3012.701478	113.100000
3013.935926	107.500000
3015.170181	114.500000
3016.404244	107.700000
3017.636593	108.600000
3018.867231	119.000000
3020.100715	102.400000
3021.332488	103.800000
3022.562549	120.900000
3023.792419	98.600000
3025.020579	141.800000
3026.250066	115.900000
3027.477843	113.300000
3028.705429	126.900000
3029.934341	117.000000
3031.158511	116.700000
3032.385524	107.100000
3033.609314	121.400000
3034.834429	119.700000
3036.057839	99.800000
3037.281058	104.400000
3038.502572	110.700000
3039.726927	101.300000
3040.946547	111.300000
3042.167493	119.800000
3043.388249	108.200000
3044.607303	112.200000
3045.827681	98.300000
3047.044843	104.800000
3048.263330	107.000000
3049.480116	112.600000
3050.696713	113.800000
3051.913123	110.300000
3053.126319	97.400000
3054.342353	117.200000
3055.555175	115.500000
3056.770834	105.000000
3057.981771	103.000000
3059.194032	123.300000
3060.406106	112.000000
3061.617994	103.300000
3062.828185	89.500000
3064.038189	116.900000
3065.248007	90.600000
3066.456129	96.800000
3067.664066	92.700000
3068.870307	121.400000
3070.077873	117.900000
3071.283744	97.100000
3072.489430	76.300000
3073.694932	99.900000
3074.898740	81.600000
3076.103872	97.200000
3077.307311	95.000000
3078.509059	102.800000
3079.710622	73.400000
3080.912002	95.700000
3082.113198	101.400000
3083.312704	91.900000
3084.512027	85.000000
3085.712673	106.500000
3086.911629	108.000000
3088.107391	85.200000
3089.305981	90.200000
3090.501378	82.800000
3091.698099	98.100000
3092.891627	98.200000
3094.087983	85.800000
3095.282652	103.900000
3096.474131	90.500000
3097.669942	100.400000
3098.861058	107.300000
3100.053498	94.700000
3101.242749	108.400000
3102.434827	113.000000
3103.625221	90.700000
3104.812429	93.300000
3106.000959	102.800000
3107.190812	97.400000
3108.377480	86.400000
3109.563969	90.200000
3110.750279	89.100000
3111.937910	94.800000
3113.122359	95.300000
3114.305129	80.300000
3115.490721	105.500000
3116.674634	103.900000
3117.856867	98.900000
3119.038923	86.100000
3120.220800	95.800000
3121.402499	104.900000
3122.582521	77.900000
3123.760866	85.500000
3124.942031	87.400000
3126.120021	104.100000
3127.297834	82.000000
3128.475470	98.000000
3129.651431	102.400000
3130.827216	99.200000
3132.004321	88.000000
3133.179753	92.800000
3134.353511	101.100000
3135.525596	72.100000
3136.699003	88.900000
3137.872233	83.100000
3139.043792	102.900000
3140.216671	96.700000
3141.386383	78.300000
3142.557416	87.900000
3143.726778	90.200000
3144.894471	94.700000
3146.064979	62.900000
3147.230829	77.500000
3148.400987	92.000000
3149.566488	89.600000
3150.731816	82.100000
3151.896970	96.500000
3153.061951	91.700000
3154.228251	101.500000
3155.389898	74.500000
3156.552866	94.700000
3157.715661	91.000000
3158.878283	87.900000
3160.039239	94.100000
3161.200024	94.400000
3162.360636	87.500000
3163.519584	101.300000
3164.678361	106.200000
3165.836965	91.500000
3166.995398	87.800000
3168.153660	94.100000
3169.310259	86.100000
3170.465197	104.500000
3171.621454	86.200000
3172.776050	94.800000
3173.930476	88.700000
3175.083242	98.600000
3176.235837	85.600000
3177.388263	99.400000
3178.540518	102.500000
3179.692604	84.900000
3180.841543	98.400000
3181.993289	88.500000
3183.143378	92.500000
3184.291810	85.300000
3185.440072	77.400000
3186.588166	84.300000
3187.736091	89.600000
3188.882360	84.500000
3190.028461	94.600000
3191.172908	88.900000
3192.317187	99.500000
3193.461297	79.800000
3194.606726	87.200000
3195.749016	94.400000
3196.891139	86.500000
3198.033094	94.200000
3199.174882	81.800000
3200.316503	81.900000
3201.454989	110.000000
3202.594792	93.600000
3203.735912	90.900000
3204.873899	94.400000
3206.010235	102.200000
3207.146407	97.300000
3208.283895	106.800000
3209.419735	87.000000
3210.556892	66.100000
3211.689436	90.300000
3212.826261	97.100000
3213.958476	85.800000
3215.092007	83.500000
3216.225373	105.200000
3217.355613	101.000000
3218.488650	104.700000
3219.618561	63.500000
3220.749788	116.000000
3221.877891	105.700000
3223.008790	108.300000
3224.138045	102.400000
3225.265657	98.100000
3226.390146	97.800000
3227.518911	94.900000
3228.644554	118.600000
3229.770034	106.700000
3230.893873	119.800000
3232.020507	127.300000
3233.142543	146.400000
3234.265895	131.900000
3235.389085	141.200000
3236.512112	140.200000
3237.633501	130.500000
3238.754727	130.800000
3239.874315	124.400000
3240.993742	137.600000
3242.111532	122.200000
3243.232113	114.500000
3244.349581	144.100000
3245.466888	116.500000
3246.584035	118.000000
3247.699545	113.300000
3248.816371	114.800000
3249.930087	108.900000
3251.046592	94.100000
3252.161462	109.600000
3253.273224	96.500000
3254.384827	94.000000
3255.497745	90.300000
3256.610503	99.400000
3257.720155	83.700000
3258.831122	73.800000
3259.941930	84.900000
3261.051106	85.900000
3262.158651	83.400000
3263.267511	92.700000
3264.376212	72.800000
3265.481811	84.800000
3266.588725	72.200000
3267.694009	69.800000
3268.800607	102.300000
3269.904105	85.600000
3271.008917	86.100000
3272.113572	87.500000
3273.215129	74.900000
3274.316529	90.800000
3275.419243	80.000000
3276.521801	67.900000
3277.621262	91.400000
3278.723507	64.000000
3279.822656	77.900000
3280.920180	71.800000
3282.017550	82.700000
3283.117701	70.600000
3284.214760	84.700000
3285.311663	67.100000
3286.408411	92.800000
3287.500600	97.300000
3288.597039	66.500000
3289.691855	77.300000
3290.786517	69.300000
3291.879556	77.100000
3292.972442	71.300000
3294.063707	76.100000
3295.156285	70.900000
3296.247243	73.500000
3297.336581	75.500000
3298.425766	69.600000
3299.516263	72.900000
3300.603677	79.900000
3301.690937	77.600000
3302.779510	83.300000
3303.867930	76.800000
3304.951804	87.900000
3306.039919	72.900000
3307.124952	79.400000
3308.208370	82.500000
3309.293100	78.900000
3310.376214	73.800000
3311.460641	77.700000
3312.541989	60.400000
3313.624649	71.800000
3314.705694	75.800000
3315.786589	76.300000
3316.865871	81.000000
3317.945002	88.300000
3319.025445	72.200000
3320.102813	73.900000
3321.181493	83.200000
3322.258561	78.000000
3323.335479	66.800000
3324.410787	70.500000
3325.485945	79.000000
3326.562414	91.300000
3327.635813	65.500000
3328.709062	72.600000
3329.783623	80.000000
3330.856575	80.300000
3331.927918	66.000000
3333.000572	86.700000
3334.070159	64.000000
3335.141058	57.500000
3336.210349	68.900000
3337.280950	78.100000
3338.349946	84.300000
3339.417335	93.200000
3340.483119	51.600000
3341.553129	78.200000
3342.620076	75.700000
3343.683961	64.200000
3344.750613	67.300000
3345.815662	55.500000
3346.879107	81.500000
3347.942406	77.000000
3349.005558	64.800000
3350.068564	72.400000
3351.131424	93.800000
3352.192681	84.900000
3353.250882	70.700000
3354.313304	55.900000
3355.372670	71.000000
3356.431890	69.600000
3357.492419	63.300000
3358.548440	78.400000
3359.607224	67.600000
3360.661501	86.800000
3361.718542	76.200000
3362.773984	73.800000
3363.830736	72.900000
3364.885889	77.600000
3365.939445	67.300000
3366.991404	64.100000
3368.046126	67.900000
3369.097798	64.500000
3370.149327	78.900000
3371.202164	61.000000
3372.251954	65.100000
3373.303053	64.400000
3374.351105	73.400000
3375.401918	76.400000
3376.449685	62.900000
3377.497310	80.000000
3378.544793	45.500000
3379.590683	83.200000
3380.637881	65.400000
3381.682037	62.900000
3382.728951	71.200000
3383.774273	91.200000
3384.816554	55.800000
3385.858694	54.100000
3386.902143	74.500000
3387.945450	77.300000
3388.987167	84.300000
3390.028744	52.900000
3391.070179	61.100000
3392.110026	64.100000
3393.148284	52.600000
3394.187850	74.800000
3395.227276	69.200000
3396.265114	62.600000
3397.301365	58.600000
3398.337477	55.400000
3399.374895	79.300000
3400.409281	86.900000
3401.444975	60.300000
3402.480529	57.400000
3403.513052	54.800000
3404.548327	59.500000
3405.580573	55.400000
3406.612680	65.900000
3407.643203	70.500000
3408.675033	64.400000
3409.706725	63.300000
3410.735389	76.200000
3411.763916	71.000000
3412.793749	70.100000
3413.823445	62.800000
3414.850115	65.500000
3415.878091	67.900000
3416.903044	54.400000
3417.930746	72.900000
3418.955424	68.700000
3419.981409	51.600000
3421.005815	68.900000
3422.030084	64.100000
3423.052774	74.800000
3424.075328	61.100000
3425.099188	70.000000
3426.120028	75.300000
3427.140732	56.900000
3428.162742	43.200000
3429.181734	70.800000
3430.200591	44.000000
3431.220754	64.100000
3432.237900	66.600000
