-117.018713	-18.050000
-114.349113	-5.800000
-111.682448	-0.900000
-109.016535	-5.300000
-106.353555	-3.600000
-103.689144	0.400000
-101.027664	-5.250000
-98.364755	5.900000
-95.706952	-12.200000
-93.047720	0.200000
-90.389236	1.200000
-87.733677	2.450000
-85.076688	-7.300000
-82.424798	-9.800000
-79.771478	-7.750000
-77.121077	-2.850000
-74.469248	-3.900000
-71.822509	10.850000
-69.174340	3.000000
-66.526914	-12.550000
-63.882403	2.950000
-61.236462	7.600000
-58.595603	-0.850000
-55.953315	-7.450000
-53.313936	0.500000
-50.673128	9.250000
-48.033059	9.550000
-45.398064	5.200000
-42.761639	-3.200000
-40.128117	-6.600000
-37.493167	9.250000
-34.863283	-3.750000
-32.229805	10.850000
-29.601390	13.050000
-26.973709	5.450000
-24.344599	14.400000
-21.720547	9.450000
-19.092904	19.750000
-16.470316	14.550000
-13.848458	26.800000
-11.227331	66.900000
-8.606935	156.450000
-5.989426	512.050000
-3.370489	1537.900000
-0.754438	4184.950000
1.860886	6947.600000
4.475481	2842.250000
7.087195	312.700000
9.700337	62.050000
12.308445	22.600000
14.920134	35.900000
17.526793	26.050000
20.134881	0.700000
22.742243	6.850000
25.344581	8.900000
27.950498	18.500000
30.551392	1.950000
33.153714	12.350000
35.751018	-1.150000
38.351899	2.700000
40.947764	1.100000
43.545057	-5.650000
46.141632	0.700000
48.733197	23.300000
51.326190	-1.200000
53.916322	-3.000000
56.507881	-4.350000
59.096582	10.750000
61.686709	-3.500000
64.271837	7.850000
66.858393	10.400000
69.444235	3.450000
72.027222	-10.350000
74.611637	4.900000
77.188923	-0.850000
79.769775	-4.950000
82.347778	8.500000
84.925070	14.000000
87.503790	8.550000
90.077527	6.850000
92.652691	-4.300000
95.225012	-1.050000
97.796626	-3.800000
100.365399	1.000000
102.935599	-2.650000
105.502960	7.300000
108.071748	-1.600000
110.637699	11.500000
113.200815	3.500000
115.767487	10.050000
118.324937	16.350000
120.888073	14.700000
123.446250	39.400000
126.007981	52.150000
128.564755	72.550000
131.122955	113.800000
133.676203	165.350000
136.228753	239.700000
138.784853	311.450000
141.336005	421.650000
143.886460	528.550000
146.436217	616.050000
148.983155	672.750000
151.529398	693.700000
154.077066	738.500000
156.624038	743.600000
159.166075	720.750000
161.707418	711.600000
164.248068	713.450000
166.790144	702.950000
169.329408	708.450000
171.865863	709.950000
174.401628	711.800000
176.938818	684.900000
179.475317	686.300000
182.009010	706.500000
184.539899	669.500000
187.070100	680.900000
189.601727	675.150000
192.130552	674.750000
194.656578	658.300000
197.181918	658.500000
199.708683	675.500000
202.232652	655.200000
204.755936	676.050000
207.278534	647.950000
209.798340	664.900000
212.317463	669.550000
214.835903	655.900000
217.355768	693.400000
219.868630	688.200000
222.385024	709.700000
224.900737	723.600000
227.411559	738.000000
229.923806	735.200000
232.433270	728.250000
234.942056	732.900000
237.450164	749.600000
239.959696	758.250000
242.464347	770.200000
244.968322	744.200000
247.473721	765.250000
249.974245	751.650000
252.478292	755.450000
254.975369	732.800000
257.475969	731.000000
259.973797	712.200000
262.470952	734.350000
264.967434	726.550000
267.459053	731.300000
269.954192	720.500000
272.446564	736.300000
274.938266	754.700000
277.427205	747.100000
279.917567	733.350000
282.405168	769.800000
284.890009	778.450000
287.378365	766.650000
289.859781	761.750000
292.344711	796.200000
294.824796	814.350000
297.308393	828.300000
299.787147	849.650000
302.267324	880.800000
304.744750	872.200000
307.221512	870.150000
309.697610	829.000000
312.170960	796.350000
314.643649	791.000000
317.115676	779.150000
319.587041	793.600000
322.055663	793.700000
324.523625	805.500000
326.993010	751.050000
329.457572	726.650000
331.925638	714.800000
334.388883	712.700000
336.851472	685.500000
339.313404	679.400000
341.774679	677.400000
344.233219	658.400000
346.693183	646.050000
349.150413	626.750000
351.606989	629.850000
354.062911	611.000000
356.516103	618.250000
358.970718	606.750000
361.420531	608.800000
363.873840	598.450000
366.322350	587.250000
368.770210	596.600000
371.219492	577.550000
373.663979	563.400000
376.109890	556.300000
378.555150	543.200000
380.997692	560.550000
383.439586	544.900000
385.880832	544.500000
388.319364	544.200000
390.759316	533.850000
393.196555	541.050000
395.631083	539.500000
398.069097	524.050000
400.502336	527.550000
402.936995	524.900000
405.366882	520.450000
407.800254	516.100000
410.228856	510.700000
412.656816	516.750000
415.086198	500.600000
417.510814	483.450000
419.936852	483.400000
422.362249	471.650000
424.787006	481.200000
427.207004	479.600000
429.628424	467.200000
432.047148	485.000000
434.467292	466.950000
436.884741	461.750000
439.303610	453.000000
441.719785	439.700000
444.131214	446.350000
446.546119	415.300000
448.958335	408.300000
451.369916	382.550000
453.780863	386.000000
456.189123	380.350000
458.596752	371.200000
461.003748	373.200000
463.410113	368.700000
465.813795	354.450000
468.216847	376.700000
470.619269	369.800000
473.021061	371.950000
475.420175	372.700000
477.820709	388.050000
480.220614	362.750000
482.615797	393.950000
485.014446	413.050000
487.408374	405.150000
489.801677	438.100000
492.194355	466.000000
494.586407	511.900000
496.979877	566.100000
499.368635	655.650000
501.754727	820.700000
504.142239	1047.750000
506.529128	1398.100000
508.913352	2001.100000
511.298996	2912.450000
513.681978	4117.050000
516.062299	5297.550000
518.444039	6098.300000
520.823120	5986.300000
523.203619	5280.950000
525.581462	4376.700000
527.956648	3637.850000
530.331218	3029.150000
532.707205	2587.150000
535.080540	2228.850000
537.455292	1985.250000
539.825358	1772.700000
542.194810	1591.200000
544.565679	1480.450000
546.931867	1369.700000
549.299474	1254.300000
551.664435	1170.800000
554.028784	1115.100000
556.392519	1054.200000
558.757672	1015.750000
561.118153	988.750000
563.480052	977.600000
565.839310	913.500000
568.195930	904.350000
570.555996	855.000000
572.909370	816.450000
575.266189	819.350000
577.620373	790.400000
579.973948	746.900000
582.326916	756.300000
584.677251	723.300000
587.029004	696.600000
589.374080	656.250000
591.724619	656.550000
594.068486	629.300000
596.417814	631.100000
598.762493	620.650000
601.104548	603.700000
603.448020	594.500000
605.788869	622.500000
608.129115	640.650000
610.466741	654.250000
612.807802	660.700000
615.144226	682.000000
617.482066	720.200000
619.817289	692.600000
622.149895	660.150000
624.483919	626.150000
626.815328	610.950000
629.146139	600.700000
631.476352	587.500000
633.805968	581.850000
636.130960	574.650000
638.461394	567.300000
640.787207	555.500000
643.110412	575.950000
645.435034	555.450000
647.757050	555.750000
650.078472	534.850000
652.397291	534.800000
654.717527	537.650000
657.037169	532.950000
659.354210	514.200000
661.670659	519.850000
663.984510	522.550000
666.299777	520.350000
668.612447	525.300000
670.926532	521.800000
673.236017	531.000000
675.546918	544.450000
677.855226	536.400000
680.162946	510.050000
682.472080	512.800000
684.776622	519.300000
687.080578	495.300000
689.383948	492.600000
691.688732	482.200000
693.988929	458.600000
696.290542	462.000000
698.591569	464.950000
700.888015	442.650000
703.185876	440.150000
705.483153	435.450000
707.779847	421.700000
710.071965	434.650000
712.367494	423.100000
714.658449	425.950000
716.950819	415.050000
719.240614	404.700000
721.529828	412.450000
723.818463	415.900000
726.104525	412.750000
728.392002	407.350000
730.676907	399.650000
732.961235	400.400000
735.242994	406.000000
737.526167	408.800000
739.808763	406.100000
742.086803	392.550000
744.366257	407.800000
746.645136	392.050000
748.923440	392.350000
751.197193	396.300000
753.472361	393.550000
755.746955	391.350000
758.018990	378.350000
760.292438	392.050000
762.563328	361.750000
764.831662	383.900000
767.101409	370.500000
769.368601	383.050000
771.635224	387.600000
773.901276	395.200000
776.164777	388.450000
778.429691	389.350000
780.694035	392.350000
782.953850	386.300000
785.215077	388.050000
787.475737	376.600000
789.733851	399.500000
791.989420	390.800000
794.248379	408.400000
796.500840	407.800000
798.758668	400.500000
801.011977	407.150000
803.262746	420.400000
805.514927	410.650000
807.764569	396.450000
810.015623	418.650000
812.262167	393.600000
814.510122	402.000000
816.755543	401.050000
819.002375	394.050000
821.248646	377.100000
823.490412	387.450000
825.735562	386.600000
827.974239	366.500000
830.216298	373.650000
832.453859	371.700000
834.692832	382.800000
836.929278	373.700000
839.167135	371.700000
841.402467	373.700000
843.635276	371.400000
845.869495	379.250000
848.101193	376.700000
850.332336	379.700000
852.562924	368.500000
854.792958	363.600000
857.022438	390.200000
859.247436	343.000000
861.475808	365.750000
863.699702	364.200000
865.925007	358.900000
868.145836	366.200000
870.370037	340.400000
872.589765	346.050000
874.810903	368.150000
877.031491	373.450000
879.249570	366.100000
881.469058	363.650000
883.684080	370.100000
885.898554	357.800000
888.112481	344.200000
890.325861	347.050000
892.538693	338.300000
894.750978	346.500000
896.960762	358.200000
899.170000	346.650000
901.378693	339.150000
903.584886	359.550000
905.792489	366.100000
907.997595	366.350000
910.202157	363.550000
912.404224	349.750000
914.607700	390.600000
916.808682	386.500000
919.009122	400.500000
921.210971	438.300000
923.406429	448.150000
925.605245	456.400000
927.799624	499.150000
929.997360	580.950000
932.190660	631.950000
934.385369	694.550000
936.577591	746.050000
938.769276	809.300000
940.960423	854.100000
943.149087	886.350000
945.337215	862.350000
947.522861	854.500000
949.711861	858.850000
951.896437	849.900000
954.080478	843.150000
956.267869	830.450000
958.446956	845.100000
960.629394	848.500000
962.811298	849.250000
964.990727	849.400000
967.167684	868.650000
969.346049	879.550000
971.525821	872.850000
973.699244	891.750000
975.876013	890.850000
978.048375	889.650000
980.222145	880.150000
982.391511	837.650000
984.564221	802.200000
986.734466	735.900000
988.904181	675.050000
991.073368	591.650000
993.238158	555.150000
995.406290	531.350000
997.570026	505.000000
999.735170	464.900000
1001.897854	460.050000
1004.060013	419.650000
1006.219715	441.200000
1008.378892	427.700000
1010.539476	410.600000
1012.697605	408.650000
1014.855211	379.550000
1017.012293	384.250000
1019.168851	362.850000
1021.321030	346.150000
1023.474616	350.000000
1025.627680	339.550000
1027.778295	341.100000
1029.930316	318.750000
1032.077965	326.850000
1034.228945	328.400000
1036.375554	311.600000
1038.521644	306.700000
1040.667216	301.550000
1042.814193	299.950000
1044.954881	321.350000
1047.098898	295.200000
1049.240476	299.400000
1051.381536	288.200000
1053.524002	292.400000
1055.660187	283.300000
1057.799699	297.850000
1059.934855	295.600000
1062.073336	295.750000
1064.207464	285.900000
1066.341078	299.900000
1068.476096	284.250000
1070.606766	302.550000
1072.738840	294.250000
1074.868485	282.550000
1076.997617	286.600000
1079.126239	299.500000
1081.254349	295.750000
1083.380033	290.950000
1085.505207	302.100000
1087.631785	296.950000
1089.754025	303.200000
1091.877670	297.750000
1093.996980	295.300000
1096.121519	289.750000
1098.239814	260.800000
1100.359512	279.200000
1102.476793	275.850000
1104.593566	289.650000
1106.709833	275.750000
1108.823685	303.550000
1110.938940	269.800000
1113.049873	282.400000
1115.164118	280.850000
1117.274042	275.450000
1119.385370	274.500000
1121.496193	278.700000
1123.602700	265.400000
1125.712516	267.550000
1127.818019	270.950000
1129.924924	268.250000
1132.025614	268.150000
1134.131516	268.900000
1136.233109	259.100000
1138.336105	265.050000
1140.438600	268.200000
1142.534888	239.950000
1144.636383	249.500000
1146.733576	256.800000
1148.830271	250.250000
1150.926467	265.850000
1153.022165	250.700000
1155.117366	251.200000
1157.210170	253.100000
1159.304376	255.250000
1161.392391	243.750000
1163.485604	240.450000
1165.572630	239.450000
1167.662954	257.050000
1169.748990	227.300000
1171.838324	248.350000
1173.921477	246.800000
1176.006033	258.050000
1178.091990	243.850000
1180.173665	255.050000
1182.256741	256.300000
1184.337432	267.600000
1186.417632	244.650000
1188.497340	255.150000
1190.576557	260.300000
1192.653391	255.600000
1194.727845	267.750000
1196.805591	263.350000
1198.879066	237.150000
1200.953943	250.750000
1203.024552	243.800000
1205.096562	235.750000
1207.166196	258.800000
1209.237231	240.950000
1211.307779	248.650000
1213.374065	247.500000
1215.441752	250.900000
1217.507066	248.600000
1219.573781	248.200000
1221.636241	250.650000
1223.701985	254.150000
1225.763475	250.650000
1227.826366	242.300000
1229.886888	236.450000
1231.946928	230.550000
1234.006484	249.150000
1236.063676	238.050000
1238.120385	263.050000
1240.174732	253.550000
1242.232360	250.350000
1244.287624	262.500000
1246.338649	247.300000
1248.391073	254.900000
1250.443017	252.100000
1252.492603	250.200000
1254.541710	258.850000
1256.590338	263.150000
1258.638488	252.900000
1260.686160	255.300000
1262.729601	261.450000
1264.776318	265.550000
1266.820681	262.150000
1268.864568	251.800000
1270.906103	256.150000
1272.945289	247.100000
1274.987748	249.600000
1277.025984	259.550000
1279.065619	254.650000
1281.104778	248.550000
1283.139720	251.000000
1285.176060	255.250000
1287.210056	248.000000
1289.245449	241.500000
1291.276629	254.450000
1293.309208	254.500000
1295.341315	248.600000
1297.371081	253.550000
1299.402244	243.150000
1301.429200	246.100000
1303.457555	255.500000
1305.481704	233.400000
1307.509119	228.600000
1309.532331	228.600000
1311.556941	234.250000
1313.579216	239.800000
1315.602889	238.100000
1317.624229	221.900000
1319.645102	222.200000
1321.665507	212.050000
1323.681719	220.850000
1325.699328	204.200000
1327.714609	220.750000
1329.733149	228.850000
1331.747499	225.350000
1333.759524	223.650000
1335.774807	227.000000
1337.785904	215.350000
1339.798397	231.100000
1341.806708	228.050000
1343.818275	225.550000
1345.823803	215.350000
1347.832586	234.350000
1349.837191	235.900000
1351.845050	232.700000
1353.852447	222.850000
1355.853813	229.950000
1357.856575	240.250000
1359.858878	236.400000
1361.860721	230.900000
1363.862104	240.700000
1365.861173	220.200000
1367.859785	217.750000
1369.857937	233.550000
1371.855632	228.400000
1373.849164	231.250000
1375.844091	241.350000
1377.838562	216.950000
1379.832576	224.050000
1381.824283	232.750000
1383.815534	232.450000
1385.804480	221.900000
1387.794821	220.500000
1389.784708	210.200000
1391.772290	215.600000
1393.759419	204.300000
1395.744246	219.150000
1397.730468	209.650000
1399.714389	225.550000
1401.697858	206.900000
1403.680875	221.150000
1405.661594	211.600000
1407.643707	229.550000
1409.623523	223.150000
1411.602889	210.350000
1413.578116	203.600000
1415.556581	198.200000
1417.532753	201.950000
1419.508475	219.200000
1421.483749	217.100000
1423.456731	205.800000
1425.429265	211.550000
1427.401351	223.500000
1429.372990	202.600000
1431.340500	210.550000
1433.313084	227.600000
1435.277862	216.200000
1437.247713	208.350000
1439.213439	225.150000
1441.180559	216.900000
1443.145395	222.150000
1445.106111	217.900000
1447.071895	217.500000
1449.031724	223.600000
1450.992947	228.950000
1452.955561	219.850000
1454.914061	245.950000
1456.872119	214.100000
1458.829735	223.150000
1460.786908	237.950000
1462.741806	213.600000
1464.698097	217.150000
1466.652113	213.450000
1468.605688	233.000000
1470.556991	236.400000
1472.509686	219.050000
1474.460110	209.700000
1476.410095	209.650000
1478.359641	214.400000
1480.306918	208.150000
1482.251927	203.150000
1484.198329	211.050000
1486.144293	200.300000
1488.089820	206.400000
1490.033081	209.400000
1491.975906	205.000000
1493.916468	187.650000
1495.858422	205.000000
1497.798113	218.050000
1499.737369	203.600000
1501.676191	192.900000
1503.612753	196.850000
1505.550706	196.400000
1507.486400	216.250000
1509.421661	202.400000
1511.354665	208.450000
1513.287237	211.650000
1515.219377	211.550000
1517.151085	212.000000
1519.080540	199.300000
1521.011385	203.750000
1522.941798	218.000000
1524.868139	219.100000
1526.795870	215.600000
1528.721352	206.050000
1530.646404	215.600000
1532.571027	215.150000
1534.495220	235.050000
1536.417167	221.650000
1538.340504	198.350000
1540.261594	225.250000
1542.180440	214.200000
1544.100676	241.100000
1546.018668	229.550000
1547.936234	222.000000
1549.851559	263.800000
1551.768273	230.650000
1553.680932	243.800000
1555.596794	262.800000
1557.510418	266.600000
1559.421803	271.650000
1561.334578	244.900000
1563.243303	277.000000
1565.153417	293.350000
1567.063108	292.400000
1568.972376	333.800000
1570.879409	360.150000
1572.784210	386.550000
1574.690400	440.550000
1576.594359	486.950000
1578.497896	535.450000
1580.401013	606.450000
1582.301900	700.700000
1584.204176	775.700000
1586.104223	761.050000
1588.005659	737.750000
1589.903061	622.600000
1591.800044	551.550000
1593.696609	462.500000
1595.594561	381.650000
1597.486679	353.100000
1599.381991	308.700000
1601.276885	288.850000
1603.169557	282.150000
1605.061812	272.700000
1606.951848	267.550000
1608.841468	269.900000
1610.730673	241.550000
1612.619462	237.700000
1614.506035	227.400000
1616.393995	232.050000
1618.277938	230.250000
1620.163268	221.600000
1622.048185	212.250000
1623.930888	224.950000
1625.814978	224.600000
1627.695056	200.600000
1629.576522	200.200000
1631.455776	214.500000
1633.336418	204.050000
1635.211255	192.850000
1637.091073	185.400000
1638.966887	188.250000
1640.842290	184.050000
1642.719079	184.500000
1644.590071	187.900000
1646.464246	177.400000
1648.334421	198.250000
1650.207777	174.950000
1652.078930	192.600000
1653.947881	188.850000
1655.818218	180.650000
1657.684562	180.700000
1659.552291	186.900000
1661.417821	171.600000
1663.284737	182.950000
1665.147663	185.400000
1667.011976	184.550000
1668.874092	173.750000
1670.735803	157.900000
1672.598899	156.100000
1674.459801	169.300000
1676.318510	185.450000
1678.176815	157.350000
1680.036504	175.400000
1681.890427	164.350000
1683.747523	154.300000
1685.604215	161.800000
1687.456932	165.850000
1689.312820	157.200000
1691.164734	160.050000
1693.016247	159.250000
1694.867359	164.600000
1696.718070	159.850000
1698.568381	160.100000
1700.416508	149.000000
1702.266019	161.850000
1704.109780	150.800000
1705.958492	151.900000
1707.801457	156.100000
1709.647588	147.500000
1711.489758	155.250000
1713.335093	160.750000
1715.174687	156.300000
1717.015665	164.450000
1718.858026	147.900000
1720.696430	150.900000
1722.536218	145.850000
1724.373831	150.350000
1726.211049	156.650000
1728.046093	160.900000
1729.882520	145.750000
1731.716774	144.550000
1733.550635	159.250000
1735.384101	156.800000
1737.213621	139.650000
1739.046301	162.850000
1740.875035	162.350000
1742.706928	143.000000
1744.534878	164.150000
1746.362436	165.100000
1748.189603	152.300000
1750.016378	146.600000
1751.842761	152.400000
1753.665208	171.450000
1755.490810	158.250000
1757.312477	161.100000
1759.135525	160.800000
1760.956413	150.700000
1762.776912	146.550000
1764.598791	162.150000
1766.414971	142.000000
1768.234303	147.450000
1770.049708	138.950000
1771.868264	154.300000
1773.682894	155.500000
1775.497137	139.050000
1777.310994	154.150000
1779.124464	144.200000
1780.935780	155.700000
1782.748478	156.250000
1784.560790	154.450000
1786.369183	144.550000
1788.178958	150.350000
1789.984818	150.950000
1791.793823	148.050000
1793.598915	157.350000
1795.405388	146.800000
1797.211476	142.700000
1799.013655	140.600000
1800.818978	136.150000
1802.620391	134.600000
1804.423186	144.850000
1806.222074	150.550000
1808.022343	140.700000
1809.822230	144.250000
1811.619975	151.400000
1813.417340	158.500000
1815.214324	143.200000
1817.010929	148.200000
1818.805393	168.000000
1820.601238	130.200000
1822.391427	156.300000
1824.186513	142.400000
1825.975946	152.750000
1827.768517	150.650000
1829.558952	142.400000
1831.347252	157.150000
1833.138688	152.200000
1834.924479	154.000000
1836.711649	156.950000
1838.496687	142.500000
1840.284858	164.750000
1842.069145	147.750000
1843.851301	151.750000
1845.634837	156.550000
1847.416244	148.400000
1849.199029	163.450000
1850.977935	172.050000
1852.758219	156.350000
1854.536378	163.250000
1856.315914	157.450000
1858.093326	175.200000
1859.868615	146.950000
1861.645281	158.100000
1863.419825	158.750000
1865.195746	151.350000
1866.966048	162.200000
1868.739477	154.200000
1870.510786	146.350000
1872.281724	153.850000
1874.054040	174.650000
1875.820742	168.200000
1877.590569	154.250000
1879.356533	156.950000
1881.125621	149.050000
1882.890847	145.050000
1884.655705	147.650000
1886.421939	149.050000
1888.184316	133.650000
1889.946324	157.700000
1891.707966	138.100000
1893.469240	148.300000
1895.230148	134.250000
1896.990688	139.950000
1898.749120	135.850000
1900.507185	149.550000
1902.263143	137.700000
1904.020477	135.300000
1905.777446	131.950000
1907.532308	130.950000
1909.285066	148.450000
1911.037459	126.350000
1912.791229	134.400000
1914.542895	138.350000
1916.292458	123.950000
1918.043398	127.100000
1919.793974	135.500000
1921.540712	151.100000
1923.288825	139.250000
1925.034840	129.400000
1926.782229	141.350000
1928.527520	146.650000
1930.270715	129.500000
1932.015284	139.350000
1933.757757	127.900000
1935.499871	150.950000
1937.241624	140.600000
1938.983017	146.200000
1940.722317	145.600000
1942.461258	140.050000
1944.199840	130.150000
1945.936331	151.150000
1947.672463	150.225000
1949.409971	149.300000
1951.143656	144.900000
1952.878716	143.200000
1954.611687	138.750000
1956.344302	145.700000
1958.076560	141.700000
1959.808462	140.050000
1961.538279	137.200000
1963.266010	137.700000
1964.995116	144.300000
1966.723866	134.600000
1968.450533	126.550000
1970.176846	132.300000
1971.904533	118.100000
1973.626683	131.150000
1975.351934	128.300000
1977.073378	128.100000
1978.797922	136.500000
1980.520387	135.950000
1982.239048	136.200000
1983.960809	136.750000
1985.678767	134.700000
1987.398098	138.750000
1989.113630	134.700000
1990.833982	123.100000
1992.550536	137.400000
1994.263293	144.400000
1995.979146	119.150000
1997.692927	137.000000
1999.406358	130.550000
2001.117718	120.200000
2002.830450	133.400000
2004.539392	138.100000
2006.251426	124.200000
2007.957951	130.300000
2009.667569	127.150000
2011.375119	128.600000
2013.082322	145.750000
2014.787459	121.800000
2016.492250	134.100000
2018.198412	134.050000
2019.900791	135.350000
2021.604543	148.250000
2023.306232	107.900000
2025.007575	127.350000
2026.708574	120.800000
2028.407511	134.500000
2030.107820	121.500000
2031.804353	116.800000
2033.502258	121.600000
2035.198105	122.000000
2036.897037	120.800000
2038.590483	130.650000
2040.285300	130.650000
2041.979774	135.250000
2043.670481	121.450000
2045.364270	123.200000
2047.054294	137.100000
2048.745688	130.400000
2050.435028	134.100000
2052.125740	129.450000
2053.812688	127.550000
2055.499296	131.000000
2057.187275	138.300000
2058.871494	126.850000
2060.557083	130.300000
2062.242333	143.500000
2063.925535	134.000000
2065.610107	124.600000
2067.289215	126.600000
2068.973110	116.500000
2070.651543	138.250000
2072.333054	129.600000
2074.010813	120.350000
2075.688236	126.850000
2077.367028	130.600000
2079.043777	137.350000
2080.718485	126.750000
2082.394563	119.250000
2084.068599	127.900000
2085.742301	125.550000
2087.415667	115.450000
2089.086994	119.650000
2090.757987	115.000000
2092.428646	140.400000
2094.098971	121.700000
2095.768962	109.800000
2097.436917	116.950000
2099.104538	117.000000
2100.770126	128.600000
2102.437082	126.000000
2104.102005	124.150000
2105.766596	117.600000
2107.429155	131.700000
2109.093082	125.800000
2110.754978	121.700000
2112.416544	123.000000
2114.077778	108.650000
2115.736983	110.500000
2117.395859	128.150000
2119.054405	120.950000
2120.712620	123.400000
2122.367113	114.900000
2124.024670	120.150000
2125.681897	119.150000
2127.335404	108.400000
2128.990278	135.050000
2130.641433	104.400000
2132.295651	111.300000
2133.946151	115.600000
2135.598019	123.400000
2137.244478	125.550000
2138.895691	110.250000
2140.543192	115.500000
2142.192059	124.400000
2143.838907	108.150000
2145.485430	123.750000
2147.131627	107.350000
2148.774116	107.600000
2150.419662	114.800000
2152.061502	124.600000
2153.706399	116.400000
2155.347591	111.500000
2156.988459	114.750000
2158.629004	115.650000
2160.267536	129.950000
2161.907434	128.850000
2163.543632	129.150000
2165.181196	118.000000
2166.818438	124.800000
2168.453670	118.100000
2170.088580	119.800000
2171.723169	134.300000
2173.357437	107.700000
2174.988011	110.650000
2176.621637	129.550000
2178.251571	126.050000
2179.882870	115.550000
2181.512164	119.850000
2183.141139	100.300000
2184.769794	133.950000
2186.398130	109.700000
2188.024463	127.150000
2189.650478	116.950000
2191.274492	110.700000
2192.899871	112.800000
2194.523249	123.250000
2196.147992	120.000000
2197.769054	120.100000
2199.389799	114.650000
2201.011908	116.950000
2202.632020	116.200000
2204.250136	111.450000
2205.867936	113.650000
2207.485420	123.800000
2209.102590	106.450000
2210.719443	126.350000
2212.335982	113.700000
2213.950528	106.650000
2215.563081	117.450000
2217.176998	124.600000
2218.788924	116.700000
2220.402213	123.200000
2222.013512	120.200000
2223.622821	119.050000
2225.233493	107.350000
2226.842177	112.800000
2228.450549	105.200000
2230.056934	124.700000
2231.664681	100.250000
2233.270443	112.900000
2234.875893	92.850000
2236.479358	99.150000
2238.084186	113.150000
2239.687030	114.200000
2241.287891	114.150000
2242.890115	112.800000
2244.490357	125.050000
2246.091961	130.800000
2247.689912	120.950000
2249.289226	118.300000
2250.886560	133.750000
2252.483586	119.700000
2254.081973	107.700000
2255.676713	115.250000
2257.269475	122.250000
2258.863600	116.750000
2260.459086	121.100000
2262.050927	118.700000
2263.642462	118.700000
2265.235359	111.950000
2266.822946	106.600000
2268.415229	125.100000
2270.002205	102.500000
2271.592210	131.400000
2273.176910	116.400000
2274.766304	121.350000
2276.350395	111.850000
2277.935848	119.750000
2279.519332	108.500000
2281.105841	105.650000
2282.688717	107.900000
2284.271290	112.250000
2285.853559	119.300000
2287.432198	111.150000
2289.013862	116.250000
2290.591897	106.600000
2292.172955	101.600000
2293.750386	100.700000
2295.325854	99.800000
2296.904344	124.050000
2298.479210	121.000000
2300.053775	105.150000
2301.628039	109.250000
2303.202003	125.900000
2304.775667	110.300000
2306.349031	121.800000
2307.918776	116.050000
2309.488222	129.650000
2311.060686	106.400000
2312.627876	119.550000
2314.198083	102.600000
2315.764677	130.400000
2317.332629	113.700000
2318.898627	115.950000
2320.464327	125.200000
2322.029729	103.650000
2323.593178	102.950000
2325.157986	119.600000
2326.719186	99.300000
2328.283399	135.400000
2329.842352	129.850000
2331.404318	125.750000
2332.964334	109.900000
2334.524054	114.750000
2336.081826	109.550000
2337.639302	117.700000
2339.196484	108.100000
2340.751718	98.150000
2342.306659	103.100000
2343.861305	125.750000
2345.415658	102.450000
2346.969717	106.100000
2348.523483	106.700000
2350.075304	121.500000
2351.625182	120.100000
2353.178069	118.650000
2354.725712	120.250000
2356.276364	118.550000
2357.823424	121.450000
2359.371842	101.600000
2360.919969	121.900000
2362.464507	103.750000
2364.010403	125.600000
2365.554361	109.250000
2367.099675	108.450000
2368.641405	106.200000
2370.184493	100.950000
2371.725644	109.900000
2373.266506	99.500000
2374.807079	97.900000
2376.347363	105.250000
2377.887358	107.550000
2379.423774	99.850000
2380.963192	99.600000
2382.499033	109.900000
2384.036231	112.350000
2385.569853	101.050000
2387.106475	122.550000
2388.641167	113.800000
2390.173929	124.650000
2391.706404	107.050000
2393.236951	117.150000
2394.770496	109.800000
2396.298830	112.600000
2397.828520	116.750000
2399.357925	118.850000
2400.887045	112.650000
2402.415879	104.800000
2403.939509	103.150000
2405.467774	107.050000
2406.990837	121.350000
2408.518533	111.650000
2410.039390	110.600000
2411.564879	106.050000
2413.086809	105.500000
2414.610093	117.750000
2416.131457	110.400000
2417.650901	109.700000
2419.171700	117.200000
2420.690580	107.350000
2422.209179	124.100000
2423.725859	115.400000
2425.243895	115.950000
2426.761649	112.650000
2428.275851	122.500000
2429.789774	122.250000
2431.303416	125.850000
2432.818412	125.450000
2434.329861	115.800000
2435.842663	119.150000
2437.353553	120.950000
2438.864164	125.200000
2440.372863	125.800000
2441.884548	137.200000
2443.392690	136.800000
2444.900554	135.100000
2446.408139	126.100000
2447.912185	131.850000
2449.419215	140.800000
2450.924337	158.600000
2452.429182	142.800000
2453.932120	147.850000
2455.434782	131.650000
2456.937167	153.500000
2458.437647	146.950000
2459.939480	150.050000
2461.439408	132.850000
2462.939061	137.200000
2464.438439	147.650000
2465.935914	131.250000
2467.431487	139.200000
2468.930040	121.700000
2470.425065	130.350000
2471.921442	132.100000
2473.414293	127.500000
2474.908497	125.450000
2476.402427	132.050000
2477.892833	108.900000
2479.386217	141.450000
2480.877703	109.150000
2482.367292	126.350000
2483.856609	117.900000
2485.344030	118.200000
2486.834427	128.550000
2488.321306	110.000000
2489.809536	120.600000
2491.294249	112.050000
2492.778692	111.300000
2494.264487	114.700000
2495.748390	98.850000
2497.233643	112.350000
2498.713763	118.800000
2500.196856	97.850000
2501.678058	110.650000
2503.158991	116.350000
2504.638035	124.000000
2506.116810	107.250000
2507.595317	114.000000
2509.073555	115.100000
2510.551526	129.900000
2512.025991	90.250000
2513.503426	111.800000
2514.977356	106.100000
2516.452638	114.150000
2517.927652	100.600000
2519.399165	93.300000
2520.872029	95.350000
2522.343010	101.200000
2523.815341	95.550000
2525.282558	102.200000
2526.752742	109.850000
2528.221045	114.700000
2529.689083	100.600000
2531.156855	114.800000
2532.624363	96.950000
2534.091607	110.600000
2535.555358	101.800000
2537.020459	93.850000
2538.483683	110.050000
2539.948256	113.450000
2541.409341	99.550000
2542.871775	107.450000
2544.333946	110.200000
2545.792630	111.500000
2547.255887	107.450000
2548.714047	107.900000
2550.173557	100.550000
2551.627972	121.300000
2553.086958	108.350000
2554.544072	108.500000
2555.999314	107.500000
2557.454296	98.050000
2558.907408	116.100000
2560.361869	103.350000
2561.814461	121.450000
2563.266793	114.350000
2564.717257	114.300000
2566.170678	100.700000
2567.619016	113.950000
2569.070309	109.200000
2570.519737	107.700000
2571.965692	101.150000
2573.414602	98.750000
2574.860042	107.100000
2576.306829	102.200000
2577.751753	114.550000
2579.196420	125.050000
2580.642434	109.000000
2582.084982	110.100000
2583.528876	119.550000
2584.969306	113.700000
2586.411084	124.550000
2587.851002	113.250000
2589.292267	122.200000
2590.730070	107.750000
2592.170823	114.750000
2593.606514	100.150000
2595.045153	113.250000
2596.481936	105.000000
2597.916863	123.250000
2599.354737	110.650000
2600.787554	118.900000
2602.221718	99.250000
2603.654028	108.000000
2605.087684	109.600000
2606.519487	113.900000
2607.951036	114.500000
2609.382332	112.100000
2610.811777	125.100000
2612.240969	134.900000
2613.668310	103.600000
2615.096998	128.100000
2616.525433	113.350000
2617.950422	132.150000
2619.376756	117.250000
2620.801243	105.000000
2622.227075	126.550000
2623.649463	133.500000
2625.073196	128.500000
2626.495084	143.600000
2627.916721	135.400000
2629.336514	144.000000
2630.757652	150.650000
2632.178540	154.000000
2633.595989	138.850000
2635.016378	149.450000
2636.433330	161.650000
2637.850034	173.750000
2639.266489	177.550000
2640.682696	185.100000
2642.098655	189.850000
2643.512773	211.700000
2644.926643	215.650000
2646.338674	209.800000
2647.752050	231.600000
2649.161996	242.450000
2650.574878	265.300000
2651.984331	252.950000
2653.393538	288.550000
2654.800909	312.950000
2656.211214	336.050000
2657.619683	360.250000
2659.026318	386.550000
2660.432707	412.500000
2661.837262	425.200000
2663.243161	476.600000
2664.647227	497.600000
2666.051048	535.400000
2667.454625	547.200000
2668.856371	602.100000
2670.259460	609.950000
2671.659131	636.950000
2673.060146	647.550000
2674.457745	670.950000
2675.858273	687.200000
2677.255387	688.250000
2678.653844	673.350000
2680.050474	687.200000
2681.446861	654.850000
2682.843006	639.850000
2684.237325	600.350000
2685.632987	590.750000
2687.025240	554.150000
2688.418835	517.000000
2689.810606	483.750000
2691.203720	474.250000
2692.595010	434.900000
2693.984477	393.450000
2695.373704	351.750000
2696.762692	339.400000
2698.153021	312.250000
2699.538367	293.200000
2700.926636	280.700000
2702.313085	264.250000
2703.699295	231.000000
2705.085266	234.500000
2706.467839	223.400000
2707.851754	200.800000
2709.235430	191.150000
2710.618869	181.400000
2711.998912	170.550000
2713.380297	173.100000
2714.759867	140.900000
2716.140777	163.700000
2717.519873	159.550000
2718.897155	147.550000
2720.275778	138.450000
2721.652587	135.500000
2723.029161	137.650000
2724.405499	135.800000
2725.780025	130.150000
2727.155892	130.000000
2728.528373	122.950000
2729.903769	128.450000
2731.274205	140.650000
2732.645981	127.900000
2734.017524	120.450000
2735.387258	125.100000
2736.758332	109.000000
2738.127599	133.900000
2739.496632	116.900000
2740.863859	124.200000
2742.230852	112.000000
2743.597613	102.550000
2744.964141	104.150000
2746.328865	114.850000
2747.693356	93.600000
2749.057616	112.250000
2750.421643	108.800000
2751.785438	104.350000
2753.145861	84.350000
2754.509193	101.250000
2755.867583	82.900000
2757.228883	107.850000
2758.586813	106.600000
2759.947651	97.900000
2761.306689	97.500000
2762.662360	91.150000
2764.020938	85.550000
2765.376149	112.250000
2766.731131	87.350000
2768.084316	100.550000
2769.440408	90.250000
2770.793136	100.300000
2772.145636	87.650000
2773.497907	94.450000
2774.851516	92.100000
2776.201765	108.750000
2777.550219	99.700000
2778.901578	106.100000
2780.249579	89.900000
2781.598917	91.150000
2782.946463	74.750000
2784.293783	95.050000
2785.640875	91.900000
2786.986177	84.600000
2788.331253	96.800000
2789.676103	100.100000
2791.020727	74.300000
2792.361999	83.450000
2793.704608	93.900000
2795.046993	107.050000
2796.389152	93.350000
2797.727962	92.800000
2799.069672	83.750000
2800.408033	89.950000
2801.747732	92.050000
2803.085646	84.700000
2804.421774	93.250000
2805.757680	81.400000
2807.094923	71.300000
2808.430382	85.500000
2809.765617	90.200000
2811.099071	101.850000
2812.433861	88.700000
2813.765311	78.950000
2815.099656	90.100000
2816.429102	85.450000
2817.759886	90.200000
2819.090449	83.700000
2820.419232	76.850000
2821.749351	77.050000
2823.077692	79.650000
2824.405812	105.250000
2825.732154	97.850000
2827.059832	83.900000
2828.384178	90.550000
2829.709860	86.400000
2831.033766	88.600000
2832.357452	91.450000
2833.682474	74.250000
2835.004167	82.350000
2836.325641	84.250000
2837.646895	89.050000
2838.967932	92.450000
2840.287195	80.350000
2841.607794	84.850000
2842.926621	85.650000
2844.245231	70.600000
2845.562069	84.150000
2846.878690	76.300000
2848.195094	83.200000
2849.509728	80.450000
2850.825697	72.050000
2852.138347	84.600000
2853.452331	77.500000
2854.766099	78.650000
2856.079650	76.150000
2857.391435	85.250000
2858.701453	76.550000
2860.012806	89.550000
2861.320844	75.300000
2862.630216	83.700000
2863.939373	89.150000
2865.248316	75.350000
2866.555494	84.300000
2867.860910	81.150000
2869.167659	85.300000
2870.472647	69.150000
2871.777420	84.900000
2873.080433	91.900000
2874.386326	96.000000
2875.687365	74.700000
2876.989737	87.100000
2878.290351	77.550000
2879.592297	73.050000
2880.894031	75.950000
2882.192461	76.450000
2883.492224	85.150000
2884.790230	68.750000
2886.088024	72.800000
2887.384062	76.900000
2888.681432	65.050000
2889.977048	89.150000
2891.272452	76.800000
2892.567645	79.700000
2893.859541	60.600000
2895.154312	67.300000
2896.445788	75.550000
2897.738596	77.650000
2899.031194	63.200000
2900.320497	88.150000
2901.611134	73.850000
2902.900019	76.950000
2904.190236	74.550000
2905.477162	79.300000
2906.765420	80.200000
2908.051929	83.550000
2909.338229	64.900000
2910.624321	74.900000
2911.908665	78.450000
2913.195881	78.300000
2914.478270	72.000000
2915.761991	67.150000
2917.043965	79.050000
2918.325733	83.250000
2919.605755	54.350000
2920.888648	79.850000
2922.169794	71.200000
2923.447659	80.100000
2924.728393	65.700000
2926.005847	78.650000
2927.283094	67.750000
2928.558599	77.700000
2929.836972	74.850000
2931.110531	74.950000
2932.386957	61.150000
2933.661642	67.850000
2934.934586	79.200000
2936.208862	82.700000
2937.481398	68.550000
2938.753729	69.200000
2940.022788	67.850000
2941.294712	75.900000
2942.564898	77.150000
2943.834880	71.500000
2945.104659	73.100000
2946.372702	71.050000
2947.639008	54.150000
2948.905112	76.600000
2950.172547	60.900000
2951.438246	74.850000
2952.703744	65.800000
2953.969039	69.250000
2955.231069	68.100000
2956.494429	58.300000
2957.757588	76.050000
2959.019015	65.500000
2960.281771	81.900000
2961.542795	67.900000
2962.802089	68.700000
2964.061182	61.550000
2965.320076	77.950000
2966.578769	87.600000
2967.837261	55.300000
2969.094025	63.750000
2970.350590	66.400000
2971.605426	85.350000
2972.861592	58.150000
2974.114503	76.600000
2975.368742	61.900000
2976.622783	66.200000
2977.875098	68.100000
2979.127215	71.100000
2980.377607	62.250000
2981.630854	61.750000
2982.879324	75.400000
2984.130649	74.200000
2985.378724	77.250000
2986.626602	82.200000
2987.874284	62.450000
2989.121768	76.950000
2990.367531	56.950000
2991.613098	64.450000
2992.859992	67.500000
2994.103642	63.500000
2995.348619	56.100000
2996.590354	72.300000
2997.834940	70.250000
2999.077807	68.550000
3000.317433	58.050000
3001.559909	71.600000
3002.799145	54.700000
3004.039709	63.750000
3005.278556	59.450000
3006.517209	69.100000
3007.754146	65.000000
3008.992411	73.850000
3010.228960	62.150000
3011.465316	65.650000
3012.701478	65.650000
3013.935926	52.500000
3015.170181	64.000000
3016.404244	56.700000
3017.636593	61.300000
3018.867231	63.200000
3020.100715	55.500000
3021.332488	63.550000
3022.562549	63.500000
3023.792419	67.000000
3025.020579	59.200000
3026.250066	72.650000
3027.477843	57.500000
3028.705429	71.450000
3029.934341	74.600000
3031.158511	70.300000
3032.385524	53.900000
3033.609314	53.600000
3034.834429	53.900000
3036.057839	56.400000
3037.281058	55.500000
3038.502572	63.650000
3039.726927	68.250000
3040.946547	73.250000
3042.167493	69.100000
3043.388249	65.650000
3044.607303	77.650000
3045.827681	61.700000
3047.044843	60.750000
3048.263330	51.750000
3049.480116	64.150000
3050.696713	70.500000
3051.913123	63.900000
3053.126319	48.350000
3054.342353	61.150000
3055.555175	56.750000
3056.770834	61.800000
3057.981771	66.600000
3059.194032	50.200000
3060.406106	50.300000
3061.617994	48.150000
3062.828185	58.900000
3064.038189	54.750000
3065.248007	62.050000
3066.456129	47.300000
3067.664066	63.050000
3068.870307	59.100000
3070.077873	55.000000
3071.283744	50.000000
3072.489430	45.000000
3073.694932	68.150000
3074.898740	78.800000
3076.103872	51.000000
3077.307311	60.350000
3078.509059	53.200000
3079.710622	57.100000
3080.912002	66.300000
3082.113198	66.250000
3083.312704	49.900000
3084.512027	53.050000
3085.712673	50.100000
3086.911629	54.100000
3088.107391	66.800000
3089.305981	58.300000
3090.501378	53.000000
3091.698099	64.900000
3092.891627	44.650000
3094.087983	48.000000
3095.282652	58.900000
3096.474131	51.600000
3097.669942	47.350000
3098.861058	44.600000
3100.053498	55.600000
3101.242749	57.250000
3102.434827	59.150000
3103.625221	44.300000
3104.812429	57.050000
3106.000959	56.600000
3107.190812	55.400000
3108.377480	55.650000
3109.563969	67.850000
3110.750279	61.750000
3111.937910	48.800000
3113.122359	63.300000
3114.305129	65.900000
3115.490721	55.400000
3116.674634	51.050000
3117.856867	46.200000
3119.038923	51.000000
3120.220800	51.500000
3121.402499	55.150000
3122.582521	48.150000
3123.760866	55.500000
3124.942031	49.900000
3126.120021	55.150000
3127.297834	54.500000
3128.475470	59.200000
3129.651431	49.100000
3130.827216	51.950000
3132.004321	60.750000
3133.179753	55.950000
3134.353511	48.900000
3135.525596	55.600000
3136.699003	68.350000
3137.872233	51.900000
3139.043792	54.650000
3140.216671	70.800000
3141.386383	44.700000
3142.557416	58.900000
3143.726778	56.000000
3144.894471	57.150000
3146.064979	47.250000
3147.230829	50.600000
3148.400987	46.450000
3149.566488	36.650000
3150.731816	52.150000
3151.896970	65.050000
3153.061951	53.700000
3154.228251	61.450000
3155.389898	50.550000
3156.552866	47.600000
3157.715661	61.850000
3158.878283	56.300000
3160.039239	47.950000
3161.200024	63.400000
3162.360636	53.400000
3163.519584	62.850000
3164.678361	51.150000
3165.836965	33.500000
3166.995398	60.100000
3168.153660	53.600000
3169.310259	48.800000
3170.465197	44.700000
3171.621454	49.550000
3172.776050	45.550000
3173.930476	52.200000
3175.083242	46.350000
3176.235837	48.950000
3177.388263	34.850000
3178.540518	50.550000
3179.692604	37.650000
3180.841543	52.400000
3181.993289	45.550000
3183.143378	42.300000
3184.291810	43.200000
3185.440072	44.750000
3186.588166	36.100000
3187.736091	49.200000
3188.882360	45.550000
3190.028461	56.250000
3191.172908	74.750000
3192.317187	64.650000
3193.461297	46.900000
3194.606726	59.600000
3195.749016	63.550000
3196.891139	46.550000
3198.033094	43.200000
3199.174882	49.600000
3200.316503	48.550000
3201.454989	52.900000
3202.594792	59.300000
3203.735912	51.200000
3204.873899	47.650000
3206.010235	46.150000
3207.146407	48.650000
3208.283895	60.750000
3209.419735	51.150000
3210.556892	45.900000
3211.689436	45.550000
3212.826261	63.600000
3213.958476	46.250000
3215.092007	50.650000
3216.225373	49.000000
3217.355613	69.700000
3218.488650	54.900000
3219.618561	52.950000
3220.749788	50.650000
3221.877891	49.950000
3223.008790	54.350000
3224.138045	55.550000
3225.265657	38.550000
3226.390146	68.900000
3227.518911	54.150000
3228.644554	52.450000
3229.770034	55.400000
3230.893873	55.150000
3232.020507	68.200000
3233.142543	64.100000
3234.265895	51.350000
3235.389085	67.150000
3236.512112	71.850000
3237.633501	62.150000
3238.754727	68.200000
3239.874315	78.900000
3240.993742	70.350000
3242.111532	68.750000
3243.232113	72.400000
3244.349581	65.850000
3245.466888	53.300000
3246.584035	79.350000
3247.699545	63.050000
3248.816371	64.300000
3249.930087	52.050000
3251.046592	52.250000
3252.161462	64.750000
3253.273224	67.000000
3254.384827	61.650000
3255.497745	54.600000
3256.610503	47.900000
3257.720155	57.600000
3258.831122	42.550000
3259.941930	59.050000
3261.051106	61.600000
3262.158651	58.900000
3263.267511	53.300000
3264.376212	43.350000
3265.481811	52.450000
3266.588725	56.550000
3267.694009	51.350000
3268.800607	51.700000
3269.904105	51.700000
3271.008917	56.950000
3272.113572	42.950000
3273.215129	38.900000
3274.316529	43.550000
3275.419243	46.300000
3276.521801	45.600000
3277.621262	54.450000
3278.723507	36.550000
3279.822656	45.550000
3280.920180	38.650000
3282.017550	48.450000
3283.117701	43.500000
3284.214760	42.250000
3285.311663	43.850000
3286.408411	29.150000
3287.500600	47.000000
3288.597039	43.550000
3289.691855	44.500000
3290.786517	58.050000
3291.879556	51.850000
3292.972442	44.650000
3294.063707	49.100000
3295.156285	30.400000
3296.247243	56.000000
3297.336581	56.400000
3298.425766	38.350000
3299.516263	46.350000
3300.603677	34.850000
3301.690937	30.300000
3302.779510	42.900000
3303.867930	56.150000
3304.951804	31.650000
3306.039919	39.500000
3307.124952	42.000000
3308.208370	45.400000
3309.293100	42.150000
3310.376214	42.450000
3311.460641	35.400000
3312.541989	52.000000
3313.624649	39.700000
3314.705694	37.450000
3315.786589	38.550000
3316.865871	47.050000
3317.945002	53.800000
3319.025445	59.250000
3320.102813	43.500000
3321.181493	54.800000
3322.258561	45.900000
3323.335479	26.350000
3324.410787	41.900000
3325.485945	37.550000
3326.562414	44.100000
3327.635813	42.700000
3328.709062	37.900000
3329.783623	48.400000
3330.856575	40.300000
3331.927918	46.650000
3333.000572	41.600000
3334.070159	35.650000
3335.141058	44.550000
3336.210349	46.050000
3337.280950	46.700000
3338.349946	52.950000
3339.417335	38.200000
3340.483119	49.550000
3341.553129	34.900000
3342.620076	44.500000
3343.683961	45.500000
3344.750613	34.900000
3345.815662	31.800000
3346.879107	30.750000
3347.942406	43.350000
3349.005558	35.350000
3350.068564	42.800000
3351.131424	43.500000
3352.192681	47.400000
3353.250882	47.000000
3354.313304	35.750000
3355.372670	38.550000
3356.431890	41.350000
3357.492419	44.250000
3358.548440	46.450000
3359.607224	44.050000
3360.661501	47.400000
3361.718542	48.300000
3362.773984	38.700000
3363.830736	47.150000
3364.885889	29.300000
3365.939445	37.800000
3366.991404	37.400000
3368.046126	35.700000
3369.097798	50.650000
3370.149327	41.050000
3371.202164	31.900000
3372.251954	47.050000
3373.303053	46.700000
3374.351105	35.750000
3375.401918	31.700000
3376.449685	40.800000
3377.497310	20.600000
3378.544793	40.750000
3379.590683	35.500000
3380.637881	50.900000
3381.682037	44.150000
3382.728951	27.700000
3383.774273	47.400000
3384.816554	41.450000
3385.858694	33.400000
3386.902143	45.450000
3387.945450	30.650000
3388.987167	40.300000
3390.028744	28.700000
3391.070179	25.300000
3392.110026	41.800000
3393.148284	44.150000
3394.187850	32.650000
3395.227276	33.400000
3396.265114	43.400000
3397.301365	37.850000
3398.337477	26.400000
3399.374895	28.800000
3400.409281	30.800000
3401.444975	40.450000
3402.480529	34.150000
3403.513052	37.200000
3404.548327	36.650000
3405.580573	45.500000
3406.612680	44.250000
3407.643203	55.100000
3408.675033	46.850000
3409.706725	43.150000
3410.735389	20.850000
3411.763916	36.300000
3412.793749	32.800000
3413.823445	37.550000
3414.850115	31.750000
3415.878091	52.550000
3416.903044	42.600000
3417.930746	43.900000
3418.955424	33.400000
3419.981409	40.100000
3421.005815	49.450000
3422.030084	27.300000
3423.052774	27.100000
3424.075328	39.950000
3425.099188	37.200000
3426.120028	28.700000
3427.140732	37.050000
3428.162742	36.250000
3429.181734	34.200000
3430.200591	34.550000
3431.220754	31.000000
3432.237900	45.800000
