-117.018713	9.300000
-114.349113	23.100000
-111.682448	8.300000
-109.016535	0.300000
-106.353555	11.500000
-103.689144	-1.700000
-101.027664	4.000000
-98.364755	2.100000
-95.706952	29.200000
-93.047720	-25.300000
-90.389236	18.600000
-87.733677	10.600000
-85.076688	-8.700000
-82.424798	10.100000
-79.771478	3.200000
-77.121077	-3.100000
-74.469248	10.000000
-71.822509	11.500000
-69.174340	29.400000
-66.526914	17.100000
-63.882403	7.800000
-61.236462	-0.700000
-58.595603	-1.300000
-55.953315	6.800000
-53.313936	20.100000
-50.673128	0.500000
-48.033059	13.900000
-45.398064	0.500000
-42.761639	17.400000
-40.128117	-0.500000
-37.493167	7.400000
-34.863283	-11.200000
-32.229805	5.000000
-29.601390	4.900000
-26.973709	-17.500000
-24.344599	-5.800000
-21.720547	13.700000
-19.092904	-7.300000
-16.470316	35.400000
-13.848458	23.800000
-11.227331	19.400000
-8.606935	45.800000
-5.989426	192.400000
-3.370489	615.600000
-0.754438	1585.300000
1.860886	1715.700000
4.475481	765.900000
7.087195	61.900000
9.700337	25.400000
12.308445	-1.100000
14.920134	24.000000
17.526793	4.100000
20.134881	5.800000
22.742243	5.900000
25.344581	2.600000
27.950498	-18.400000
30.551392	13.800000
33.153714	-13.900000
35.751018	4.500000
38.351899	14.100000
40.947764	13.900000
43.545057	-18.800000
46.141632	11.800000
48.733197	6.100000
51.326190	-2.500000
53.916322	9.700000
56.507881	17.600000
59.096582	-8.000000
61.686709	2.400000
64.271837	11.300000
66.858393	-4.000000
69.444235	0.900000
72.027222	17.000000
74.611637	-2.800000
77.188923	12.600000
79.769775	2.600000
82.347778	19.600000
84.925070	-2.100000
87.503790	-6.600000
90.077527	-2.000000
92.652691	6.400000
95.225012	-12.800000
97.796626	22.700000
100.365399	2.000000
102.935599	11.800000
105.502960	-4.300000
108.071748	-6.400000
110.637699	-3.400000
113.200815	17.000000
115.767487	5.400000
118.324937	3.600000
120.888073	-9.000000
123.446250	10.700000
126.007981	-7.600000
128.564755	37.600000
131.122955	27.300000
133.676203	52.400000
136.228753	69.500000
138.784853	91.500000
141.336005	114.600000
143.886460	148.900000
146.436217	163.700000
148.983155	177.200000
151.529398	190.700000
154.077066	186.600000
156.624038	202.500000
159.166075	183.500000
161.707418	178.100000
164.248068	185.500000
166.790144	159.700000
169.329408	188.400000
171.865863	180.700000
174.401628	189.300000
176.938818	162.700000
179.475317	189.800000
182.009010	166.700000
184.539899	172.100000
187.070100	171.500000
189.601727	179.900000
192.130552	162.800000
194.656578	181.300000
197.181918	183.500000
199.708683	159.300000
202.232652	179.700000
204.755936	170.900000
207.278534	177.700000
209.798340	180.000000
212.317463	137.200000
214.835903	176.500000
217.355768	177.400000
219.868630	174.700000
222.385024	172.300000
224.900737	174.400000
227.411559	169.700000
229.923806	180.300000
232.433270	172.800000
234.942056	175.600000
237.450164	170.100000
239.959696	176.300000
242.464347	180.000000
244.968322	187.300000
247.473721	170.600000
249.974245	193.500000
252.478292	194.900000
254.975369	203.000000
257.475969	170.100000
259.973797	189.900000
262.470952	176.700000
264.967434	174.400000
267.459053	173.800000
269.954192	194.100000
272.446564	188.500000
274.938266	176.000000
277.427205	178.100000
279.917567	189.100000
282.405168	192.100000
284.890009	191.700000
287.378365	192.100000
289.859781	205.800000
292.344711	170.900000
294.824796	210.200000
297.308393	213.700000
299.787147	214.900000
302.267324	208.000000
304.744750	191.200000
307.221512	207.500000
309.697610	207.500000
312.170960	211.300000
314.643649	192.900000
317.115676	200.400000
319.587041	211.200000
322.055663	229.600000
324.523625	222.500000
326.993010	202.800000
329.457572	202.500000
331.925638	189.700000
334.388883	214.100000
336.851472	186.800000
339.313404	184.100000
341.774679	189.300000
344.233219	177.000000
346.693183	174.300000
349.150413	191.000000
351.606989	177.600000
354.062911	181.500000
356.516103	164.100000
358.970718	195.800000
361.420531	171.700000
363.873840	188.600000
366.322350	172.400000
368.770210	187.100000
371.219492	151.800000
373.663979	178.800000
376.109890	173.200000
378.555150	169.600000
380.997692	152.500000
383.439586	186.400000
385.880832	155.700000
388.319364	180.400000
390.759316	169.200000
393.196555	176.500000
395.631083	164.500000
398.069097	188.300000
400.502336	167.500000
402.936995	174.200000
405.366882	162.700000
407.800254	166.900000
410.228856	178.800000
412.656816	181.700000
415.086198	160.100000
417.510814	131.200000
419.936852	144.900000
422.362249	157.100000
424.787006	166.100000
427.207004	184.900000
429.628424	164.200000
432.047148	170.700000
434.467292	154.400000
436.884741	176.100000
439.303610	156.600000
441.719785	153.800000
444.131214	151.700000
446.546119	158.500000
448.958335	164.400000
451.369916	170.000000
453.780863	142.900000
456.189123	143.800000
458.596752	161.300000
461.003748	145.300000
463.410113	147.300000
465.813795	153.700000
468.216847	135.500000
470.619269	137.500000
473.021061	142.500000
475.420175	155.300000
477.820709	133.800000
480.220614	154.100000
482.615797	144.400000
485.014446	145.500000
487.408374	136.200000
489.801677	160.200000
492.194355	145.200000
494.586407	174.900000
496.979877	151.900000
499.368635	180.400000
501.754727	169.700000
504.142239	198.000000
506.529128	241.500000
508.913352	331.300000
511.298996	446.400000
513.681978	617.500000
516.062299	837.200000
518.444039	1022.500000
520.823120	1026.700000
523.203619	938.900000
525.581462	762.100000
527.956648	644.500000
530.331218	521.800000
532.707205	475.900000
535.080540	410.400000
537.455292	347.000000
539.825358	330.600000
542.194810	321.900000
544.565679	290.000000
546.931867	256.000000
549.299474	270.000000
551.664435	271.900000
554.028784	235.700000
556.392519	230.800000
558.757672	233.000000
561.118153	226.500000
563.480052	195.300000
565.839310	210.300000
568.195930	205.400000
570.555996	196.800000
572.909370	184.500000
575.266189	197.600000
577.620373	189.300000
579.973948	169.900000
582.326916	177.000000
584.677251	189.700000
587.029004	162.600000
589.374080	162.100000
591.724619	156.400000
594.068486	167.800000
596.417814	150.100000
598.762493	158.700000
601.104548	163.200000
603.448020	161.600000
605.788869	158.000000
608.129115	158.300000
610.466741	142.600000
612.807802	161.500000
615.144226	163.800000
617.482066	174.200000
619.817289	171.200000
622.149895	186.200000
624.483919	153.700000
626.815328	173.100000
629.146139	128.200000
631.476352	162.900000
633.805968	150.900000
636.130960	169.100000
638.461394	164.600000
640.787207	151.600000
643.110412	154.800000
645.435034	167.300000
647.757050	140.700000
650.078472	159.000000
652.397291	146.500000
654.717527	155.000000
657.037169	142.000000
659.354210	154.800000
661.670659	153.700000
663.984510	151.400000
666.299777	121.400000
668.612447	147.700000
670.926532	139.000000
673.236017	142.100000
675.546918	142.400000
677.855226	156.600000
680.162946	140.900000
682.472080	152.300000
684.776622	140.300000
687.080578	136.000000
689.383948	134.200000
691.688732	144.600000
693.988929	108.200000
696.290542	131.600000
698.591569	121.200000
700.888015	146.500000
703.185876	143.100000
705.483153	149.600000
707.779847	129.900000
710.071965	131.600000
712.367494	128.400000
714.658449	126.300000
716.950819	119.300000
719.240614	131.100000
721.529828	151.700000
723.818463	116.200000
726.104525	103.000000
728.392002	123.300000
730.676907	124.500000
732.961235	113.600000
735.242994	135.400000
737.526167	126.600000
739.808763	104.800000
742.086803	126.200000
744.366257	104.900000
746.645136	133.500000
748.923440	120.900000
751.197193	124.200000
753.472361	111.000000
755.746955	127.100000
758.018990	116.500000
760.292438	128.000000
762.563328	124.900000
764.831662	146.300000
767.101409	132.400000
769.368601	127.000000
771.635224	122.100000
773.901276	129.600000
776.164777	142.800000
778.429691	134.100000
780.694035	127.800000
782.953850	126.900000
785.215077	121.000000
787.475737	129.200000
789.733851	112.100000
791.989420	125.700000
794.248379	123.400000
796.500840	143.200000
798.758668	109.800000
801.011977	132.000000
803.262746	111.000000
805.514927	138.500000
807.764569	118.000000
810.015623	128.700000
812.262167	108.100000
814.510122	137.100000
816.755543	126.900000
819.002375	129.000000
821.248646	101.500000
823.490412	103.100000
825.735562	113.900000
827.974239	122.900000
830.216298	132.500000
832.453859	113.600000
834.692832	120.600000
836.929278	129.500000
839.167135	120.700000
841.402467	124.000000
843.635276	124.500000
845.869495	124.600000
848.101193	110.800000
850.332336	105.700000
852.562924	94.100000
854.792958	127.000000
857.022438	102.500000
859.247436	108.800000
861.475808	116.500000
863.699702	125.200000
865.925007	122.900000
868.145836	126.000000
870.370037	117.900000
872.589765	132.900000
874.810903	122.200000
877.031491	116.700000
879.249570	96.700000
881.469058	118.800000
883.684080	93.000000
885.898554	124.500000
888.112481	115.000000
890.325861	132.300000
892.538693	95.900000
894.750978	121.600000
896.960762	122.500000
899.170000	119.500000
901.378693	116.000000
903.584886	127.100000
905.792489	110.700000
907.997595	131.600000
910.202157	111.600000
912.404224	133.600000
914.607700	115.600000
916.808682	138.200000
919.009122	98.400000
921.210971	116.100000
923.406429	141.300000
925.605245	119.900000
927.799624	130.700000
929.997360	134.700000
932.190660	138.800000
934.385369	156.500000
936.577591	146.500000
938.769276	190.800000
940.960423	172.700000
943.149087	194.300000
945.337215	185.900000
947.522861	200.300000
949.711861	186.700000
951.896437	211.100000
954.080478	190.300000
956.267869	177.100000
958.446956	177.600000
960.629394	193.600000
962.811298	194.900000
964.990727	198.300000
967.167684	185.300000
969.346049	198.000000
971.525821	192.800000
973.699244	206.800000
975.876013	185.900000
978.048375	206.500000
980.222145	197.600000
982.391511	184.100000
984.564221	190.300000
986.734466	218.900000
988.904181	176.300000
991.073368	158.900000
993.238158	167.800000
995.406290	154.700000
997.570026	150.100000
999.735170	134.100000
1001.897854	136.700000
1004.060013	173.700000
1006.219715	124.800000
1008.378892	136.400000
1010.539476	150.300000
1012.697605	158.800000
1014.855211	137.000000
1017.012293	140.000000
1019.168851	130.800000
1021.321030	127.400000
1023.474616	138.200000
1025.627680	131.600000
1027.778295	111.100000
1029.930316	151.700000
1032.077965	106.500000
1034.228945	139.200000
1036.375554	131.700000
1038.521644	119.100000
1040.667216	122.600000
1042.814193	116.500000
1044.954881	134.900000
1047.098898	133.000000
1049.240476	104.700000
1051.381536	132.700000
1053.524002	116.600000
1055.660187	147.000000
1057.799699	129.700000
1059.934855	130.100000
1062.073336	137.700000
1064.207464	135.200000
1066.341078	130.100000
1068.476096	128.300000
1070.606766	119.100000
1072.738840	136.100000
1074.868485	121.000000
1076.997617	126.000000
1079.126239	124.200000
1081.254349	132.400000
1083.380033	135.100000
1085.505207	133.100000
1087.631785	135.300000
1089.754025	130.500000
1091.877670	111.500000
1093.996980	137.100000
1096.121519	122.700000
1098.239814	121.900000
1100.359512	122.300000
1102.476793	121.800000
1104.593566	118.100000
1106.709833	130.400000
1108.823685	113.800000
1110.938940	122.200000
1113.049873	138.300000
1115.164118	131.300000
1117.274042	108.000000
1119.385370	124.900000
1121.496193	96.600000
1123.602700	118.200000
1125.712516	123.200000
1127.818019	134.900000
1129.924924	127.400000
1132.025614	112.000000
1134.131516	100.600000
1136.233109	123.500000
1138.336105	100.100000
1140.438600	119.100000
1142.534888	116.300000
1144.636383	133.500000
1146.733576	123.700000
1148.830271	113.600000
1150.926467	113.900000
1153.022165	120.400000
1155.117366	110.900000
1157.210170	122.400000
1159.304376	120.400000
1161.392391	114.400000
1163.485604	90.100000
1165.572630	106.700000
1167.662954	108.600000
1169.748990	122.300000
1171.838324	116.000000
1173.921477	103.000000
1176.006033	129.700000
1178.091990	135.100000
1180.173665	111.000000
1182.256741	112.600000
1184.337432	112.200000
1186.417632	125.800000
1188.497340	121.700000
1190.576557	114.500000
1192.653391	109.900000
1194.727845	128.400000
1196.805591	100.900000
1198.879066	137.400000
1200.953943	121.000000
1203.024552	133.400000
1205.096562	114.100000
1207.166196	117.600000
1209.237231	107.600000
1211.307779	125.400000
1213.374065	128.500000
1215.441752	117.100000
1217.507066	135.800000
1219.573781	145.500000
1221.636241	123.900000
1223.701985	126.200000
1225.763475	141.100000
1227.826366	137.400000
1229.886888	126.200000
1231.946928	146.500000
1234.006484	123.400000
1236.063676	125.400000
1238.120385	101.600000
1240.174732	123.200000
1242.232360	121.700000
1244.287624	137.200000
1246.338649	109.300000
1248.391073	102.000000
1250.443017	115.600000
1252.492603	97.700000
1254.541710	123.500000
1256.590338	125.800000
1258.638488	117.800000
1260.686160	117.600000
1262.729601	113.300000
1264.776318	122.900000
1266.820681	131.900000
1268.864568	112.500000
1270.906103	112.300000
1272.945289	115.800000
1274.987748	101.700000
1277.025984	117.900000
1279.065619	87.300000
1281.104778	104.500000
1283.139720	105.200000
1285.176060	115.100000
1287.210056	117.000000
1289.245449	106.100000
1291.276629	95.400000
1293.309208	113.400000
1295.341315	116.300000
1297.371081	116.300000
1299.402244	105.800000
1301.429200	121.100000
1303.457555	102.000000
1305.481704	97.600000
1307.509119	113.800000
1309.532331	109.200000
1311.556941	128.600000
1313.579216	115.300000
1315.602889	110.100000
1317.624229	121.800000
1319.645102	117.700000
1321.665507	110.700000
1323.681719	88.800000
1325.699328	128.300000
1327.714609	101.600000
1329.733149	100.300000
1331.747499	107.400000
1333.759524	102.000000
1335.774807	108.400000
1337.785904	100.900000
1339.798397	122.100000
1341.806708	110.600000
1343.818275	130.100000
1345.823803	111.700000
1347.832586	108.800000
1349.837191	115.900000
1351.845050	114.200000
1353.852447	107.500000
1355.853813	108.500000
1357.856575	123.800000
1359.858878	111.600000
1361.860721	105.300000
1363.862104	100.700000
1365.861173	123.300000
1367.859785	99.300000
1369.857937	117.100000
1371.855632	114.000000
1373.849164	125.400000
1375.844091	108.600000
1377.838562	133.300000
1379.832576	120.600000
1381.824283	132.800000
1383.815534	112.800000
1385.804480	118.700000
1387.794821	108.900000
1389.784708	110.300000
1391.772290	104.700000
1393.759419	124.300000
1395.744246	102.800000
1397.730468	111.400000
1399.714389	98.700000
1401.697858	106.900000
1403.680875	115.000000
1405.661594	101.100000
1407.643707	95.600000
1409.623523	111.000000
1411.602889	108.900000
1413.578116	112.500000
1415.556581	92.200000
1417.532753	127.000000
1419.508475	99.200000
1421.483749	122.400000
1423.456731	108.500000
1425.429265	117.700000
1427.401351	105.200000
1429.372990	108.200000
1431.340500	104.600000
1433.313084	132.200000
1435.277862	104.100000
1437.247713	118.300000
1439.213439	90.000000
1441.180559	114.200000
1443.145395	96.300000
1445.106111	122.400000
1447.071895	108.300000
1449.031724	125.100000
1450.992947	116.800000
1452.955561	109.100000
1454.914061	94.300000
1456.872119	121.600000
1458.829735	95.100000
1460.786908	140.800000
1462.741806	103.600000
1464.698097	116.300000
1466.652113	109.000000
1468.605688	112.600000
1470.556991	120.100000
1472.509686	130.000000
1474.460110	116.600000
1476.410095	126.500000
1478.359641	121.800000
1480.306918	122.800000
1482.251927	123.500000
1484.198329	112.200000
1486.144293	122.300000
1488.089820	120.100000
1490.033081	110.200000
1491.975906	126.100000
1493.916468	115.300000
1495.858422	118.700000
1497.798113	116.700000
1499.737369	124.300000
1501.676191	117.500000
1503.612753	109.800000
1505.550706	98.700000
1507.486400	114.500000
1509.421661	116.300000
1511.354665	124.500000
1513.287237	105.500000
1515.219377	102.100000
1517.151085	99.300000
1519.080540	110.300000
1521.011385	103.900000
1522.941798	111.900000
1524.868139	102.500000
1526.795870	109.500000
1528.721352	100.200000
1530.646404	112.700000
1532.571027	100.900000
1534.495220	99.500000
1536.417167	96.900000
1538.340504	100.400000
1540.261594	90.100000
1542.180440	109.300000
1544.100676	88.500000
1546.018668	104.400000
1547.936234	85.300000
1549.851559	108.100000
1551.768273	112.800000
1553.680932	116.500000
1555.596794	104.100000
1557.510418	114.100000
1559.421803	116.700000
1561.334578	112.700000
1563.243303	94.100000
1565.153417	112.500000
1567.063108	111.300000
1568.972376	110.700000
1570.879409	105.800000
1572.784210	110.100000
1574.690400	121.300000
1576.594359	126.000000
1578.497896	113.300000
1580.401013	123.800000
1582.301900	134.500000
1584.204176	143.900000
1586.104223	154.000000
1588.005659	151.200000
1589.903061	170.900000
1591.800044	171.100000
1593.696609	186.900000
1595.594561	192.300000
1597.486679	194.700000
1599.381991	184.800000
1601.276885	159.900000
1603.169557	157.900000
1605.061812	116.100000
1606.951848	121.500000
1608.841468	110.700000
1610.730673	122.500000
1612.619462	113.200000
1614.506035	100.300000
1616.393995	91.100000
1618.277938	122.900000
1620.163268	108.300000
1622.048185	108.000000
1623.930888	100.200000
1625.814978	101.900000
1627.695056	99.300000
1629.576522	95.800000
1631.455776	78.300000
1633.336418	101.000000
1635.211255	95.800000
1637.091073	105.300000
1638.966887	111.300000
1640.842290	105.400000
1642.719079	80.700000
1644.590071	107.500000
1646.464246	89.600000
1648.334421	92.700000
1650.207777	70.500000
1652.078930	110.100000
1653.947881	104.600000
1655.818218	107.700000
1657.684562	99.700000
1659.552291	94.600000
1661.417821	93.500000
1663.284737	92.000000
1665.147663	91.600000
1667.011976	106.100000
1668.874092	93.800000
1670.735803	102.700000
1672.598899	80.700000
1674.459801	108.400000
1676.318510	86.100000
1678.176815	97.100000
1680.036504	111.200000
1681.890427	108.500000
1683.747523	79.300000
1685.604215	95.100000
1687.456932	86.300000
1689.312820	91.500000
1691.164734	102.300000
1693.016247	99.200000
1694.867359	81.200000
1696.718070	114.300000
1698.568381	96.100000
1700.416508	91.900000
1702.266019	91.500000
1704.109780	81.200000
1705.958492	77.700000
1707.801457	107.500000
1709.647588	93.700000
1711.489758	93.400000
1713.335093	91.500000
1715.174687	108.900000
1717.015665	90.900000
1718.858026	111.100000
1720.696430	88.700000
1722.536218	86.900000
1724.373831	82.500000
1726.211049	84.600000
1728.046093	94.300000
1729.882520	103.300000
1731.716774	67.300000
1733.550635	86.200000
1735.384101	103.000000
1737.213621	93.300000
1739.046301	90.000000
1740.875035	102.400000
1742.706928	76.300000
1744.534878	95.600000
1746.362436	82.100000
1748.189603	90.900000
1750.016378	84.800000
1751.842761	78.800000
1753.665208	66.100000
1755.490810	80.900000
1757.312477	93.000000
1759.135525	110.700000
1760.956413	80.500000
1762.776912	89.900000
1764.598791	99.500000
1766.414971	101.600000
1768.234303	88.700000
1770.049708	90.700000
1771.868264	69.600000
1773.682894	97.400000
1775.497137	73.400000
1777.310994	77.900000
1779.124464	77.700000
1780.935780	79.100000
1782.748478	92.100000
1784.560790	110.300000
1786.369183	94.000000
1788.178958	95.700000
1789.984818	80.100000
1791.793823	102.200000
1793.598915	85.700000
1795.405388	71.600000
1797.211476	73.500000
1799.013655	90.900000
1800.818978	99.900000
1802.620391	80.000000
1804.423186	81.700000
1806.222074	96.200000
1808.022343	97.300000
1809.822230	89.500000
1811.619975	91.500000
1813.417340	81.600000
1815.214324	63.800000
1817.010929	102.400000
1818.805393	76.400000
1820.601238	88.400000
1822.391427	98.900000
1824.186513	85.300000
1825.975946	80.200000
1827.768517	97.500000
1829.558952	90.500000
1831.347252	95.300000
1833.138688	76.100000
1834.924479	89.200000
1836.711649	74.200000
1838.496687	82.300000
1840.284858	78.200000
1842.069145	84.800000
1843.851301	79.700000
1845.634837	99.600000
1847.416244	91.000000
1849.199029	114.500000
1850.977935	81.600000
1852.758219	84.200000
1854.536378	67.600000
1856.315914	96.400000
1858.093326	91.500000
1859.868615	91.900000
1861.645281	71.400000
1863.419825	92.000000
1865.195746	94.300000
1866.966048	97.300000
1868.739477	91.900000
1870.510786	93.200000
1872.281724	90.500000
1874.054040	83.800000
1875.820742	90.000000
1877.590569	94.700000
1879.356533	102.100000
1881.125621	80.500000
1882.890847	76.700000
1884.655705	73.900000
1886.421939	72.100000
1888.184316	88.700000
1889.946324	73.900000
1891.707966	93.500000
1893.469240	96.000000
1895.230148	88.300000
1896.990688	93.000000
1898.749120	89.200000
1900.507185	85.100000
1902.263143	86.600000
1904.020477	92.700000
1905.777446	99.600000
1907.532308	70.400000
1909.285066	91.800000
1911.037459	81.900000
1912.791229	83.600000
1914.542895	73.300000
1916.292458	91.300000
1918.043398	69.200000
1919.793974	73.000000
1921.540712	88.100000
1923.288825	122.700000
1925.034840	78.100000
1926.782229	96.300000
1928.527520	71.700000
1930.270715	97.500000
1932.015284	83.000000
1933.757757	80.100000
1935.499871	62.800000
1937.241624	97.500000
1938.983017	88.900000
1940.722317	89.500000
1942.461258	78.200000
1944.199840	100.800000
1945.936331	82.300000
1947.672463	85.450000
1949.409971	88.600000
1951.143656	87.700000
1952.878716	78.600000
1954.611687	92.300000
1956.344302	80.700000
1958.076560	102.600000
1959.808462	90.500000
1961.538279	88.200000
1963.266010	87.600000
1964.995116	108.500000
1966.723866	82.700000
1968.450533	96.500000
1970.176846	62.600000
1971.904533	94.500000
1973.626683	79.400000
1975.351934	84.400000
1977.073378	92.500000
1978.797922	87.200000
1980.520387	95.200000
1982.239048	83.600000
1983.960809	88.900000
1985.678767	108.900000
1987.398098	78.900000
1989.113630	98.700000
1990.833982	84.900000
1992.550536	100.600000
1994.263293	82.100000
1995.979146	91.700000
1997.692927	88.700000
1999.406358	77.800000
2001.117718	89.100000
2002.830450	97.900000
2004.539392	77.800000
2006.251426	102.800000
2007.957951	68.200000
2009.667569	80.500000
2011.375119	92.400000
2013.082322	100.700000
2014.787459	78.100000
2016.492250	105.100000
2018.198412	70.300000
2019.900791	82.600000
2021.604543	56.400000
2023.306232	68.200000
2025.007575	77.000000
2026.708574	101.500000
2028.407511	84.900000
2030.107820	96.600000
2031.804353	64.700000
2033.502258	85.300000
2035.198105	78.400000
2036.897037	87.000000
2038.590483	71.500000
2040.285300	94.900000
2041.979774	84.700000
2043.670481	99.200000
2045.364270	72.200000
2047.054294	94.400000
2048.745688	76.500000
2050.435028	88.200000
2052.125740	63.900000
2053.812688	98.200000
2055.499296	72.900000
2057.187275	81.200000
2058.871494	88.400000
2060.557083	76.800000
2062.242333	65.100000
2063.925535	94.800000
2065.610107	80.800000
2067.289215	103.700000
2068.973110	62.300000
2070.651543	93.300000
2072.333054	103.700000
2074.010813	79.400000
2075.688236	72.900000
2077.367028	95.600000
2079.043777	68.200000
2080.718485	92.800000
2082.394563	84.200000
2084.068599	94.600000
2085.742301	81.000000
2087.415667	94.900000
2089.086994	78.000000
2090.757987	92.400000
2092.428646	76.400000
2094.098971	88.000000
2095.768962	81.300000
2097.436917	76.400000
2099.104538	68.600000
2100.770126	107.700000
2102.437082	72.300000
2104.102005	94.500000
2105.766596	79.600000
2107.429155	92.600000
2109.093082	70.100000
2110.754978	79.600000
2112.416544	72.300000
2114.077778	77.000000
2115.736983	75.700000
2117.395859	87.800000
2119.054405	75.500000
2120.712620	96.900000
2122.367113	76.900000
2124.024670	91.400000
2125.681897	77.300000
2127.335404	80.100000
2128.990278	94.200000
2130.641433	72.500000
2132.295651	71.800000
2133.946151	103.100000
2135.598019	91.100000
2137.244478	77.500000
2138.895691	80.000000
2140.543192	84.200000
2142.192059	82.400000
2143.838907	88.800000
2145.485430	90.100000
2147.131627	87.100000
2148.774116	81.600000
2150.419662	86.600000
2152.061502	79.200000
2153.706399	83.200000
2155.347591	79.000000
2156.988459	85.900000
2158.629004	81.200000
2160.267536	84.000000
2161.907434	86.700000
2163.543632	88.100000
2165.181196	76.700000
2166.818438	83.900000
2168.453670	67.400000
2170.088580	81.800000
2171.723169	82.300000
2173.357437	104.800000
2174.988011	75.200000
2176.621637	83.200000
2178.251571	87.200000
2179.882870	89.900000
2181.512164	78.400000
2183.141139	94.400000
2184.769794	79.900000
2186.398130	86.600000
2188.024463	73.800000
2189.650478	85.700000
2191.274492	70.300000
2192.899871	91.200000
2194.523249	75.100000
2196.147992	98.300000
2197.769054	77.500000
2199.389799	96.600000
2201.011908	70.600000
2202.632020	70.100000
2204.250136	80.800000
2205.867936	70.800000
2207.485420	84.900000
2209.102590	73.700000
2210.719443	68.700000
2212.335982	80.600000
2213.950528	49.300000
2215.563081	89.800000
2217.176998	81.700000
2218.788924	66.700000
2220.402213	67.700000
2222.013512	82.700000
2223.622821	63.900000
2225.233493	68.100000
2226.842177	67.800000
2228.450549	84.100000
2230.056934	80.700000
2231.664681	65.500000
2233.270443	70.600000
2234.875893	85.400000
2236.479358	71.200000
2238.084186	71.900000
2239.687030	59.900000
2241.287891	90.500000
2242.890115	75.700000
2244.490357	86.800000
2246.091961	58.600000
2247.689912	91.800000
2249.289226	70.700000
2250.886560	93.400000
2252.483586	60.800000
2254.081973	73.300000
2255.676713	84.800000
2257.269475	89.900000
2258.863600	82.300000
2260.459086	81.700000
2262.050927	62.600000
2263.642462	81.900000
2265.235359	76.100000
2266.822946	71.000000
2268.415229	92.800000
2270.002205	73.400000
2271.592210	59.800000
2273.176910	60.400000
2274.766304	65.000000
2276.350395	78.400000
2277.935848	59.900000
2279.519332	69.200000
2281.105841	66.800000
2282.688717	84.000000
2284.271290	70.200000
2285.853559	75.700000
2287.432198	56.500000
2289.013862	79.500000
2290.591897	80.500000
2292.172955	89.600000
2293.750386	86.500000
2295.325854	83.400000
2296.904344	63.400000
2298.479210	87.500000
2300.053775	84.500000
2301.628039	73.100000
2303.202003	50.000000
2304.775667	80.600000
2306.349031	72.900000
2307.918776	72.500000
2309.488222	76.900000
2311.060686	78.500000
2312.627876	76.000000
2314.198083	74.900000
2315.764677	86.900000
2317.332629	95.400000
2318.898627	81.100000
2320.464327	87.800000
2322.029729	73.000000
2323.593178	88.400000
2325.157986	92.300000
2326.719186	84.200000
2328.283399	70.100000
2329.842352	97.000000
2331.404318	84.300000
2332.964334	83.500000
2334.524054	75.400000
2336.081826	88.000000
2337.639302	70.000000
2339.196484	82.000000
2340.751718	80.500000
2342.306659	84.000000
2343.861305	63.000000
2345.415658	90.500000
2346.969717	76.000000
2348.523483	69.900000
2350.075304	63.500000
2351.625182	81.700000
2353.178069	53.300000
2354.725712	82.600000
2356.276364	73.500000
2357.823424	80.600000
2359.371842	85.800000
2360.919969	83.300000
2362.464507	76.600000
2364.010403	83.400000
2365.554361	69.400000
2367.099675	102.100000
2368.641405	71.300000
2370.184493	81.200000
2371.725644	61.000000
2373.266506	79.700000
2374.807079	68.800000
2376.347363	73.100000
2377.887358	62.900000
2379.423774	88.300000
2380.963192	47.900000
2382.499033	77.000000
2384.036231	75.100000
2385.569853	91.200000
2387.106475	81.300000
2388.641167	75.800000
2390.173929	70.700000
2391.706404	84.200000
2393.236951	76.100000
2394.770496	59.900000
2396.298830	79.500000
2397.828520	77.900000
2399.357925	69.600000
2400.887045	86.600000
2402.415879	76.400000
2403.939509	82.900000
2405.467774	58.000000
2406.990837	71.700000
2408.518533	77.100000
2410.039390	96.200000
2411.564879	79.100000
2413.086809	90.200000
2414.610093	67.100000
2416.131457	74.800000
2417.650901	76.700000
2419.171700	75.600000
2420.690580	94.200000
2422.209179	73.600000
2423.725859	65.200000
2425.243895	83.200000
2426.761649	61.000000
2428.275851	83.300000
2429.789774	81.400000
2431.303416	63.700000
2432.818412	55.000000
2434.329861	92.000000
2435.842663	66.800000
2437.353553	65.200000
2438.864164	67.700000
2440.372863	80.200000
2441.884548	71.500000
2443.392690	80.900000
2444.900554	79.700000
2446.408139	81.400000
2447.912185	67.000000
2449.419215	73.400000
2450.924337	59.400000
2452.429182	77.600000
2453.932120	59.900000
2455.434782	83.600000
2456.937167	58.500000
2458.437647	65.500000
2459.939480	70.500000
2461.439408	84.600000
2462.939061	72.900000
2464.438439	76.000000
2465.935914	80.400000
2467.431487	91.300000
2468.930040	66.200000
2470.425065	73.300000
2471.921442	78.800000
2473.414293	87.500000
2474.908497	77.600000
2476.402427	86.500000
2477.892833	68.600000
2479.386217	97.200000
2480.877703	56.600000
2482.367292	84.600000
2483.856609	76.100000
2485.344030	74.700000
2486.834427	70.000000
2488.321306	72.900000
2489.809536	60.400000
2491.294249	82.300000
2492.778692	66.400000
2494.264487	82.800000
2495.748390	66.300000
2497.233643	86.200000
2498.713763	65.900000
2500.196856	72.700000
2501.678058	76.300000
2503.158991	77.800000
2504.638035	71.000000
2506.116810	90.600000
2507.595317	74.000000
2509.073555	57.200000
2510.551526	68.800000
2512.025991	79.900000
2513.503426	75.400000
2514.977356	85.700000
2516.452638	53.400000
2517.927652	99.000000
2519.399165	63.300000
2520.872029	88.900000
2522.343010	62.200000
2523.815341	81.600000
2525.282558	58.400000
2526.752742	83.900000
2528.221045	76.900000
2529.689083	96.300000
2531.156855	69.400000
2532.624363	90.100000
2534.091607	76.600000
2535.555358	73.000000
2537.020459	70.200000
2538.483683	72.600000
2539.948256	65.100000
2541.409341	53.700000
2542.871775	64.500000
2544.333946	100.800000
2545.792630	77.700000
2547.255887	82.200000
2548.714047	70.200000
2550.173557	77.900000
2551.627972	71.900000
2553.086958	67.200000
2554.544072	56.900000
2555.999314	62.800000
2557.454296	75.600000
2558.907408	87.000000
2560.361869	76.000000
2561.814461	81.800000
2563.266793	78.800000
2564.717257	72.500000
2566.170678	39.000000
2567.619016	79.300000
2569.070309	73.400000
2570.519737	70.500000
2571.965692	86.200000
2573.414602	80.400000
2574.860042	67.400000
2576.306829	83.800000
2577.751753	66.900000
2579.196420	72.600000
2580.642434	50.100000
2582.084982	76.900000
2583.528876	57.600000
2584.969306	65.500000
2586.411084	80.700000
2587.851002	71.600000
2589.292267	70.500000
2590.730070	76.600000
2592.170823	65.500000
2593.606514	75.700000
2595.045153	60.300000
2596.481936	81.600000
2597.916863	86.300000
2599.354737	78.600000
2600.787554	64.600000
2602.221718	65.800000
2603.654028	63.800000
2605.087684	75.700000
2606.519487	48.000000
2607.951036	73.700000
2609.382332	77.200000
2610.811777	92.500000
2612.240969	65.600000
2613.668310	62.300000
2615.096998	58.900000
2616.525433	85.700000
2617.950422	74.900000
2619.376756	73.900000
2620.801243	60.900000
2622.227075	75.000000
2623.649463	64.800000
2625.073196	61.700000
2626.495084	56.200000
2627.916721	64.600000
2629.336514	54.900000
2630.757652	81.000000
2632.178540	64.100000
2633.595989	83.800000
2635.016378	72.900000
2636.433330	82.600000
2637.850034	77.900000
2639.266489	81.400000
2640.682696	82.600000
2642.098655	79.200000
2643.512773	74.800000
2644.926643	104.200000
2646.338674	68.300000
2647.752050	69.200000
2649.161996	58.100000
2650.574878	62.900000
2651.984331	77.700000
2653.393538	81.200000
2654.800909	85.000000
2656.211214	98.300000
2657.619683	80.900000
2659.026318	90.300000
2660.432707	84.300000
2661.837262	106.900000
2663.243161	79.400000
2664.647227	90.800000
2666.051048	93.000000
2667.454625	112.800000
2668.856371	91.800000
2670.259460	117.000000
2671.659131	110.100000
2673.060146	137.000000
2674.457745	112.700000
2675.858273	137.100000
2677.255387	137.800000
2678.653844	131.700000
2680.050474	145.800000
2681.446861	146.700000
2682.843006	151.200000
2684.237325	129.000000
2685.632987	135.600000
2687.025240	153.100000
2688.418835	158.000000
2689.810606	155.000000
2691.203720	140.900000
2692.595010	141.700000
2693.984477	142.400000
2695.373704	169.600000
2696.762692	129.400000
2698.153021	118.700000
2699.538367	118.500000
2700.926636	106.500000
2702.313085	109.600000
2703.699295	107.700000
2705.085266	90.800000
2706.467839	105.700000
2707.851754	91.700000
2709.235430	96.700000
2710.618869	80.200000
2711.998912	107.600000
2713.380297	85.400000
2714.759867	110.100000
2716.140777	69.800000
2717.519873	90.200000
2718.897155	74.300000
2720.275778	88.500000
2721.652587	65.300000
2723.029161	75.200000
2724.405499	55.300000
2725.780025	73.600000
2727.155892	67.000000
2728.528373	86.200000
2729.903769	78.800000
2731.274205	76.400000
2732.645981	81.200000
2734.017524	92.700000
2735.387258	64.800000
2736.758332	77.000000
2738.127599	53.300000
2739.496632	78.400000
2740.863859	59.800000
2742.230852	72.400000
2743.597613	69.200000
2744.964141	59.800000
2746.328865	64.700000
2747.693356	66.700000
2749.057616	61.300000
2750.421643	71.200000
2751.785438	66.800000
2753.145861	65.000000
2754.509193	57.100000
2755.867583	62.200000
2757.228883	61.700000
2758.586813	60.200000
2759.947651	52.300000
2761.306689	66.900000
2762.662360	52.300000
2764.020938	81.400000
2765.376149	58.700000
2766.731131	88.700000
2768.084316	70.300000
2769.440408	43.700000
2770.793136	46.500000
2772.145636	50.800000
2773.497907	54.300000
2774.851516	69.100000
2776.201765	55.000000
2777.550219	58.600000
2778.901578	54.000000
2780.249579	75.000000
2781.598917	58.400000
2782.946463	61.400000
2784.293783	58.200000
2785.640875	60.100000
2786.986177	68.400000
2788.331253	64.600000
2789.676103	48.600000
2791.020727	66.500000
2792.361999	50.200000
2793.704608	54.800000
2795.046993	43.300000
2796.389152	66.300000
2797.727962	62.400000
2799.069672	59.300000
2800.408033	43.700000
2801.747732	55.600000
2803.085646	62.300000
2804.421774	76.100000
2805.757680	57.500000
2807.094923	72.400000
2808.430382	35.800000
2809.765617	75.900000
2811.099071	62.500000
2812.433861	61.100000
2813.765311	60.900000
2815.099656	60.400000
2816.429102	50.900000
2817.759886	68.300000
2819.090449	42.200000
2820.419232	67.600000
2821.749351	62.900000
2823.077692	62.900000
2824.405812	56.700000
2825.732154	60.000000
2827.059832	32.700000
2828.384178	66.500000
2829.709860	57.700000
2831.033766	82.500000
2832.357452	41.700000
2833.682474	56.700000
2835.004167	46.400000
2836.325641	75.800000
2837.646895	60.600000
2838.967932	54.700000
2840.287195	72.800000
2841.607794	50.800000
2842.926621	60.100000
2844.245231	61.600000
2845.562069	51.500000
2846.878690	65.700000
2848.195094	49.700000
2849.509728	54.000000
2850.825697	37.100000
2852.138347	55.000000
2853.452331	47.400000
2854.766099	63.200000
2856.079650	63.300000
2857.391435	58.500000
2858.701453	50.800000
2860.012806	53.100000
2861.320844	37.500000
2862.630216	57.500000
2863.939373	59.400000
2865.248316	52.600000
2866.555494	51.800000
2867.860910	41.600000
2869.167659	46.300000
2870.472647	60.100000
2871.777420	42.700000
2873.080433	70.500000
2874.386326	63.800000
2875.687365	73.300000
2876.989737	47.400000
2878.290351	42.600000
2879.592297	38.500000
2880.894031	76.600000
2882.192461	31.700000
2883.492224	47.200000
2884.790230	41.400000
2886.088024	61.400000
2887.384062	54.300000
2888.681432	46.500000
2889.977048	45.700000
2891.272452	44.600000
2892.567645	44.800000
2893.859541	67.000000
2895.154312	53.800000
2896.445788	50.300000
2897.738596	55.800000
2899.031194	63.600000
2900.320497	51.200000
2901.611134	57.500000
2902.900019	58.400000
2904.190236	60.100000
2905.477162	40.600000
2906.765420	53.700000
2908.051929	58.300000
2909.338229	68.300000
2910.624321	49.600000
2911.908665	64.600000
2913.195881	64.900000
2914.478270	46.600000
2915.761991	58.800000
2917.043965	56.600000
2918.325733	38.200000
2919.605755	59.800000
2920.888648	37.400000
2922.169794	55.200000
2923.447659	40.100000
2924.728393	49.800000
2926.005847	60.700000
2927.283094	61.300000
2928.558599	48.600000
2929.836972	64.600000
2931.110531	54.300000
2932.386957	71.600000
2933.661642	40.600000
2934.934586	53.600000
2936.208862	55.300000
2937.481398	78.800000
2938.753729	44.600000
2940.022788	49.000000
2941.294712	68.100000
2942.564898	64.500000
2943.834880	37.100000
2945.104659	55.400000
2946.372702	50.300000
2947.639008	76.300000
2948.905112	36.100000
2950.172547	42.500000
2951.438246	35.200000
2952.703744	54.300000
2953.969039	44.600000
2955.231069	45.900000
2956.494429	54.900000
2957.757588	52.000000
2959.019015	50.700000
2960.281771	65.900000
2961.542795	60.900000
2962.802089	61.200000
2964.061182	23.000000
2965.320076	61.100000
2966.578769	59.700000
2967.837261	46.400000
2969.094025	37.200000
2970.350590	49.200000
2971.605426	63.800000
2972.861592	51.400000
2974.114503	62.700000
2975.368742	57.700000
2976.622783	44.400000
2977.875098	65.900000
2979.127215	54.400000
2980.377607	56.900000
2981.630854	53.800000
2982.879324	65.000000
2984.130649	50.700000
2985.378724	68.900000
2986.626602	43.100000
2987.874284	51.700000
2989.121768	38.200000
2990.367531	59.600000
2991.613098	45.800000
2992.859992	53.500000
2994.103642	50.200000
2995.348619	42.500000
2996.590354	39.800000
2997.834940	49.200000
2999.077807	52.100000
3000.317433	38.100000
3001.559909	49.800000
3002.799145	50.400000
3004.039709	33.100000
3005.278556	53.100000
3006.517209	41.800000
3007.754146	63.200000
3008.992411	47.200000
3010.228960	53.100000
3011.465316	31.700000
3012.701478	49.800000
3013.935926	52.200000
3015.170181	66.500000
3016.404244	50.000000
3017.636593	43.200000
3018.867231	47.400000
3020.100715	58.200000
3021.332488	54.300000
3022.562549	54.200000
3023.792419	62.000000
3025.020579	53.700000
3026.250066	49.900000
3027.477843	50.400000
3028.705429	51.500000
3029.934341	48.000000
3031.158511	36.900000
3032.385524	54.400000
3033.609314	47.900000
3034.834429	61.800000
3036.057839	42.200000
3037.281058	58.000000
3038.502572	42.200000
3039.726927	47.300000
3040.946547	61.600000
3042.167493	50.700000
3043.388249	50.100000
3044.607303	56.300000
3045.827681	28.800000
3047.044843	61.900000
3048.263330	40.000000
3049.480116	48.300000
3050.696713	43.100000
3051.913123	59.100000
3053.126319	40.800000
3054.342353	33.500000
3055.555175	58.500000
3056.770834	62.800000
3057.981771	38.600000
3059.194032	43.000000
3060.406106	31.800000
3061.617994	45.600000
3062.828185	39.500000
3064.038189	48.200000
3065.248007	29.900000
3066.456129	74.800000
3067.664066	55.700000
3068.870307	38.400000
3070.077873	41.300000
3071.283744	46.150000
3072.489430	51.000000
3073.694932	41.700000
3074.898740	37.000000
3076.103872	33.000000
3077.307311	47.100000
3078.509059	41.600000
3079.710622	45.000000
3080.912002	47.500000
3082.113198	37.700000
3083.312704	55.900000
3084.512027	55.800000
3085.712673	47.800000
3086.911629	51.300000
3088.107391	60.900000
3089.305981	27.600000
3090.501378	36.300000
3091.698099	38.000000
3092.891627	40.200000
3094.087983	33.200000
3095.282652	50.000000
3096.474131	28.200000
3097.669942	41.000000
3098.861058	63.100000
3100.053498	47.300000
3101.242749	58.300000
3102.434827	54.700000
3103.625221	31.500000
3104.812429	55.500000
3106.000959	38.500000
3107.190812	50.300000
3108.377480	52.000000
3109.563969	58.600000
3110.750279	45.200000
3111.937910	53.200000
3113.122359	59.300000
3114.305129	55.000000
3115.490721	40.100000
3116.674634	32.900000
3117.856867	50.200000
3119.038923	25.300000
3120.220800	44.000000
3121.402499	35.900000
3122.582521	53.700000
3123.760866	31.100000
3124.942031	43.000000
3126.120021	57.000000
3127.297834	42.600000
3128.475470	40.700000
3129.651431	44.100000
3130.827216	38.100000
3132.004321	47.300000
3133.179753	40.500000
3134.353511	40.200000
3135.525596	51.400000
3136.699003	30.400000
3137.872233	55.900000
3139.043792	34.400000
3140.216671	51.500000
3141.386383	39.000000
3142.557416	50.500000
3143.726778	46.500000
3144.894471	42.700000
3146.064979	45.400000
3147.230829	59.200000
3148.400987	39.900000
3149.566488	59.800000
3150.731816	37.000000
3151.896970	43.000000
3153.061951	37.400000
3154.228251	56.600000
3155.389898	54.800000
3156.552866	43.200000
3157.715661	37.900000
3158.878283	28.500000
3160.039239	47.800000
3161.200024	55.400000
3162.360636	44.600000
3163.519584	40.400000
3164.678361	42.100000
3165.836965	42.800000
3166.995398	52.000000
3168.153660	46.400000
3169.310259	32.300000
3170.465197	39.200000
3171.621454	37.400000
3172.776050	46.800000
3173.930476	43.100000
3175.083242	41.300000
3176.235837	33.300000
3177.388263	43.800000
3178.540518	34.900000
3179.692604	29.700000
3180.841543	54.100000
3181.993289	33.900000
3183.143378	44.800000
3184.291810	53.200000
3185.440072	40.300000
3186.588166	43.000000
3187.736091	39.000000
3188.882360	40.300000
3190.028461	40.600000
3191.172908	55.900000
3192.317187	27.100000
3193.461297	37.600000
3194.606726	33.800000
3195.749016	52.500000
3196.891139	26.100000
3198.033094	52.800000
3199.174882	43.600000
3200.316503	41.000000
3201.454989	47.200000
3202.594792	51.000000
3203.735912	39.300000
3204.873899	40.500000
3206.010235	40.800000
3207.146407	48.500000
3208.283895	41.400000
3209.419735	43.600000
3210.556892	37.900000
3211.689436	56.100000
3212.826261	47.300000
3213.958476	44.900000
3215.092007	45.100000
3216.225373	53.200000
3217.355613	38.300000
3218.488650	31.700000
3219.618561	35.800000
3220.749788	42.700000
3221.877891	34.600000
3223.008790	47.300000
3224.138045	36.600000
3225.265657	38.000000
3226.390146	44.700000
3227.518911	50.700000
3228.644554	43.800000
3229.770034	19.800000
3230.893873	11.300000
3232.020507	45.500000
3233.142543	37.600000
3234.265895	42.300000
3235.389085	26.300000
3236.512112	48.000000
3237.633501	49.400000
3238.754727	45.500000
3239.874315	44.900000
3240.993742	33.400000
3242.111532	29.900000
3243.232113	27.700000
3244.349581	21.300000
3245.466888	56.900000
3246.584035	37.200000
3247.699545	54.600000
3248.816371	39.200000
3249.930087	57.300000
3251.046592	48.300000
3252.161462	57.400000
3253.273224	48.900000
3254.384827	34.600000
3255.497745	56.300000
3256.610503	62.000000
3257.720155	32.300000
3258.831122	50.300000
3259.941930	41.500000
3261.051106	34.700000
3262.158651	46.600000
3263.267511	40.300000
3264.376212	29.000000
3265.481811	54.700000
3266.588725	35.100000
3267.694009	51.300000
3268.800607	36.200000
3269.904105	40.900000
3271.008917	38.200000
3272.113572	32.600000
3273.215129	28.000000
3274.316529	49.200000
3275.419243	39.600000
3276.521801	27.900000
3277.621262	38.300000
3278.723507	55.400000
3279.822656	19.400000
3280.920180	37.800000
3282.017550	34.600000
3283.117701	58.900000
3284.214760	32.200000
3285.311663	49.700000
3286.408411	36.400000
3287.500600	44.500000
3288.597039	39.000000
3289.691855	56.800000
3290.786517	32.900000
3291.879556	27.000000
3292.972442	22.200000
3294.063707	48.900000
3295.156285	33.600000
3296.247243	39.500000
3297.336581	31.000000
3298.425766	31.100000
3299.516263	43.500000
3300.603677	47.600000
3301.690937	39.200000
3302.779510	39.900000
3303.867930	23.200000
3304.951804	33.800000
3306.039919	53.300000
3307.124952	55.000000
3308.208370	36.300000
3309.293100	40.000000
3310.376214	31.400000
3311.460641	27.200000
3312.541989	26.800000
3313.624649	33.300000
3314.705694	12.300000
3315.786589	55.900000
3316.865871	38.100000
3317.945002	50.300000
3319.025445	31.300000
3320.102813	46.000000
3321.181493	42.400000
3322.258561	32.000000
3323.335479	34.700000
3324.410787	47.700000
3325.485945	37.000000
3326.562414	63.100000
3327.635813	25.500000
3328.709062	37.300000
3329.783623	20.500000
3330.856575	48.900000
3331.927918	41.800000
3333.000572	53.200000
3334.070159	33.100000
3335.141058	41.000000
3336.210349	27.300000
3337.280950	49.000000
3338.349946	30.200000
3339.417335	41.800000
3340.483119	28.100000
3341.553129	34.700000
3342.620076	25.900000
3343.683961	26.000000
3344.750613	31.600000
3345.815662	52.200000
3346.879107	23.200000
3347.942406	37.400000
3349.005558	38.900000
3350.068564	38.700000
3351.131424	26.100000
3352.192681	27.400000
3353.250882	41.100000
3354.313304	30.900000
3355.372670	52.800000
3356.431890	44.000000
3357.492419	36.700000
3358.548440	42.700000
3359.607224	39.800000
3360.661501	45.000000
3361.718542	50.900000
3362.773984	34.200000
3363.830736	37.600000
3364.885889	51.000000
3365.939445	28.000000
3366.991404	52.600000
3368.046126	38.000000
3369.097798	43.400000
3370.149327	47.100000
3371.202164	35.500000
3372.251954	24.800000
3373.303053	33.400000
3374.351105	48.600000
3375.401918	50.400000
3376.449685	48.900000
3377.497310	42.300000
3378.544793	43.900000
3379.590683	56.000000
3380.637881	44.900000
3381.682037	37.000000
3382.728951	30.700000
3383.774273	41.400000
3384.816554	28.900000
3385.858694	46.700000
3386.902143	37.500000
3387.945450	49.200000
3388.987167	39.500000
3390.028744	57.700000
3391.070179	23.900000
3392.110026	42.700000
3393.148284	31.600000
3394.187850	37.200000
3395.227276	41.900000
3396.265114	52.000000
3397.301365	36.800000
3398.337477	35.500000
3399.374895	26.200000
3400.409281	35.600000
3401.444975	47.600000
3402.480529	38.600000
3403.513052	41.300000
3404.548327	37.200000
3405.580573	42.200000
3406.612680	38.000000
3407.643203	36.200000
3408.675033	33.500000
3409.706725	40.800000
3410.735389	37.400000
3411.763916	31.700000
3412.793749	30.700000
3413.823445	25.800000
3414.850115	35.900000
3415.878091	37.400000
3416.903044	46.400000
3417.930746	36.300000
3418.955424	41.300000
3419.981409	22.900000
3421.005815	50.300000
3422.030084	32.700000
3423.052774	37.900000
3424.075328	34.200000
3425.099188	45.900000
3426.120028	49.000000
3427.140732	48.500000
3428.162742	22.700000
3429.181734	38.800000
3430.200591	23.500000
3431.220754	40.200000
3432.237900	40.500000
