-117.018713	7.000000
-114.349113	9.250000
-111.682448	-3.650000
-109.016535	-0.500000
-106.353555	-2.600000
-103.689144	5.750000
-101.027664	3.500000
-98.364755	1.800000
-95.706952	-6.500000
-93.047720	7.850000
-90.389236	-16.100000
-87.733677	-4.100000
-85.076688	10.700000
-82.424798	-1.100000
-79.771478	9.050000
-77.121077	4.850000
-74.469248	3.200000
-71.822509	8.250000
-69.174340	4.050000
-66.526914	-13.000000
-63.882403	-9.050000
-61.236462	5.350000
-58.595603	-3.350000
-55.953315	13.000000
-53.313936	-9.400000
-50.673128	-1.100000
-48.033059	3.300000
-45.398064	6.000000
-42.761639	5.250000
-40.128117	10.300000
-37.493167	10.100000
-34.863283	-4.750000
-32.229805	14.450000
-29.601390	7.900000
-26.973709	19.100000
-24.344599	17.800000
-21.720547	9.300000
-19.092904	28.550000
-16.470316	22.550000
-13.848458	34.700000
-11.227331	69.450000
-8.606935	161.600000
-5.989426	554.050000
-3.370489	1821.900000
-0.754438	4841.100000
1.860886	7764.050000
4.475481	3970.900000
7.087195	448.850000
9.700337	74.350000
12.308445	41.300000
14.920134	21.000000
17.526793	21.500000
20.134881	24.250000
22.742243	8.100000
25.344581	2.200000
27.950498	14.900000
30.551392	3.900000
33.153714	8.550000
35.751018	4.550000
38.351899	-3.850000
40.947764	5.900000
43.545057	2.300000
46.141632	8.750000
48.733197	-2.150000
51.326190	1.500000
53.916322	-1.550000
56.507881	15.650000
59.096582	10.500000
61.686709	3.250000
64.271837	7.050000
66.858393	-2.050000
69.444235	-4.400000
72.027222	8.100000
74.611637	5.950000
77.188923	7.100000
79.769775	8.800000
82.347778	2.450000
84.925070	7.650000
87.503790	4.850000
90.077527	6.350000
92.652691	23.200000
95.225012	-1.750000
97.796626	8.400000
100.365399	9.150000
102.935599	4.850000
105.502960	14.150000
108.071748	12.050000
110.637699	4.900000
113.200815	17.750000
115.767487	10.200000
118.324937	16.850000
120.888073	24.500000
123.446250	43.100000
126.007981	54.150000
128.564755	67.100000
131.122955	96.900000
133.676203	140.050000
136.228753	201.400000
138.784853	305.350000
141.336005	394.050000
143.886460	498.900000
146.436217	589.700000
148.983155	652.800000
151.529398	701.000000
154.077066	698.700000
156.624038	712.850000
159.166075	694.550000
161.707418	664.050000
164.248068	691.650000
166.790144	673.050000
169.329408	669.950000
171.865863	664.750000
174.401628	689.200000
176.938818	684.450000
179.475317	671.050000
182.009010	658.500000
184.539899	672.850000
187.070100	655.600000
189.601727	662.850000
192.130552	670.800000
194.656578	647.400000
197.181918	650.200000
199.708683	648.950000
202.232652	639.450000
204.755936	665.300000
207.278534	658.000000
209.798340	665.150000
212.317463	664.350000
214.835903	664.400000
217.355768	675.150000
219.868630	680.450000
222.385024	685.600000
224.900737	715.550000
227.411559	731.000000
229.923806	738.700000
232.433270	753.300000
234.942056	738.950000
237.450164	741.300000
239.959696	729.950000
242.464347	728.850000
244.968322	723.700000
247.473721	734.750000
249.974245	745.050000
252.478292	725.850000
254.975369	737.500000
257.475969	733.550000
259.973797	726.550000
262.470952	693.650000
264.967434	713.550000
267.459053	718.850000
269.954192	700.450000
272.446564	707.400000
274.938266	722.650000
277.427205	730.300000
279.917567	727.150000
282.405168	748.450000
284.890009	744.750000
287.378365	730.250000
289.859781	759.300000
292.344711	752.500000
294.824796	779.100000
297.308393	795.200000
299.787147	814.050000
302.267324	846.300000
304.744750	824.150000
307.221512	822.750000
309.697610	804.100000
312.170960	787.500000
314.643649	741.550000
317.115676	764.250000
319.587041	780.550000
322.055663	770.900000
324.523625	754.950000
326.993010	733.950000
329.457572	703.950000
331.925638	703.250000
334.388883	675.800000
336.851472	685.300000
339.313404	672.700000
341.774679	656.300000
344.233219	640.800000
346.693183	642.450000
349.150413	632.200000
351.606989	615.000000
354.062911	601.700000
356.516103	607.900000
358.970718	595.800000
361.420531	609.100000
363.873840	612.150000
366.322350	597.450000
368.770210	589.050000
371.219492	585.050000
373.663979	579.900000
376.109890	563.750000
378.555150	549.850000
380.997692	542.700000
383.439586	546.000000
385.880832	518.700000
388.319364	523.700000
390.759316	538.650000
393.196555	534.400000
395.631083	513.600000
398.069097	516.450000
400.502336	522.850000
402.936995	510.650000
405.366882	519.600000
407.800254	513.800000
410.228856	510.100000
412.656816	502.950000
415.086198	486.900000
417.510814	488.200000
419.936852	469.650000
422.362249	495.100000
424.787006	475.300000
427.207004	477.900000
429.628424	479.400000
432.047148	467.350000
434.467292	467.500000
436.884741	466.700000
439.303610	461.750000
441.719785	449.250000
444.131214	430.350000
446.546119	416.550000
448.958335	403.900000
451.369916	406.650000
453.780863	387.950000
456.189123	395.400000
458.596752	367.350000
461.003748	382.500000
463.410113	368.150000
465.813795	374.800000
468.216847	374.000000
470.619269	373.950000
473.021061	377.800000
475.420175	389.450000
477.820709	381.800000
480.220614	394.100000
482.615797	399.500000
485.014446	415.800000
487.408374	426.100000
489.801677	458.350000
492.194355	466.900000
494.586407	510.500000
496.979877	572.250000
499.368635	653.450000
501.754727	771.250000
504.142239	972.850000
506.529128	1315.300000
508.913352	1847.350000
511.298996	2644.300000
513.681978	3753.000000
516.062299	4913.450000
518.444039	5766.100000
520.823120	5616.000000
523.203619	5022.650000
525.581462	4137.300000
527.956648	3420.000000
530.331218	2841.050000
532.707205	2441.850000
535.080540	2100.550000
537.455292	1878.550000
539.825358	1695.800000
542.194810	1540.500000
544.565679	1367.900000
546.931867	1274.350000
549.299474	1177.900000
551.664435	1114.900000
554.028784	1076.250000
556.392519	979.950000
558.757672	962.150000
561.118153	944.050000
563.480052	921.350000
565.839310	872.850000
568.195930	842.800000
570.555996	838.150000
572.909370	789.100000
575.266189	774.350000
577.620373	759.800000
579.973948	745.050000
582.326916	729.900000
584.677251	719.200000
587.029004	694.950000
589.374080	672.750000
591.724619	654.550000
594.068486	635.800000
596.417814	611.550000
598.762493	625.000000
601.104548	603.200000
603.448020	582.350000
605.788869	604.000000
608.129115	603.300000
610.466741	620.550000
612.807802	655.750000
615.144226	691.700000
617.482066	705.150000
619.817289	682.650000
622.149895	642.150000
624.483919	629.750000
626.815328	608.400000
629.146139	589.350000
631.476352	588.900000
633.805968	558.350000
636.130960	563.350000
638.461394	566.600000
640.787207	556.300000
643.110412	530.650000
645.435034	535.700000
647.757050	503.500000
650.078472	520.600000
652.397291	511.700000
654.717527	518.650000
657.037169	508.100000
659.354210	509.250000
661.670659	512.700000
663.984510	486.100000
666.299777	514.600000
668.612447	502.850000
670.926532	516.600000
673.236017	512.700000
675.546918	520.900000
677.855226	510.900000
680.162946	518.500000
682.472080	505.100000
684.776622	510.550000
687.080578	497.050000
689.383948	489.300000
691.688732	472.100000
693.988929	466.700000
696.290542	453.450000
698.591569	446.600000
700.888015	437.900000
703.185876	426.100000
705.483153	407.500000
707.779847	416.800000
710.071965	413.000000
712.367494	403.850000
714.658449	404.050000
716.950819	395.250000
719.240614	401.800000
721.529828	394.700000
723.818463	406.950000
726.104525	406.250000
728.392002	397.450000
730.676907	382.800000
732.961235	401.550000
735.242994	399.550000
737.526167	392.200000
739.808763	385.600000
742.086803	390.400000
744.366257	395.750000
746.645136	373.500000
748.923440	393.600000
751.197193	387.550000
753.472361	380.350000
755.746955	381.850000
758.018990	400.400000
760.292438	389.950000
762.563328	387.750000
764.831662	360.100000
767.101409	385.750000
769.368601	368.000000
771.635224	368.450000
773.901276	385.850000
776.164777	399.350000
778.429691	392.700000
780.694035	388.250000
782.953850	394.450000
785.215077	392.200000
787.475737	391.250000
789.733851	378.850000
791.989420	381.400000
794.248379	391.850000
796.500840	403.350000
798.758668	407.500000
801.011977	398.650000
803.262746	400.750000
805.514927	401.900000
807.764569	392.250000
810.015623	401.250000
812.262167	399.900000
814.510122	409.150000
816.755543	403.300000
819.002375	388.900000
821.248646	382.450000
823.490412	378.550000
825.735562	361.950000
827.974239	376.100000
830.216298	354.200000
832.453859	351.650000
834.692832	343.800000
836.929278	364.350000
839.167135	382.600000
841.402467	375.550000
843.635276	372.700000
845.869495	377.150000
848.101193	368.300000
850.332336	374.250000
852.562924	360.000000
854.792958	373.950000
857.022438	361.700000
859.247436	380.850000
861.475808	372.800000
863.699702	371.150000
865.925007	358.650000
868.145836	349.350000
870.370037	357.000000
872.589765	356.700000
874.810903	352.250000
877.031491	356.300000
879.249570	369.650000
881.469058	376.450000
883.684080	358.100000
885.898554	354.500000
888.112481	360.350000
890.325861	355.300000
892.538693	342.250000
894.750978	357.800000
896.960762	356.950000
899.170000	357.100000
901.378693	358.350000
903.584886	356.900000
905.792489	361.750000
907.997595	365.900000
910.202157	367.550000
912.404224	361.500000
914.607700	382.000000
916.808682	389.700000
919.009122	371.550000
921.210971	407.200000
923.406429	431.000000
925.605245	461.650000
927.799624	491.450000
929.997360	537.750000
932.190660	606.300000
934.385369	654.800000
936.577591	728.700000
938.769276	789.250000
940.960423	836.950000
943.149087	843.700000
945.337215	846.750000
947.522861	842.700000
949.711861	834.650000
951.896437	804.400000
954.080478	817.650000
956.267869	806.000000
958.446956	799.850000
960.629394	811.400000
962.811298	803.000000
964.990727	808.400000
967.167684	834.950000
969.346049	822.350000
971.525821	822.800000
973.699244	844.150000
975.876013	816.450000
978.048375	829.200000
980.222145	815.050000
982.391511	813.000000
984.564221	763.650000
986.734466	713.300000
988.904181	654.650000
991.073368	587.650000
993.238158	544.700000
995.406290	518.600000
997.570026	486.950000
999.735170	466.900000
1001.897854	441.950000
1004.060013	425.400000
1006.219715	416.950000
1008.378892	421.700000
1010.539476	403.000000
1012.697605	409.900000
1014.855211	387.850000
1017.012293	381.300000
1019.168851	359.900000
1021.321030	381.750000
1023.474616	341.100000
1025.627680	342.950000
1027.778295	346.100000
1029.930316	337.000000
1032.077965	332.350000
1034.228945	317.400000
1036.375554	321.350000
1038.521644	321.250000
1040.667216	316.600000
1042.814193	310.700000
1044.954881	312.200000
1047.098898	313.050000
1049.240476	301.150000
1051.381536	311.500000
1053.524002	314.050000
1055.660187	309.300000
1057.799699	311.700000
1059.934855	313.500000
1062.073336	320.050000
1064.207464	305.050000
1066.341078	311.500000
1068.476096	300.650000
1070.606766	298.600000
1072.738840	302.400000
1074.868485	293.450000
1076.997617	289.850000
1079.126239	290.700000
1081.254349	301.150000
1083.380033	287.950000
1085.505207	295.450000
1087.631785	297.000000
1089.754025	303.100000
1091.877670	293.550000
1093.996980	305.200000
1096.121519	302.150000
1098.239814	296.250000
1100.359512	295.000000
1102.476793	289.900000
1104.593566	292.300000
1106.709833	293.800000
1108.823685	294.850000
1110.938940	293.900000
1113.049873	276.600000
1115.164118	277.550000
1117.274042	291.250000
1119.385370	279.250000
1121.496193	257.400000
1123.602700	275.300000
1125.712516	254.900000
1127.818019	255.150000
1129.924924	262.500000
1132.025614	261.900000
1134.131516	255.950000
1136.233109	255.000000
1138.336105	260.000000
1140.438600	246.250000
1142.534888	263.650000
1144.636383	253.550000
1146.733576	248.700000
1148.830271	253.300000
1150.926467	232.850000
1153.022165	247.750000
1155.117366	249.050000
1157.210170	248.750000
1159.304376	255.400000
1161.392391	267.750000
1163.485604	259.350000
1165.572630	251.200000
1167.662954	258.650000
1169.748990	250.200000
1171.838324	225.950000
1173.921477	257.700000
1176.006033	252.000000
1178.091990	264.550000
1180.173665	253.300000
1182.256741	264.150000
1184.337432	266.000000
1186.417632	267.050000
1188.497340	260.150000
1190.576557	273.500000
1192.653391	241.950000
1194.727845	240.100000
1196.805591	251.200000
1198.879066	247.500000
1200.953943	268.150000
1203.024552	252.850000
1205.096562	269.950000
1207.166196	247.650000
1209.237231	246.900000
1211.307779	255.250000
1213.374065	233.000000
1215.441752	241.000000
1217.507066	245.550000
1219.573781	241.100000
1221.636241	257.400000
1223.701985	228.650000
1225.763475	250.600000
1227.826366	236.200000
1229.886888	228.150000
1231.946928	242.500000
1234.006484	259.600000
1236.063676	253.550000
1238.120385	255.900000
1240.174732	259.000000
1242.232360	256.400000
1244.287624	259.500000
1246.338649	262.150000
1248.391073	260.000000
1250.443017	250.850000
1252.492603	250.750000
1254.541710	259.950000
1256.590338	256.750000
1258.638488	250.750000
1260.686160	274.550000
1262.729601	271.200000
1264.776318	259.050000
1266.820681	259.700000
1268.864568	269.450000
1270.906103	260.300000
1272.945289	245.650000
1274.987748	266.600000
1277.025984	250.150000
1279.065619	258.800000
1281.104778	264.050000
1283.139720	271.500000
1285.176060	259.350000
1287.210056	260.850000
1289.245449	241.250000
1291.276629	253.550000
1293.309208	248.350000
1295.341315	254.650000
1297.371081	244.650000
1299.402244	250.350000
1301.429200	251.450000
1303.457555	242.300000
1305.481704	239.450000
1307.509119	222.450000
1309.532331	237.450000
1311.556941	237.750000
1313.579216	243.800000
1315.602889	236.850000
1317.624229	245.100000
1319.645102	254.350000
1321.665507	241.200000
1323.681719	236.350000
1325.699328	227.700000
1327.714609	224.450000
1329.733149	216.900000
1331.747499	227.700000
1333.759524	222.000000
1335.774807	242.400000
1337.785904	224.550000
1339.798397	238.400000
1341.806708	242.550000
1343.818275	218.700000
1345.823803	227.150000
1347.832586	236.250000
1349.837191	214.550000
1351.845050	226.000000
1353.852447	239.900000
1355.853813	232.200000
1357.856575	223.200000
1359.858878	225.800000
1361.860721	229.300000
1363.862104	220.650000
1365.861173	238.500000
1367.859785	226.350000
1369.857937	230.100000
1371.855632	232.950000
1373.849164	226.800000
1375.844091	215.100000
1377.838562	222.000000
1379.832576	224.800000
1381.824283	215.100000
1383.815534	222.300000
1385.804480	217.900000
1387.794821	222.450000
1389.784708	212.700000
1391.772290	221.600000
1393.759419	222.900000
1395.744246	218.950000
1397.730468	221.500000
1399.714389	218.450000
1401.697858	217.850000
1403.680875	220.400000
1405.661594	219.350000
1407.643707	221.350000
1409.623523	223.850000
1411.602889	221.550000
1413.578116	221.200000
1415.556581	224.950000
1417.532753	223.600000
1419.508475	227.500000
1421.483749	222.900000
1423.456731	219.400000
1425.429265	238.450000
1427.401351	231.000000
1429.372990	237.550000
1431.340500	224.050000
1433.313084	222.150000
1435.277862	230.200000
1437.247713	228.500000
1439.213439	216.250000
1441.180559	227.750000
1443.145395	218.250000
1445.106111	234.950000
1447.071895	218.700000
1449.031724	227.550000
1450.992947	228.500000
1452.955561	237.400000
1454.914061	238.800000
1456.872119	246.100000
1458.829735	253.200000
1460.786908	243.300000
1462.741806	235.400000
1464.698097	237.200000
1466.652113	227.600000
1468.605688	243.300000
1470.556991	218.500000
1472.509686	225.500000
1474.460110	223.300000
1476.410095	217.200000
1478.359641	243.850000
1480.306918	216.400000
1482.251927	215.900000
1484.198329	206.500000
1486.144293	207.850000
1488.089820	209.350000
1490.033081	202.050000
1491.975906	209.750000
1493.916468	198.550000
1495.858422	196.450000
1497.798113	201.750000
1499.737369	193.950000
1501.676191	205.600000
1503.612753	188.150000
1505.550706	192.300000
1507.486400	198.750000
1509.421661	208.500000
1511.354665	207.750000
1513.287237	212.600000
1515.219377	212.150000
1517.151085	209.900000
1519.080540	204.550000
1521.011385	201.750000
1522.941798	211.650000
1524.868139	210.700000
1526.795870	214.400000
1528.721352	212.550000
1530.646404	221.400000
1532.571027	212.250000
1534.495220	212.650000
1536.417167	218.800000
1538.340504	217.150000
1540.261594	224.100000
1542.180440	237.050000
1544.100676	225.150000
1546.018668	236.550000
1547.936234	231.050000
1549.851559	235.500000
1551.768273	245.350000
1553.680932	254.900000
1555.596794	235.350000
1557.510418	249.500000
1559.421803	250.450000
1561.334578	261.300000
1563.243303	278.200000
1565.153417	278.700000
1567.063108	290.750000
1568.972376	305.700000
1570.879409	321.000000
1572.784210	362.150000
1574.690400	402.950000
1576.594359	428.950000
1578.497896	472.200000
1580.401013	535.450000
1582.301900	621.950000
1584.204176	695.400000
1586.104223	733.800000
1588.005659	752.100000
1589.903061	687.100000
1591.800044	589.800000
1593.696609	491.900000
1595.594561	429.900000
1597.486679	362.950000
1599.381991	337.200000
1601.276885	296.850000
1603.169557	281.500000
1605.061812	277.500000
1606.951848	291.000000
1608.841468	260.950000
1610.730673	259.650000
1612.619462	248.100000
1614.506035	242.250000
1616.393995	245.850000
1618.277938	232.400000
1620.163268	235.650000
1622.048185	214.050000
1623.930888	223.000000
1625.814978	223.850000
1627.695056	226.550000
1629.576522	211.300000
1631.455776	205.900000
1633.336418	207.150000
1635.211255	206.700000
1637.091073	189.450000
1638.966887	178.050000
1640.842290	191.750000
1642.719079	203.550000
1644.590071	193.500000
1646.464246	193.200000
1648.334421	192.300000
1650.207777	184.350000
1652.078930	187.400000
1653.947881	191.600000
1655.818218	177.150000
1657.684562	175.000000
1659.552291	183.050000
1661.417821	183.200000
1663.284737	171.050000
1665.147663	183.600000
1667.011976	183.850000
1668.874092	181.400000
1670.735803	180.650000
1672.598899	178.650000
1674.459801	176.750000
1676.318510	177.600000
1678.176815	162.000000
1680.036504	176.900000
1681.890427	170.800000
1683.747523	166.900000
1685.604215	171.400000
1687.456932	161.450000
1689.312820	170.300000
1691.164734	165.550000
1693.016247	164.250000
1694.867359	156.500000
1696.718070	158.750000
1698.568381	168.400000
1700.416508	160.000000
1702.266019	151.450000
1704.109780	150.900000
1705.958492	153.450000
1707.801457	177.800000
1709.647588	166.650000
1711.489758	149.200000
1713.335093	163.700000
1715.174687	162.600000
1717.015665	166.550000
1718.858026	161.800000
1720.696430	171.650000
1722.536218	160.250000
1724.373831	170.900000
1726.211049	167.150000
1728.046093	156.250000
1729.882520	164.050000
1731.716774	169.550000
1733.550635	151.650000
1735.384101	178.600000
1737.213621	163.150000
1739.046301	148.150000
1740.875035	159.250000
1742.706928	155.000000
1744.534878	153.650000
1746.362436	165.050000
1748.189603	169.500000
1750.016378	155.050000
1751.842761	156.500000
1753.665208	163.700000
1755.490810	167.900000
1757.312477	153.050000
1759.135525	154.150000
1760.956413	161.750000
1762.776912	163.250000
1764.598791	158.800000
1766.414971	158.850000
1768.234303	160.700000
1770.049708	155.800000
1771.868264	161.900000
1773.682894	150.450000
1775.497137	154.350000
1777.310994	156.650000
1779.124464	142.700000
1780.935780	170.600000
1782.748478	163.650000
1784.560790	150.150000
1786.369183	155.700000
1788.178958	162.150000
1789.984818	167.200000
1791.793823	159.000000
1793.598915	155.900000
1795.405388	160.300000
1797.211476	174.050000
1799.013655	165.100000
1800.818978	155.950000
1802.620391	155.050000
1804.423186	153.750000
1806.222074	155.050000
1808.022343	138.250000
1809.822230	146.050000
1811.619975	147.650000
1813.417340	148.100000
1815.214324	158.050000
1817.010929	154.300000
1818.805393	155.550000
1820.601238	158.400000
1822.391427	155.800000
1824.186513	149.300000
1825.975946	159.400000
1827.768517	146.350000
1829.558952	141.950000
1831.347252	146.050000
1833.138688	150.450000
1834.924479	157.950000
1836.711649	143.650000
1838.496687	146.850000
1840.284858	135.250000
1842.069145	157.650000
1843.851301	142.750000
1845.634837	156.450000
1847.416244	159.100000
1849.199029	175.050000
1850.977935	162.000000
1852.758219	153.900000
1854.536378	167.100000
1856.315914	151.400000
1858.093326	178.550000
1859.868615	145.300000
1861.645281	167.800000
1863.419825	165.900000
1865.195746	161.100000
1866.966048	156.700000
1868.739477	150.750000
1870.510786	162.600000
1872.281724	155.200000
1874.054040	157.150000
1875.820742	164.400000
1877.590569	154.850000
1879.356533	153.800000
1881.125621	164.050000
1882.890847	158.500000
1884.655705	166.850000
1886.421939	164.450000
1888.184316	170.450000
1889.946324	142.750000
1891.707966	154.650000
1893.469240	148.150000
1895.230148	151.050000
1896.990688	153.150000
1898.749120	143.650000
1900.507185	163.900000
1902.263143	143.400000
1904.020477	152.900000
1905.777446	137.350000
1907.532308	148.250000
1909.285066	158.850000
1911.037459	155.300000
1912.791229	136.550000
1914.542895	138.800000
1916.292458	148.800000
1918.043398	143.950000
1919.793974	143.200000
1921.540712	144.050000
1923.288825	131.100000
1925.034840	135.100000
1926.782229	135.700000
1928.527520	143.400000
1930.270715	142.550000
1932.015284	136.000000
1933.757757	141.850000
1935.499871	143.400000
1937.241624	151.750000
1938.983017	133.550000
1940.722317	146.600000
1942.461258	142.450000
1944.199840	149.300000
1945.936331	148.750000
1947.672463	145.800000
1949.409971	142.850000
1951.143656	133.750000
1952.878716	137.150000
1954.611687	144.950000
1956.344302	142.100000
1958.076560	144.850000
1959.808462	151.150000
1961.538279	148.600000
1963.266010	148.700000
1964.995116	152.200000
1966.723866	145.000000
1968.450533	151.600000
1970.176846	146.200000
1971.904533	154.400000
1973.626683	132.650000
1975.351934	136.800000
1977.073378	130.600000
1978.797922	126.750000
1980.520387	143.900000
1982.239048	142.100000
1983.960809	140.250000
1985.678767	135.700000
1987.398098	141.550000
1989.113630	141.350000
1990.833982	138.550000
1992.550536	140.250000
1994.263293	132.750000
1995.979146	139.250000
1997.692927	140.400000
1999.406358	132.450000
2001.117718	138.850000
2002.830450	122.000000
2004.539392	128.800000
2006.251426	140.650000
2007.957951	132.100000
2009.667569	126.250000
2011.375119	123.650000
2013.082322	143.650000
2014.787459	123.500000
2016.492250	127.950000
2018.198412	128.800000
2019.900791	131.150000
2021.604543	126.800000
2023.306232	125.350000
2025.007575	130.650000
2026.708574	145.750000
2028.407511	126.850000
2030.107820	131.850000
2031.804353	130.900000
2033.502258	131.950000
2035.198105	125.150000
2036.897037	133.750000
2038.590483	129.400000
2040.285300	118.650000
2041.979774	133.750000
2043.670481	134.550000
2045.364270	126.200000
2047.054294	114.700000
2048.745688	123.700000
2050.435028	134.200000
2052.125740	124.850000
2053.812688	127.450000
2055.499296	118.550000
2057.187275	128.600000
2058.871494	137.750000
2060.557083	129.600000
2062.242333	129.100000
2063.925535	128.900000
2065.610107	135.800000
2067.289215	120.950000
2068.973110	133.850000
2070.651543	125.150000
2072.333054	131.800000
2074.010813	131.500000
2075.688236	138.450000
2077.367028	125.550000
2079.043777	127.100000
2080.718485	137.300000
2082.394563	143.750000
2084.068599	127.400000
2085.742301	139.750000
2087.415667	138.850000
2089.086994	125.450000
2090.757987	123.500000
2092.428646	128.050000
2094.098971	134.400000
2095.768962	130.500000
2097.436917	133.600000
2099.104538	130.400000
2100.770126	127.600000
2102.437082	131.600000
2104.102005	131.700000
2105.766596	135.750000
2107.429155	143.300000
2109.093082	130.550000
2110.754978	127.300000
2112.416544	135.800000
2114.077778	126.400000
2115.736983	141.800000
2117.395859	120.200000
2119.054405	126.700000
2120.712620	123.150000
2122.367113	128.850000
2124.024670	119.850000
2125.681897	123.750000
2127.335404	122.300000
2128.990278	105.900000
2130.641433	119.800000
2132.295651	101.500000
2133.946151	113.600000
2135.598019	115.400000
2137.244478	118.550000
2138.895691	114.700000
2140.543192	115.750000
2142.192059	116.650000
2143.838907	108.450000
2145.485430	121.250000
2147.131627	114.400000
2148.774116	114.400000
2150.419662	110.700000
2152.061502	112.700000
2153.706399	116.550000
2155.347591	113.800000
2156.988459	110.300000
2158.629004	118.850000
2160.267536	124.900000
2161.907434	116.100000
2163.543632	124.800000
2165.181196	124.450000
2166.818438	120.800000
2168.453670	125.800000
2170.088580	124.750000
2171.723169	120.500000
2173.357437	121.800000
2174.988011	129.800000
2176.621637	116.900000
2178.251571	115.300000
2179.882870	120.600000
2181.512164	111.400000
2183.141139	136.900000
2184.769794	118.050000
2186.398130	113.800000
2188.024463	119.300000
2189.650478	123.300000
2191.274492	110.500000
2192.899871	109.050000
2194.523249	109.600000
2196.147992	122.650000
2197.769054	121.000000
2199.389799	123.300000
2201.011908	115.650000
2202.632020	117.050000
2204.250136	135.000000
2205.867936	119.150000
2207.485420	111.500000
2209.102590	140.250000
2210.719443	122.550000
2212.335982	132.050000
2213.950528	138.500000
2215.563081	126.550000
2217.176998	120.500000
2218.788924	118.250000
2220.402213	111.450000
2222.013512	127.050000
2223.622821	123.400000
2225.233493	122.800000
2226.842177	132.200000
2228.450549	115.100000
2230.056934	115.200000
2231.664681	124.200000
2233.270443	111.950000
2234.875893	120.950000
2236.479358	104.500000
2238.084186	115.900000
2239.687030	114.900000
2241.287891	119.550000
2242.890115	118.150000
2244.490357	105.200000
2246.091961	124.900000
2247.689912	118.100000
2249.289226	120.450000
2250.886560	123.050000
2252.483586	111.250000
2254.081973	124.500000
2255.676713	122.200000
2257.269475	137.500000
2258.863600	118.750000
2260.459086	125.700000
2262.050927	124.350000
2263.642462	117.250000
2265.235359	114.700000
2266.822946	116.150000
2268.415229	105.850000
2270.002205	115.900000
2271.592210	116.800000
2273.176910	122.000000
2274.766304	120.650000
2276.350395	117.100000
2277.935848	111.650000
2279.519332	115.250000
2281.105841	116.050000
2282.688717	104.200000
2284.271290	111.550000
2285.853559	109.600000
2287.432198	121.950000
2289.013862	107.700000
2290.591897	119.250000
2292.172955	110.000000
2293.750386	115.075000
2295.325854	120.150000
2296.904344	117.850000
2298.479210	121.850000
2300.053775	106.800000
2301.628039	108.450000
2303.202003	111.800000
2304.775667	103.750000
2306.349031	102.750000
2307.918776	114.500000
2309.488222	103.950000
2311.060686	122.750000
2312.627876	118.650000
2314.198083	112.650000
2315.764677	116.550000
2317.332629	123.000000
2318.898627	111.500000
2320.464327	121.400000
2322.029729	116.850000
2323.593178	111.200000
2325.157986	121.950000
2326.719186	110.900000
2328.283399	127.350000
2329.842352	140.650000
2331.404318	121.150000
2332.964334	116.950000
2334.524054	105.650000
2336.081826	111.450000
2337.639302	112.750000
2339.196484	108.100000
2340.751718	115.400000
2342.306659	117.050000
2343.861305	110.000000
2345.415658	116.350000
2346.969717	119.750000
2348.523483	117.950000
2350.075304	121.200000
2351.625182	129.000000
2353.178069	124.150000
2354.725712	108.100000
2356.276364	120.950000
2357.823424	120.250000
2359.371842	100.950000
2360.919969	129.600000
2362.464507	111.350000
2364.010403	111.050000
2365.554361	117.850000
2367.099675	117.450000
2368.641405	104.400000
2370.184493	130.050000
2371.725644	116.000000
2373.266506	113.000000
2374.807079	102.150000
2376.347363	100.150000
2377.887358	114.400000
2379.423774	114.100000
2380.963192	116.900000
2382.499033	105.000000
2384.036231	96.850000
2385.569853	113.900000
2387.106475	95.800000
2388.641167	103.450000
2390.173929	94.050000
2391.706404	102.050000
2393.236951	102.350000
2394.770496	112.900000
2396.298830	108.200000
2397.828520	104.450000
2399.357925	114.750000
2400.887045	103.850000
2402.415879	104.650000
2403.939509	112.850000
2405.467774	106.250000
2406.990837	109.850000
2408.518533	116.400000
2410.039390	113.500000
2411.564879	109.800000
2413.086809	98.200000
2414.610093	110.250000
2416.131457	108.450000
2417.650901	116.450000
2419.171700	109.150000
2420.690580	118.900000
2422.209179	113.250000
2423.725859	123.450000
2425.243895	116.000000
2426.761649	115.500000
2428.275851	126.600000
2429.789774	114.850000
2431.303416	127.750000
2432.818412	123.150000
2434.329861	117.400000
2435.842663	139.400000
2437.353553	126.650000
2438.864164	123.600000
2440.372863	118.250000
2441.884548	130.450000
2443.392690	141.600000
2444.900554	138.450000
2446.408139	131.950000
2447.912185	136.050000
2449.419215	148.300000
2450.924337	150.850000
2452.429182	153.150000
2453.932120	150.150000
2455.434782	152.050000
2456.937167	143.100000
2458.437647	139.250000
2459.939480	149.750000
2461.439408	150.000000
2462.939061	150.750000
2464.438439	137.400000
2465.935914	138.250000
2467.431487	140.800000
2468.930040	146.050000
2470.425065	121.750000
2471.921442	138.100000
2473.414293	135.400000
2474.908497	118.300000
2476.402427	132.450000
2477.892833	130.000000
2479.386217	120.050000
2480.877703	122.550000
2482.367292	123.100000
2483.856609	123.000000
2485.344030	124.750000
2486.834427	118.050000
2488.321306	121.950000
2489.809536	115.950000
2491.294249	122.950000
2492.778692	117.300000
2494.264487	121.850000
2495.748390	113.700000
2497.233643	117.100000
2498.713763	102.450000
2500.196856	114.200000
2501.678058	102.950000
2503.158991	117.050000
2504.638035	108.500000
2506.116810	109.000000
2507.595317	104.650000
2509.073555	109.800000
2510.551526	120.500000
2512.025991	122.300000
2513.503426	101.500000
2514.977356	118.550000
2516.452638	120.250000
2517.927652	126.350000
2519.399165	109.550000
2520.872029	107.700000
2522.343010	94.500000
2523.815341	94.450000
2525.282558	103.750000
2526.752742	107.750000
2528.221045	97.950000
2529.689083	121.450000
2531.156855	104.400000
2532.624363	98.050000
2534.091607	104.250000
2535.555358	102.450000
2537.020459	115.500000
2538.483683	107.600000
2539.948256	109.600000
2541.409341	97.850000
2542.871775	104.100000
2544.333946	98.600000
2545.792630	106.500000
2547.255887	105.200000
2548.714047	99.650000
2550.173557	108.800000
2551.627972	105.100000
2553.086958	96.600000
2554.544072	112.150000
2555.999314	104.750000
2557.454296	116.350000
2558.907408	114.200000
2560.361869	110.700000
2561.814461	113.350000
2563.266793	101.350000
2564.717257	104.250000
2566.170678	103.900000
2567.619016	106.600000
2569.070309	112.050000
2570.519737	100.700000
2571.965692	121.750000
2573.414602	124.000000
2574.860042	103.700000
2576.306829	118.850000
2577.751753	108.850000
2579.196420	111.950000
2580.642434	109.250000
2582.084982	113.150000
2583.528876	113.800000
2584.969306	112.300000
2586.411084	106.850000
2587.851002	115.400000
2589.292267	114.350000
2590.730070	121.300000
2592.170823	99.750000
2593.606514	116.850000
2595.045153	118.050000
2596.481936	110.800000
2597.916863	92.950000
2599.354737	124.300000
2600.787554	108.700000
2602.221718	92.250000
2603.654028	107.650000
2605.087684	110.500000
2606.519487	112.100000
2607.951036	107.150000
2609.382332	116.550000
2610.811777	120.400000
2612.240969	111.900000
2613.668310	108.150000
2615.096998	118.850000
2616.525433	99.500000
2617.950422	118.700000
2619.376756	112.950000
2620.801243	122.050000
2622.227075	120.300000
2623.649463	120.950000
2625.073196	125.250000
2626.495084	126.150000
2627.916721	130.800000
2629.336514	140.600000
2630.757652	142.600000
2632.178540	139.700000
2633.595989	144.250000
2635.016378	137.950000
2636.433330	139.650000
2637.850034	155.050000
2639.266489	149.250000
2640.682696	169.450000
2642.098655	170.550000
2643.512773	190.350000
2644.926643	196.950000
2646.338674	184.250000
2647.752050	207.550000
2649.161996	206.550000
2650.574878	219.550000
2651.984331	234.650000
2653.393538	247.950000
2654.800909	262.500000
2656.211214	275.350000
2657.619683	296.650000
2659.026318	329.200000
2660.432707	321.350000
2661.837262	382.500000
2663.243161	395.200000
2664.647227	431.800000
2666.051048	469.250000
2667.454625	487.600000
2668.856371	538.400000
2670.259460	550.850000
2671.659131	601.200000
2673.060146	637.050000
2674.457745	651.600000
2675.858273	684.350000
2677.255387	695.200000
2678.653844	705.050000
2680.050474	699.200000
2681.446861	701.050000
2682.843006	698.600000
2684.237325	667.850000
2685.632987	646.450000
2687.025240	621.250000
2688.418835	603.400000
2689.810606	558.850000
2691.203720	528.900000
2692.595010	503.700000
2693.984477	449.300000
2695.373704	422.200000
2696.762692	392.350000
2698.153021	363.350000
2699.538367	324.500000
2700.926636	298.950000
2702.313085	286.900000
2703.699295	271.000000
2705.085266	240.950000
2706.467839	228.100000
2707.851754	220.450000
2709.235430	203.900000
2710.618869	211.250000
2711.998912	196.400000
2713.380297	176.850000
2714.759867	165.700000
2716.140777	157.500000
2717.519873	156.500000
2718.897155	147.650000
2720.275778	148.650000
2721.652587	143.050000
2723.029161	139.450000
2724.405499	142.750000
2725.780025	135.050000
2727.155892	139.250000
2728.528373	127.400000
2729.903769	127.800000
2731.274205	118.350000
2732.645981	122.950000
2734.017524	113.050000
2735.387258	131.500000
2736.758332	113.750000
2738.127599	117.650000
2739.496632	104.800000
2740.863859	104.650000
2742.230852	117.700000
2743.597613	117.850000
2744.964141	113.700000
2746.328865	110.300000
2747.693356	91.800000
2749.057616	97.450000
2750.421643	108.500000
2751.785438	106.250000
2753.145861	116.650000
2754.509193	98.300000
2755.867583	103.050000
2757.228883	93.100000
2758.586813	88.100000
2759.947651	95.950000
2761.306689	99.050000
2762.662360	94.650000
2764.020938	107.800000
2765.376149	97.950000
2766.731131	101.550000
2768.084316	93.200000
2769.440408	92.950000
2770.793136	87.100000
2772.145636	97.300000
2773.497907	78.350000
2774.851516	91.200000
2776.201765	92.600000
2777.550219	94.900000
2778.901578	88.250000
2780.249579	85.250000
2781.598917	93.150000
2782.946463	89.250000
2784.293783	105.000000
2785.640875	96.250000
2786.986177	90.150000
2788.331253	88.750000
2789.676103	83.800000
2791.020727	86.600000
2792.361999	99.550000
2793.704608	78.400000
2795.046993	83.600000
2796.389152	84.150000
2797.727962	98.400000
2799.069672	98.150000
2800.408033	92.850000
2801.747732	95.250000
2803.085646	88.000000
2804.421774	95.250000
2805.757680	94.000000
2807.094923	84.400000
2808.430382	89.150000
2809.765617	93.000000
2811.099071	86.150000
2812.433861	102.450000
2813.765311	97.950000
2815.099656	80.650000
2816.429102	98.600000
2817.759886	92.000000
2819.090449	89.150000
2820.419232	81.900000
2821.749351	91.800000
2823.077692	91.950000
2824.405812	93.400000
2825.732154	84.850000
2827.059832	72.100000
2828.384178	86.400000
2829.709860	90.100000
2831.033766	88.200000
2832.357452	83.950000
2833.682474	95.050000
2835.004167	84.350000
2836.325641	86.550000
2837.646895	80.400000
2838.967932	94.150000
2840.287195	91.450000
2841.607794	83.050000
2842.926621	78.150000
2844.245231	79.050000
2845.562069	83.050000
2846.878690	84.000000
2848.195094	91.000000
2849.509728	72.850000
2850.825697	65.100000
2852.138347	87.750000
2853.452331	85.200000
2854.766099	74.700000
2856.079650	85.150000
2857.391435	82.150000
2858.701453	83.950000
2860.012806	90.250000
2861.320844	86.850000
2862.630216	82.300000
2863.939373	73.050000
2865.248316	74.750000
2866.555494	73.950000
2867.860910	81.650000
2869.167659	79.200000
2870.472647	82.300000
2871.777420	84.200000
2873.080433	85.650000
2874.386326	84.500000
2875.687365	81.800000
2876.989737	87.150000
2878.290351	89.950000
2879.592297	81.800000
2880.894031	84.100000
2882.192461	75.750000
2883.492224	70.650000
2884.790230	73.600000
2886.088024	83.900000
2887.384062	72.450000
2888.681432	90.650000
2889.977048	80.300000
2891.272452	81.000000
2892.567645	70.800000
2893.859541	81.550000
2895.154312	76.750000
2896.445788	87.350000
2897.738596	88.750000
2899.031194	77.000000
2900.320497	91.450000
2901.611134	81.600000
2902.900019	70.000000
2904.190236	75.350000
2905.477162	79.500000
2906.765420	78.000000
2908.051929	82.200000
2909.338229	72.000000
2910.624321	78.700000
2911.908665	71.900000
2913.195881	92.600000
2914.478270	63.000000
2915.761991	73.500000
2917.043965	71.800000
2918.325733	71.400000
2919.605755	73.300000
2920.888648	66.650000
2922.169794	73.600000
2923.447659	72.550000
2924.728393	68.100000
2926.005847	71.600000
2927.283094	67.700000
2928.558599	71.300000
2929.836972	72.400000
2931.110531	60.500000
2932.386957	66.550000
2933.661642	76.900000
2934.934586	66.950000
2936.208862	54.850000
2937.481398	70.350000
2938.753729	77.700000
2940.022788	72.050000
2941.294712	66.700000
2942.564898	60.250000
2943.834880	58.400000
2945.104659	68.050000
2946.372702	67.500000
2947.639008	79.550000
2948.905112	73.150000
2950.172547	67.050000
2951.438246	73.550000
2952.703744	79.000000
2953.969039	76.800000
2955.231069	69.300000
2956.494429	72.500000
2957.757588	81.350000
2959.019015	68.600000
2960.281771	63.300000
2961.542795	64.000000
2962.802089	63.200000
2964.061182	68.700000
2965.320076	67.500000
2966.578769	81.250000
2967.837261	63.450000
2969.094025	73.350000
2970.350590	57.500000
2971.605426	61.650000
2972.861592	65.900000
2974.114503	66.750000
2975.368742	81.100000
2976.622783	63.800000
2977.875098	74.900000
2979.127215	68.600000
2980.377607	78.700000
2981.630854	67.550000
2982.879324	63.300000
2984.130649	70.500000
2985.378724	71.500000
2986.626602	69.200000
2987.874284	55.450000
2989.121768	63.950000
2990.367531	70.550000
2991.613098	54.300000
2992.859992	77.950000
2994.103642	69.650000
2995.348619	71.100000
2996.590354	69.150000
2997.834940	62.100000
2999.077807	67.800000
3000.317433	75.100000
3001.559909	57.450000
3002.799145	67.900000
3004.039709	63.600000
3005.278556	76.600000
3006.517209	70.400000
3007.754146	68.350000
3008.992411	78.850000
3010.228960	75.950000
3011.465316	62.200000
3012.701478	64.200000
3013.935926	57.100000
3015.170181	77.900000
3016.404244	66.250000
3017.636593	59.400000
3018.867231	64.050000
3020.100715	59.150000
3021.332488	63.600000
3022.562549	56.750000
3023.792419	80.900000
3025.020579	61.200000
3026.250066	58.300000
3027.477843	63.300000
3028.705429	63.150000
3029.934341	69.550000
3031.158511	51.800000
3032.385524	65.500000
3033.609314	64.200000
3034.834429	71.100000
3036.057839	68.450000
3037.281058	56.900000
3038.502572	46.050000
3039.726927	67.500000
3040.946547	59.650000
3042.167493	65.550000
3043.388249	52.050000
3044.607303	73.450000
3045.827681	66.550000
3047.044843	55.650000
3048.263330	56.200000
3049.480116	69.050000
3050.696713	67.750000
3051.913123	62.550000
3053.126319	75.950000
3054.342353	81.150000
3055.555175	53.050000
3056.770834	62.000000
3057.981771	64.900000
3059.194032	48.100000
3060.406106	62.550000
3061.617994	63.950000
3062.828185	57.250000
3064.038189	68.550000
3065.248007	72.550000
3066.456129	71.400000
3067.664066	47.650000
3068.870307	63.550000
3070.077873	59.850000
3071.283744	57.275000
3072.489430	54.700000
3073.694932	47.850000
3074.898740	67.050000
3076.103872	57.050000
3077.307311	48.200000
3078.509059	67.200000
3079.710622	59.700000
3080.912002	49.350000
3082.113198	56.400000
3083.312704	66.500000
3084.512027	54.350000
3085.712673	74.200000
3086.911629	53.750000
3088.107391	51.900000
3089.305981	59.350000
3090.501378	55.850000
3091.698099	58.000000
3092.891627	62.100000
3094.087983	55.900000
3095.282652	66.450000
3096.474131	47.850000
3097.669942	55.850000
3098.861058	44.150000
3100.053498	53.750000
3101.242749	47.800000
3102.434827	69.100000
3103.625221	49.850000
3104.812429	61.400000
3106.000959	57.150000
3107.190812	64.900000
3108.377480	54.400000
3109.563969	50.850000
3110.750279	48.600000
3111.937910	68.950000
3113.122359	59.450000
3114.305129	54.200000
3115.490721	63.850000
3116.674634	47.150000
3117.856867	63.200000
3119.038923	57.400000
3120.220800	58.250000
3121.402499	69.100000
3122.582521	58.550000
3123.760866	50.700000
3124.942031	60.900000
3126.120021	55.950000
3127.297834	49.950000
3128.475470	49.200000
3129.651431	61.300000
3130.827216	50.650000
3132.004321	38.150000
3133.179753	47.900000
3134.353511	54.600000
3135.525596	43.950000
3136.699003	43.900000
3137.872233	47.200000
3139.043792	47.600000
3140.216671	49.050000
3141.386383	44.100000
3142.557416	50.550000
3143.726778	41.900000
3144.894471	46.300000
3146.064979	47.800000
3147.230829	49.350000
3148.400987	68.250000
3149.566488	55.300000
3150.731816	58.800000
3151.896970	46.850000
3153.061951	50.850000
3154.228251	50.150000
3155.389898	49.550000
3156.552866	63.550000
3157.715661	50.150000
3158.878283	48.350000
3160.039239	51.450000
3161.200024	62.350000
3162.360636	50.600000
3163.519584	44.050000
3164.678361	51.450000
3165.836965	46.100000
3166.995398	60.500000
3168.153660	55.000000
3169.310259	51.850000
3170.465197	38.050000
3171.621454	47.350000
3172.776050	47.000000
3173.930476	47.550000
3175.083242	44.450000
3176.235837	48.550000
3177.388263	50.150000
3178.540518	58.750000
3179.692604	53.400000
3180.841543	48.200000
3181.993289	49.950000
3183.143378	52.100000
3184.291810	44.050000
3185.440072	56.600000
3186.588166	57.550000
3187.736091	52.150000
3188.882360	51.250000
3190.028461	58.600000
3191.172908	45.250000
3192.317187	52.150000
3193.461297	64.100000
3194.606726	50.750000
3195.749016	44.000000
3196.891139	54.050000
3198.033094	67.500000
3199.174882	44.000000
3200.316503	53.250000
3201.454989	66.550000
3202.594792	51.550000
3203.735912	48.400000
3204.873899	46.200000
3206.010235	47.350000
3207.146407	46.450000
3208.283895	46.300000
3209.419735	59.500000
3210.556892	34.150000
3211.689436	42.700000
3212.826261	36.900000
3213.958476	52.700000
3215.092007	45.850000
3216.225373	51.950000
3217.355613	35.400000
3218.488650	50.050000
3219.618561	50.100000
3220.749788	46.300000
3221.877891	52.450000
3223.008790	64.100000
3224.138045	49.000000
3225.265657	54.450000
3226.390146	39.650000
3227.518911	41.700000
3228.644554	51.750000
3229.770034	54.500000
3230.893873	53.600000
3232.020507	64.200000
3233.142543	57.400000
3234.265895	63.000000
3235.389085	74.100000
3236.512112	62.750000
3237.633501	48.900000
3238.754727	70.100000
3239.874315	65.750000
3240.993742	65.900000
3242.111532	66.100000
3243.232113	72.650000
3244.349581	74.750000
3245.466888	66.450000
3246.584035	80.800000
3247.699545	74.150000
3248.816371	67.200000
3249.930087	85.850000
3251.046592	71.350000
3252.161462	68.250000
3253.273224	59.100000
3254.384827	57.300000
3255.497745	49.800000
3256.610503	70.800000
3257.720155	73.900000
3258.831122	59.550000
3259.941930	46.400000
3261.051106	46.500000
3262.158651	49.700000
3263.267511	60.250000
3264.376212	40.000000
3265.481811	53.950000
3266.588725	62.400000
3267.694009	33.850000
3268.800607	42.050000
3269.904105	47.400000
3271.008917	41.750000
3272.113572	52.650000
3273.215129	49.950000
3274.316529	52.900000
3275.419243	54.700000
3276.521801	52.500000
3277.621262	33.150000
3278.723507	40.000000
3279.822656	43.750000
3280.920180	45.950000
3282.017550	48.200000
3283.117701	41.000000
3284.214760	39.700000
3285.311663	47.550000
3286.408411	44.650000
3287.500600	39.400000
3288.597039	43.500000
3289.691855	39.900000
3290.786517	46.750000
3291.879556	39.300000
3292.972442	42.300000
3294.063707	49.350000
3295.156285	49.700000
3296.247243	49.750000
3297.336581	37.050000
3298.425766	44.700000
3299.516263	37.250000
3300.603677	45.500000
3301.690937	46.250000
3302.779510	33.250000
3303.867930	28.550000
3304.951804	49.550000
3306.039919	32.900000
3307.124952	45.400000
3308.208370	45.550000
3309.293100	48.600000
3310.376214	45.350000
3311.460641	45.850000
3312.541989	53.950000
3313.624649	39.600000
3314.705694	40.350000
3315.786589	42.250000
3316.865871	42.300000
3317.945002	37.450000
3319.025445	51.000000
3320.102813	38.200000
3321.181493	43.000000
3322.258561	45.150000
3323.335479	37.800000
3324.410787	33.900000
3325.485945	45.450000
3326.562414	41.750000
3327.635813	50.250000
3328.709062	49.150000
3329.783623	44.150000
3330.856575	40.400000
3331.927918	35.400000
3333.000572	35.450000
3334.070159	46.250000
3335.141058	45.250000
3336.210349	45.150000
3337.280950	32.900000
3338.349946	49.900000
3339.417335	39.650000
3340.483119	45.400000
3341.553129	46.050000
3342.620076	47.850000
3343.683961	30.350000
3344.750613	45.350000
3345.815662	43.800000
3346.879107	36.300000
3347.942406	40.450000
3349.005558	41.700000
3350.068564	39.200000
3351.131424	35.250000
3352.192681	46.550000
3353.250882	41.000000
3354.313304	36.200000
3355.372670	43.450000
3356.431890	39.650000
3357.492419	47.850000
3358.548440	47.300000
3359.607224	48.100000
3360.661501	47.200000
3361.718542	43.050000
3362.773984	40.750000
3363.830736	48.000000
3364.885889	42.000000
3365.939445	39.300000
3366.991404	42.200000
3368.046126	39.100000
3369.097798	45.000000
3370.149327	50.950000
3371.202164	36.150000
3372.251954	48.200000
3373.303053	41.650000
3374.351105	47.300000
3375.401918	45.900000
3376.449685	48.700000
3377.497310	41.700000
3378.544793	39.500000
3379.590683	52.200000
3380.637881	50.650000
3381.682037	42.600000
3382.728951	35.950000
3383.774273	27.400000
3384.816554	34.050000
3385.858694	50.300000
3386.902143	34.000000
3387.945450	33.900000
3388.987167	44.950000
3390.028744	48.650000
3391.070179	38.400000
3392.110026	36.450000
3393.148284	35.150000
3394.187850	47.200000
3395.227276	38.700000
3396.265114	28.550000
3397.301365	35.650000
3398.337477	39.350000
3399.374895	43.750000
3400.409281	39.950000
3401.444975	39.300000
3402.480529	36.650000
3403.513052	34.450000
3404.548327	36.050000
3405.580573	49.350000
3406.612680	33.900000
3407.643203	38.350000
3408.675033	30.100000
3409.706725	39.900000
3410.735389	38.800000
3411.763916	34.250000
3412.793749	42.700000
3413.823445	44.000000
3414.850115	42.650000
3415.878091	42.400000
3416.903044	36.050000
3417.930746	30.550000
3418.955424	47.750000
3419.981409	45.050000
3421.005815	39.500000
3422.030084	47.700000
3423.052774	42.650000
3424.075328	45.250000
3425.099188	39.050000
3426.120028	37.900000
3427.140732	42.500000
3428.162742	49.600000
3429.181734	39.000000
3430.200591	41.000000
3431.220754	39.400000
3432.237900	37.300000
