-117.018713	14.700000
-114.349113	5.900000
-111.682448	8.300000
-109.016535	13.700000
-106.353555	-1.300000
-103.689144	0.700000
-101.027664	-9.000000
-98.364755	7.300000
-95.706952	9.200000
-93.047720	13.500000
-90.389236	-8.500000
-87.733677	9.700000
-85.076688	11.400000
-82.424798	-5.000000
-79.771478	-6.100000
-77.121077	-5.200000
-74.469248	18.300000
-71.822509	5.200000
-69.174340	-4.100000
-66.526914	7.200000
-63.882403	-5.000000
-61.236462	-4.400000
-58.595603	-9.200000
-55.953315	-0.100000
-53.313936	-3.900000
-50.673128	3.600000
-48.033059	17.300000
-45.398064	2.800000
-42.761639	-1.400000
-40.128117	11.600000
-37.493167	7.400000
-34.863283	10.100000
-32.229805	12.900000
-29.601390	10.500000
-26.973709	-1.800000
-24.344599	27.100000
-21.720547	16.900000
-19.092904	37.600000
-16.470316	40.400000
-13.848458	80.900000
-11.227331	145.000000
-8.606935	338.700000
-5.989426	1126.700000
-3.370489	3453.300000
-0.754438	8594.700000
1.860886	14337.900000
4.475481	6631.600000
7.087195	666.800000
9.700337	101.700000
12.308445	61.700000
14.920134	18.900000
17.526793	35.900000
20.134881	15.900000
22.742243	9.700000
25.344581	22.000000
27.950498	15.900000
30.551392	5.000000
33.153714	18.200000
35.751018	10.700000
38.351899	33.000000
40.947764	10.200000
43.545057	24.200000
46.141632	-3.300000
48.733197	14.500000
51.326190	-9.100000
53.916322	8.300000
56.507881	2.700000
59.096582	-1.400000
61.686709	5.800000
64.271837	12.900000
66.858393	-0.700000
69.444235	14.500000
72.027222	-5.600000
74.611637	23.800000
77.188923	13.100000
79.769775	12.400000
82.347778	3.000000
84.925070	11.800000
87.503790	12.000000
90.077527	22.200000
92.652691	6.700000
95.225012	20.800000
97.796626	12.500000
100.365399	10.100000
102.935599	-1.200000
105.502960	-5.300000
108.071748	-6.400000
110.637699	-5.600000
113.200815	4.100000
115.767487	14.300000
118.324937	5.000000
120.888073	30.400000
123.446250	38.200000
126.007981	52.100000
128.564755	76.800000
131.122955	123.700000
133.676203	184.500000
136.228753	276.800000
138.784853	374.900000
141.336005	490.500000
143.886460	640.100000
146.436217	728.000000
148.983155	800.000000
151.529398	833.400000
154.077066	871.000000
156.624038	855.000000
159.166075	851.900000
161.707418	863.600000
164.248068	848.200000
166.790144	844.800000
169.329408	838.300000
171.865863	882.500000
174.401628	842.700000
176.938818	821.500000
179.475317	844.800000
182.009010	801.700000
184.539899	794.700000
187.070100	812.300000
189.601727	801.500000
192.130552	790.800000
194.656578	784.900000
197.181918	780.600000
199.708683	800.400000
202.232652	796.300000
204.755936	785.400000
207.278534	785.300000
209.798340	807.700000
212.317463	771.000000
214.835903	778.200000
217.355768	786.000000
219.868630	797.300000
222.385024	830.300000
224.900737	832.000000
227.411559	870.900000
229.923806	866.600000
232.433270	886.200000
234.942056	881.400000
237.450164	883.200000
239.959696	875.900000
242.464347	881.300000
244.968322	877.900000
247.473721	878.900000
249.974245	874.700000
252.478292	878.700000
254.975369	873.100000
257.475969	849.400000
259.973797	864.300000
262.470952	868.300000
264.967434	869.900000
267.459053	872.000000
269.954192	866.200000
272.446564	894.900000
274.938266	888.400000
277.427205	885.300000
279.917567	916.500000
282.405168	908.000000
284.890009	880.200000
287.378365	919.600000
289.859781	927.400000
292.344711	933.000000
294.824796	971.400000
297.308393	960.900000
299.787147	1009.000000
302.267324	1032.800000
304.744750	1030.900000
307.221512	1001.400000
309.697610	966.300000
312.170960	967.900000
314.643649	926.300000
317.115676	938.600000
319.587041	953.200000
322.055663	962.300000
324.523625	959.800000
326.993010	920.600000
329.457572	872.500000
331.925638	864.500000
334.388883	842.900000
336.851472	832.000000
339.313404	812.400000
341.774679	786.500000
344.233219	774.700000
346.693183	765.200000
349.150413	750.300000
351.606989	740.700000
354.062911	751.700000
356.516103	751.200000
358.970718	738.300000
361.420531	741.200000
363.873840	727.000000
366.322350	727.800000
368.770210	662.800000
371.219492	678.900000
373.663979	677.400000
376.109890	688.600000
378.555150	685.100000
380.997692	661.400000
383.439586	668.900000
385.880832	665.100000
388.319364	652.800000
390.759316	652.300000
393.196555	637.400000
395.631083	638.600000
398.069097	643.400000
400.502336	618.800000
402.936995	609.100000
405.366882	631.400000
407.800254	608.200000
410.228856	622.500000
412.656816	583.100000
415.086198	621.900000
417.510814	570.300000
419.936852	599.500000
422.362249	587.100000
424.787006	590.300000
427.207004	576.900000
429.628424	592.000000
432.047148	586.100000
434.467292	565.400000
436.884741	568.000000
439.303610	558.600000
441.719785	543.300000
444.131214	542.600000
446.546119	509.600000
448.958335	507.200000
451.369916	472.200000
453.780863	468.000000
456.189123	441.200000
458.596752	432.400000
461.003748	426.700000
463.410113	439.600000
465.813795	433.200000
468.216847	458.100000
470.619269	433.700000
473.021061	450.600000
475.420175	443.900000
477.820709	430.600000
480.220614	454.300000
482.615797	469.500000
485.014446	506.100000
487.408374	503.700000
489.801677	525.500000
492.194355	582.500000
494.586407	601.400000
496.979877	660.600000
499.368635	771.300000
501.754727	952.900000
504.142239	1198.300000
506.529128	1609.400000
508.913352	2254.900000
511.298996	3299.000000
513.681978	4651.600000
516.062299	6072.600000
518.444039	7060.500000
520.823120	6948.000000
523.203619	6193.600000
525.581462	5110.400000
527.956648	4273.300000
530.331218	3549.300000
532.707205	3041.200000
535.080540	2583.600000
537.455292	2263.000000
539.825358	2076.200000
542.194810	1867.100000
544.565679	1697.000000
546.931867	1546.400000
549.299474	1508.900000
551.664435	1371.100000
554.028784	1303.500000
556.392519	1255.600000
558.757672	1188.300000
561.118153	1151.900000
563.480052	1123.700000
565.839310	1061.900000
568.195930	1017.900000
570.555996	1035.800000
572.909370	972.400000
575.266189	947.100000
577.620373	922.300000
579.973948	854.600000
582.326916	855.500000
584.677251	846.500000
587.029004	809.900000
589.374080	773.400000
591.724619	759.000000
594.068486	766.400000
596.417814	739.000000
598.762493	691.700000
601.104548	724.400000
603.448020	717.200000
605.788869	689.700000
608.129115	716.200000
610.466741	749.800000
612.807802	758.500000
615.144226	798.100000
617.482066	822.900000
619.817289	813.400000
622.149895	770.600000
624.483919	736.900000
626.815328	706.900000
629.146139	672.900000
631.476352	655.500000
633.805968	642.800000
636.130960	644.300000
638.461394	641.300000
640.787207	652.600000
643.110412	651.500000
645.435034	624.200000
647.757050	625.400000
650.078472	592.800000
652.397291	620.600000
654.717527	597.500000
657.037169	603.000000
659.354210	592.100000
661.670659	621.200000
663.984510	615.300000
666.299777	594.900000
668.612447	588.200000
670.926532	610.300000
673.236017	612.800000
675.546918	611.000000
677.855226	598.800000
680.162946	598.700000
682.472080	583.300000
684.776622	594.100000
687.080578	558.900000
689.383948	566.800000
691.688732	533.300000
693.988929	510.800000
696.290542	509.000000
698.591569	532.000000
700.888015	502.400000
703.185876	490.000000
705.483153	479.000000
707.779847	478.200000
710.071965	478.800000
712.367494	455.300000
714.658449	481.600000
716.950819	468.000000
719.240614	460.100000
721.529828	458.000000
723.818463	462.400000
726.104525	464.000000
728.392002	473.200000
730.676907	434.500000
732.961235	457.000000
735.242994	448.900000
737.526167	429.700000
739.808763	456.700000
742.086803	434.700000
744.366257	439.900000
746.645136	438.100000
748.923440	457.100000
751.197193	473.100000
753.472361	434.400000
755.746955	430.300000
758.018990	430.400000
760.292438	436.900000
762.563328	422.500000
764.831662	430.100000
767.101409	418.000000
769.368601	437.500000
771.635224	444.000000
773.901276	445.100000
776.164777	443.100000
778.429691	465.300000
780.694035	440.900000
782.953850	457.500000
785.215077	440.900000
787.475737	420.700000
789.733851	445.700000
791.989420	456.900000
794.248379	475.200000
796.500840	449.300000
798.758668	453.000000
801.011977	464.900000
803.262746	456.500000
805.514927	457.100000
807.764569	471.700000
810.015623	452.600000
812.262167	457.200000
814.510122	434.400000
816.755543	479.100000
819.002375	442.100000
821.248646	443.100000
823.490412	435.000000
825.735562	429.200000
827.974239	440.800000
830.216298	448.800000
832.453859	427.100000
834.692832	447.000000
836.929278	435.100000
839.167135	438.400000
841.402467	427.900000
843.635276	429.500000
845.869495	407.100000
848.101193	424.500000
850.332336	415.800000
852.562924	430.600000
854.792958	409.600000
857.022438	422.200000
859.247436	414.800000
861.475808	423.300000
863.699702	416.200000
865.925007	399.700000
868.145836	383.400000
870.370037	388.100000
872.589765	412.400000
874.810903	408.100000
877.031491	418.800000
879.249570	417.800000
881.469058	405.600000
883.684080	400.600000
885.898554	412.200000
888.112481	392.700000
890.325861	398.000000
892.538693	388.200000
894.750978	374.000000
896.960762	390.000000
899.170000	381.000000
901.378693	394.300000
903.584886	397.000000
905.792489	405.800000
907.997595	396.900000
910.202157	403.100000
912.404224	421.300000
914.607700	454.100000
916.808682	429.000000
919.009122	448.500000
921.210971	462.600000
923.406429	487.100000
925.605245	543.000000
927.799624	581.200000
929.997360	632.000000
932.190660	723.200000
934.385369	788.900000
936.577591	887.300000
938.769276	901.700000
940.960423	978.200000
943.149087	1034.000000
945.337215	1028.600000
947.522861	1005.700000
949.711861	1000.900000
951.896437	975.900000
954.080478	991.200000
956.267869	1001.900000
958.446956	1011.900000
960.629394	1023.600000
962.811298	1014.400000
964.990727	1027.800000
967.167684	999.200000
969.346049	1012.200000
971.525821	1063.700000
973.699244	1036.600000
975.876013	1026.400000
978.048375	1032.200000
980.222145	1017.000000
982.391511	982.800000
984.564221	957.300000
986.734466	873.400000
988.904181	796.100000
991.073368	693.200000
993.238158	676.100000
995.406290	618.800000
997.570026	569.500000
999.735170	565.800000
1001.897854	522.100000
1004.060013	509.900000
1006.219715	510.400000
1008.378892	513.900000
1010.539476	502.900000
1012.697605	448.800000
1014.855211	468.000000
1017.012293	422.500000
1019.168851	433.300000
1021.321030	425.300000
1023.474616	416.800000
1025.627680	412.200000
1027.778295	408.000000
1029.930316	410.500000
1032.077965	401.300000
1034.228945	399.300000
1036.375554	385.900000
1038.521644	361.600000
1040.667216	357.500000
1042.814193	368.600000
1044.954881	371.900000
1047.098898	361.200000
1049.240476	346.300000
1051.381536	365.300000
1053.524002	376.600000
1055.660187	338.700000
1057.799699	354.200000
1059.934855	363.300000
1062.073336	358.500000
1064.207464	350.700000
1066.341078	347.500000
1068.476096	347.600000
1070.606766	352.900000
1072.738840	361.000000
1074.868485	345.500000
1076.997617	342.000000
1079.126239	329.300000
1081.254349	335.000000
1083.380033	343.000000
1085.505207	344.000000
1087.631785	330.600000
1089.754025	326.400000
1091.877670	348.900000
1093.996980	332.400000
1096.121519	315.700000
1098.239814	321.900000
1100.359512	321.000000
1102.476793	316.500000
1104.593566	324.900000
1106.709833	333.200000
1108.823685	341.600000
1110.938940	312.800000
1113.049873	305.600000
1115.164118	332.000000
1117.274042	329.600000
1119.385370	303.400000
1121.496193	305.300000
1123.602700	302.600000
1125.712516	276.300000
1127.818019	304.200000
1129.924924	308.200000
1132.025614	315.200000
1134.131516	290.200000
1136.233109	290.900000
1138.336105	303.100000
1140.438600	295.900000
1142.534888	269.100000
1144.636383	265.300000
1146.733576	293.600000
1148.830271	277.700000
1150.926467	282.600000
1153.022165	270.500000
1155.117366	281.300000
1157.210170	282.400000
1159.304376	295.800000
1161.392391	292.900000
1163.485604	300.400000
1165.572630	286.300000
1167.662954	282.700000
1169.748990	276.700000
1171.838324	308.100000
1173.921477	284.600000
1176.006033	278.000000
1178.091990	253.800000
1180.173665	283.800000
1182.256741	276.600000
1184.337432	280.500000
1186.417632	287.400000
1188.497340	294.000000
1190.576557	267.100000
1192.653391	292.500000
1194.727845	283.900000
1196.805591	274.700000
1198.879066	287.600000
1200.953943	292.800000
1203.024552	293.300000
1205.096562	288.900000
1207.166196	284.700000
1209.237231	280.600000
1211.307779	272.200000
1213.374065	271.400000
1215.441752	263.200000
1217.507066	245.200000
1219.573781	264.200000
1221.636241	280.300000
1223.701985	259.400000
1225.763475	283.200000
1227.826366	256.100000
1229.886888	277.500000
1231.946928	256.700000
1234.006484	279.800000
1236.063676	263.300000
1238.120385	269.900000
1240.174732	260.000000
1242.232360	276.200000
1244.287624	263.000000
1246.338649	275.900000
1248.391073	279.700000
1250.443017	297.100000
1252.492603	264.000000
1254.541710	255.300000
1256.590338	285.000000
1258.638488	274.900000
1260.686160	282.700000
1262.729601	285.600000
1264.776318	280.500000
1266.820681	276.900000
1268.864568	297.100000
1270.906103	268.800000
1272.945289	278.700000
1274.987748	257.500000
1277.025984	263.400000
1279.065619	277.700000
1281.104778	280.700000
1283.139720	246.800000
1285.176060	269.500000
1287.210056	274.900000
1289.245449	286.400000
1291.276629	271.100000
1293.309208	267.400000
1295.341315	266.900000
1297.371081	249.400000
1299.402244	252.600000
1301.429200	254.200000
1303.457555	250.900000
1305.481704	274.500000
1307.509119	278.000000
1309.532331	256.300000
1311.556941	251.600000
1313.579216	240.800000
1315.602889	254.300000
1317.624229	248.300000
1319.645102	254.800000
1321.665507	259.700000
1323.681719	275.600000
1325.699328	258.100000
1327.714609	271.200000
1329.733149	253.300000
1331.747499	274.800000
1333.759524	258.100000
1335.774807	249.800000
1337.785904	262.800000
1339.798397	279.500000
1341.806708	272.200000
1343.818275	286.000000
1345.823803	278.000000
1347.832586	307.500000
1349.837191	267.600000
1351.845050	279.800000
1353.852447	292.100000
1355.853813	300.100000
1357.856575	276.500000
1359.858878	284.400000
1361.860721	262.200000
1363.862104	292.600000
1365.861173	247.700000
1367.859785	264.100000
1369.857937	249.600000
1371.855632	249.100000
1373.849164	270.200000
1375.844091	260.900000
1377.838562	273.600000
1379.832576	254.100000
1381.824283	246.100000
1383.815534	258.600000
1385.804480	258.100000
1387.794821	271.800000
1389.784708	254.200000
1391.772290	231.700000
1393.759419	245.700000
1395.744246	247.000000
1397.730468	235.300000
1399.714389	233.100000
1401.697858	235.400000
1403.680875	232.700000
1405.661594	258.400000
1407.643707	264.300000
1409.623523	250.000000
1411.602889	241.300000
1413.578116	256.500000
1415.556581	260.800000
1417.532753	260.000000
1419.508475	262.500000
1421.483749	244.400000
1423.456731	254.300000
1425.429265	233.700000
1427.401351	243.400000
1429.372990	230.100000
1431.340500	244.300000
1433.313084	230.100000
1435.277862	257.600000
1437.247713	252.000000
1439.213439	240.600000
1441.180559	231.700000
1443.145395	243.800000
1445.106111	258.700000
1447.071895	248.200000
1449.031724	253.200000
1450.992947	249.100000
1452.955561	256.400000
1454.914061	260.500000
1456.872119	272.900000
1458.829735	256.800000
1460.786908	244.200000
1462.741806	247.800000
1464.698097	247.500000
1466.652113	234.700000
1468.605688	254.300000
1470.556991	254.400000
1472.509686	251.700000
1474.460110	240.800000
1476.410095	260.200000
1478.359641	252.900000
1480.306918	235.800000
1482.251927	235.100000
1484.198329	221.200000
1486.144293	250.800000
1488.089820	212.200000
1490.033081	242.100000
1491.975906	235.300000
1493.916468	229.400000
1495.858422	243.500000
1497.798113	231.900000
1499.737369	232.500000
1501.676191	229.200000
1503.612753	244.400000
1505.550706	256.900000
1507.486400	247.400000
1509.421661	248.500000
1511.354665	223.000000
1513.287237	237.500000
1515.219377	244.700000
1517.151085	245.700000
1519.080540	254.300000
1521.011385	246.000000
1522.941798	262.700000
1524.868139	249.500000
1526.795870	249.400000
1528.721352	270.800000
1530.646404	255.200000
1532.571027	261.700000
1534.495220	267.800000
1536.417167	286.000000
1538.340504	270.300000
1540.261594	260.400000
1542.180440	280.200000
1544.100676	283.900000
1546.018668	292.800000
1547.936234	304.200000
1549.851559	314.100000
1551.768273	314.900000
1553.680932	353.000000
1555.596794	344.500000
1557.510418	369.700000
1559.421803	384.700000
1561.334578	412.100000
1563.243303	418.300000
1565.153417	479.500000
1567.063108	558.000000
1568.972376	664.500000
1570.879409	744.100000
1572.784210	826.000000
1574.690400	1013.100000
1576.594359	1155.300000
1578.497896	1333.200000
1580.401013	1474.300000
1582.301900	1510.800000
1584.204176	1524.900000
1586.104223	1427.800000
1588.005659	1256.500000
1589.903061	1040.400000
1591.800044	887.700000
1593.696609	720.900000
1595.594561	614.300000
1597.486679	544.800000
1599.381991	459.100000
1601.276885	465.300000
1603.169557	402.100000
1605.061812	358.600000
1606.951848	328.900000
1608.841468	330.700000
1610.730673	333.700000
1612.619462	314.600000
1614.506035	325.900000
1616.393995	307.400000
1618.277938	298.900000
1620.163268	300.000000
1622.048185	289.300000
1623.930888	275.100000
1625.814978	258.200000
1627.695056	245.300000
1629.576522	247.600000
1631.455776	239.500000
1633.336418	227.600000
1635.211255	223.600000
1637.091073	235.400000
1638.966887	219.300000
1640.842290	230.500000
1642.719079	219.800000
1644.590071	229.200000
1646.464246	226.900000
1648.334421	216.700000
1650.207777	196.000000
1652.078930	213.600000
1653.947881	213.900000
1655.818218	206.300000
1657.684562	197.900000
1659.552291	198.600000
1661.417821	205.900000
1663.284737	188.400000
1665.147663	202.800000
1667.011976	184.500000
1668.874092	192.800000
1670.735803	194.600000
1672.598899	177.100000
1674.459801	188.400000
1676.318510	183.600000
1678.176815	180.200000
1680.036504	194.900000
1681.890427	183.800000
1683.747523	187.400000
1685.604215	183.000000
1687.456932	183.400000
1689.312820	190.200000
1691.164734	174.200000
1693.016247	157.400000
1694.867359	195.800000
1696.718070	171.600000
1698.568381	173.100000
1700.416508	163.600000
1702.266019	174.000000
1704.109780	157.800000
1705.958492	205.400000
1707.801457	173.300000
1709.647588	184.200000
1711.489758	174.500000
1713.335093	168.200000
1715.174687	164.100000
1717.015665	171.600000
1718.858026	172.800000
1720.696430	164.100000
1722.536218	176.500000
1724.373831	174.400000
1726.211049	174.200000
1728.046093	173.600000
1729.882520	172.300000
1731.716774	173.400000
1733.550635	168.900000
1735.384101	166.800000
1737.213621	174.300000
1739.046301	149.300000
1740.875035	173.900000
1742.706928	172.000000
1744.534878	169.200000
1746.362436	161.200000
1748.189603	166.000000
1750.016378	183.400000
1751.842761	148.600000
1753.665208	162.100000
1755.490810	154.200000
1757.312477	174.700000
1759.135525	157.900000
1760.956413	172.400000
1762.776912	172.000000
1764.598791	170.800000
1766.414971	173.000000
1768.234303	167.100000
1770.049708	157.200000
1771.868264	165.200000
1773.682894	172.600000
1775.497137	170.100000
1777.310994	165.400000
1779.124464	182.400000
1780.935780	162.000000
1782.748478	169.500000
1784.560790	180.400000
1786.369183	160.500000
1788.178958	171.700000
1789.984818	163.800000
1791.793823	173.500000
1793.598915	172.500000
1795.405388	155.900000
1797.211476	170.100000
1799.013655	175.500000
1800.818978	167.400000
1802.620391	138.600000
1804.423186	147.900000
1806.222074	168.300000
1808.022343	158.300000
1809.822230	141.300000
1811.619975	162.600000
1813.417340	162.800000
1815.214324	163.500000
1817.010929	151.100000
1818.805393	166.000000
1820.601238	171.200000
1822.391427	178.500000
1824.186513	161.100000
1825.975946	177.500000
1827.768517	154.500000
1829.558952	165.800000
1831.347252	152.900000
1833.138688	165.400000
1834.924479	168.000000
1836.711649	163.200000
1838.496687	164.700000
1840.284858	174.500000
1842.069145	152.800000
1843.851301	179.000000
1845.634837	172.800000
1847.416244	191.700000
1849.199029	152.100000
1850.977935	155.300000
1852.758219	186.200000
1854.536378	168.200000
1856.315914	160.200000
1858.093326	165.400000
1859.868615	155.200000
1861.645281	149.200000
1863.419825	163.600000
1865.195746	167.500000
1866.966048	164.500000
1868.739477	169.700000
1870.510786	155.100000
1872.281724	169.300000
1874.054040	191.700000
1875.820742	169.500000
1877.590569	163.200000
1879.356533	174.700000
1881.125621	161.900000
1882.890847	181.900000
1884.655705	160.200000
1886.421939	179.100000
1888.184316	157.000000
1889.946324	160.700000
1891.707966	151.000000
1893.469240	151.300000
1895.230148	166.800000
1896.990688	149.800000
1898.749120	149.900000
1900.507185	158.200000
1902.263143	163.300000
1904.020477	151.900000
1905.777446	160.200000
1907.532308	146.700000
1909.285066	159.300000
1911.037459	172.200000
1912.791229	144.500000
1914.542895	145.600000
1916.292458	149.200000
1918.043398	152.600000
1919.793974	156.700000
1921.540712	160.500000
1923.288825	134.400000
1925.034840	158.000000
1926.782229	144.600000
1928.527520	150.700000
1930.270715	142.800000
1932.015284	147.100000
1933.757757	145.400000
1935.499871	161.400000
1937.241624	131.300000
1938.983017	145.600000
1940.722317	159.200000
1942.461258	152.800000
1944.199840	166.100000
1945.936331	162.000000
1947.672463	153.700000
1949.409971	145.400000
1951.143656	166.900000
1952.878716	136.500000
1954.611687	141.100000
1956.344302	147.300000
1958.076560	149.000000
1959.808462	157.300000
1961.538279	143.700000
1963.266010	161.900000
1964.995116	147.800000
1966.723866	164.900000
1968.450533	132.700000
1970.176846	154.100000
1971.904533	127.800000
1973.626683	155.000000
1975.351934	164.100000
1977.073378	141.600000
1978.797922	150.700000
1980.520387	157.300000
1982.239048	152.200000
1983.960809	161.200000
1985.678767	142.200000
1987.398098	141.100000
1989.113630	153.400000
1990.833982	138.800000
1992.550536	158.000000
1994.263293	157.800000
1995.979146	146.400000
1997.692927	155.800000
1999.406358	165.300000
2001.117718	162.100000
2002.830450	162.000000
2004.539392	158.400000
2006.251426	153.100000
2007.957951	143.900000
2009.667569	145.400000
2011.375119	139.900000
2013.082322	155.100000
2014.787459	178.200000
2016.492250	165.200000
2018.198412	163.000000
2019.900791	148.100000
2021.604543	169.300000
2023.306232	143.000000
2025.007575	153.700000
2026.708574	144.300000
2028.407511	153.600000
2030.107820	147.400000
2031.804353	148.000000
2033.502258	147.500000
2035.198105	139.600000
2036.897037	140.400000
2038.590483	147.300000
2040.285300	134.300000
2041.979774	138.300000
2043.670481	136.500000
2045.364270	125.700000
2047.054294	144.700000
2048.745688	153.000000
2050.435028	141.500000
2052.125740	145.600000
2053.812688	139.400000
2055.499296	128.700000
2057.187275	138.800000
2058.871494	121.500000
2060.557083	146.700000
2062.242333	143.400000
2063.925535	135.700000
2065.610107	136.400000
2067.289215	133.800000
2068.973110	152.100000
2070.651543	133.400000
2072.333054	140.200000
2074.010813	143.500000
2075.688236	136.800000
2077.367028	123.000000
2079.043777	124.900000
2080.718485	130.900000
2082.394563	132.400000
2084.068599	140.700000
2085.742301	142.300000
2087.415667	137.100000
2089.086994	127.500000
2090.757987	146.300000
2092.428646	157.000000
2094.098971	138.700000
2095.768962	140.900000
2097.436917	132.300000
2099.104538	150.200000
2100.770126	128.500000
2102.437082	142.100000
2104.102005	125.100000
2105.766596	138.800000
2107.429155	126.900000
2109.093082	136.200000
2110.754978	113.100000
2112.416544	115.200000
2114.077778	124.300000
2115.736983	140.600000
2117.395859	133.400000
2119.054405	148.600000
2120.712620	147.100000
2122.367113	136.000000
2124.024670	142.600000
2125.681897	126.600000
2127.335404	123.100000
2128.990278	128.700000
2130.641433	112.300000
2132.295651	117.400000
2133.946151	123.200000
2135.598019	126.100000
2137.244478	117.500000
2138.895691	127.000000
2140.543192	118.400000
2142.192059	136.300000
2143.838907	99.300000
2145.485430	126.900000
2147.131627	117.200000
2148.774116	131.500000
2150.419662	124.000000
2152.061502	130.500000
2153.706399	108.700000
2155.347591	133.300000
2156.988459	139.200000
2158.629004	150.600000
2160.267536	132.500000
2161.907434	140.700000
2163.543632	134.800000
2165.181196	124.700000
2166.818438	134.400000
2168.453670	146.500000
2170.088580	125.600000
2171.723169	137.800000
2173.357437	153.600000
2174.988011	136.600000
2176.621637	125.800000
2178.251571	151.000000
2179.882870	136.000000
2181.512164	144.700000
2183.141139	121.400000
2184.769794	118.600000
2186.398130	140.800000
2188.024463	128.700000
2189.650478	132.900000
2191.274492	105.100000
2192.899871	125.000000
2194.523249	139.500000
2196.147992	115.500000
2197.769054	126.100000
2199.389799	121.700000
2201.011908	138.200000
2202.632020	142.800000
2204.250136	137.500000
2205.867936	142.600000
2207.485420	130.800000
2209.102590	108.200000
2210.719443	131.200000
2212.335982	129.700000
2213.950528	125.000000
2215.563081	136.700000
2217.176998	119.700000
2218.788924	115.100000
2220.402213	126.400000
2222.013512	127.200000
2223.622821	142.500000
2225.233493	148.800000
2226.842177	137.100000
2228.450549	120.400000
2230.056934	117.200000
2231.664681	125.300000
2233.270443	122.900000
2234.875893	128.100000
2236.479358	127.300000
2238.084186	124.000000
2239.687030	125.200000
2241.287891	136.300000
2242.890115	120.400000
2244.490357	120.200000
2246.091961	110.600000
2247.689912	114.200000
2249.289226	118.600000
2250.886560	136.200000
2252.483586	137.000000
2254.081973	129.200000
2255.676713	139.500000
2257.269475	120.000000
2258.863600	136.200000
2260.459086	135.500000
2262.050927	137.700000
2263.642462	136.400000
2265.235359	149.800000
2266.822946	114.900000
2268.415229	139.500000
2270.002205	126.600000
2271.592210	130.600000
2273.176910	119.600000
2274.766304	138.100000
2276.350395	122.300000
2277.935848	127.400000
2279.519332	132.900000
2281.105841	140.900000
2282.688717	118.500000
2284.271290	125.600000
2285.853559	126.500000
2287.432198	103.600000
2289.013862	126.500000
2290.591897	120.100000
2292.172955	146.500000
2293.750386	127.700000
2295.325854	108.900000
2296.904344	115.700000
2298.479210	120.300000
2300.053775	112.500000
2301.628039	124.900000
2303.202003	131.100000
2304.775667	129.100000
2306.349031	130.700000
2307.918776	109.200000
2309.488222	124.500000
2311.060686	126.400000
2312.627876	121.400000
2314.198083	98.900000
2315.764677	122.800000
2317.332629	95.000000
2318.898627	124.100000
2320.464327	123.900000
2322.029729	134.100000
2323.593178	128.800000
2325.157986	137.200000
2326.719186	118.400000
2328.283399	132.500000
2329.842352	138.100000
2331.404318	131.600000
2332.964334	123.600000
2334.524054	117.600000
2336.081826	128.300000
2337.639302	128.400000
2339.196484	113.700000
2340.751718	118.400000
2342.306659	130.200000
2343.861305	124.200000
2345.415658	133.800000
2346.969717	134.400000
2348.523483	133.300000
2350.075304	114.000000
2351.625182	134.500000
2353.178069	132.000000
2354.725712	138.600000
2356.276364	131.300000
2357.823424	124.200000
2359.371842	127.900000
2360.919969	122.200000
2362.464507	119.300000
2364.010403	138.200000
2365.554361	120.400000
2367.099675	129.800000
2368.641405	132.300000
2370.184493	107.800000
2371.725644	119.200000
2373.266506	128.000000
2374.807079	123.900000
2376.347363	142.700000
2377.887358	127.500000
2379.423774	128.900000
2380.963192	132.800000
2382.499033	118.800000
2384.036231	124.000000
2385.569853	141.000000
2387.106475	122.300000
2388.641167	124.700000
2390.173929	128.400000
2391.706404	134.700000
2393.236951	132.300000
2394.770496	129.000000
2396.298830	132.100000
2397.828520	116.600000
2399.357925	137.600000
2400.887045	122.200000
2402.415879	127.300000
2403.939509	121.900000
2405.467774	140.600000
2406.990837	159.000000
2408.518533	137.300000
2410.039390	142.800000
2411.564879	131.300000
2413.086809	118.500000
2414.610093	125.500000
2416.131457	126.200000
2417.650901	135.500000
2419.171700	148.500000
2420.690580	140.300000
2422.209179	140.400000
2423.725859	147.800000
2425.243895	142.300000
2426.761649	162.400000
2428.275851	155.300000
2429.789774	142.400000
2431.303416	148.200000
2432.818412	172.200000
2434.329861	160.200000
2435.842663	173.100000
2437.353553	176.000000
2438.864164	175.400000
2440.372863	168.800000
2441.884548	187.400000
2443.392690	181.500000
2444.900554	198.300000
2446.408139	216.500000
2447.912185	216.300000
2449.419215	210.200000
2450.924337	211.000000
2452.429182	205.100000
2453.932120	206.100000
2455.434782	214.000000
2456.937167	223.500000
2458.437647	212.500000
2459.939480	197.400000
2461.439408	190.400000
2462.939061	193.500000
2464.438439	172.900000
2465.935914	175.300000
2467.431487	178.300000
2468.930040	183.500000
2470.425065	162.100000
2471.921442	168.600000
2473.414293	168.600000
2474.908497	177.400000
2476.402427	164.200000
2477.892833	164.900000
2479.386217	126.600000
2480.877703	157.200000
2482.367292	159.400000
2483.856609	172.500000
2485.344030	156.300000
2486.834427	171.500000
2488.321306	134.100000
2489.809536	159.200000
2491.294249	129.900000
2492.778692	164.200000
2494.264487	142.800000
2495.748390	146.200000
2497.233643	148.200000
2498.713763	126.300000
2500.196856	147.100000
2501.678058	143.000000
2503.158991	154.700000
2504.638035	146.900000
2506.116810	127.000000
2507.595317	139.700000
2509.073555	119.700000
2510.551526	153.300000
2512.025991	134.700000
2513.503426	137.000000
2514.977356	133.800000
2516.452638	133.300000
2517.927652	134.600000
2519.399165	137.300000
2520.872029	122.500000
2522.343010	139.700000
2523.815341	143.300000
2525.282558	126.500000
2526.752742	125.300000
2528.221045	129.100000
2529.689083	142.500000
2531.156855	132.300000
2532.624363	122.800000
2534.091607	126.200000
2535.555358	137.500000
2537.020459	135.600000
2538.483683	139.300000
2539.948256	135.600000
2541.409341	126.500000
2542.871775	133.500000
2544.333946	146.300000
2545.792630	140.300000
2547.255887	134.000000
2548.714047	145.400000
2550.173557	133.100000
2551.627972	132.700000
2553.086958	152.300000
2554.544072	139.300000
2555.999314	136.100000
2557.454296	146.000000
2558.907408	127.900000
2560.361869	140.400000
2561.814461	139.700000
2563.266793	145.400000
2564.717257	149.400000
2566.170678	138.100000
2567.619016	117.900000
2569.070309	153.000000
2570.519737	126.200000
2571.965692	132.700000
2573.414602	128.200000
2574.860042	129.800000
2576.306829	151.200000
2577.751753	150.400000
2579.196420	139.000000
2580.642434	155.300000
2582.084982	137.300000
2583.528876	133.100000
2584.969306	135.400000
2586.411084	132.800000
2587.851002	143.500000
2589.292267	150.900000
2590.730070	141.900000
2592.170823	150.300000
2593.606514	140.400000
2595.045153	168.700000
2596.481936	159.500000
2597.916863	165.600000
2599.354737	130.200000
2600.787554	153.400000
2602.221718	161.200000
2603.654028	154.200000
2605.087684	147.300000
2606.519487	143.600000
2607.951036	142.800000
2609.382332	171.000000
2610.811777	161.100000
2612.240969	156.700000
2613.668310	167.000000
2615.096998	183.100000
2616.525433	163.200000
2617.950422	175.500000
2619.376756	193.100000
2620.801243	193.300000
2622.227075	191.400000
2623.649463	182.800000
2625.073196	205.600000
2626.495084	187.200000
2627.916721	203.300000
2629.336514	215.400000
2630.757652	244.600000
2632.178540	236.300000
2633.595989	234.100000
2635.016378	266.800000
2636.433330	242.000000
2637.850034	267.200000
2639.266489	252.500000
2640.682696	285.300000
2642.098655	299.600000
2643.512773	325.500000
2644.926643	318.300000
2646.338674	345.000000
2647.752050	343.800000
2649.161996	350.300000
2650.574878	362.900000
2651.984331	375.100000
2653.393538	422.200000
2654.800909	457.100000
2656.211214	481.400000
2657.619683	515.600000
2659.026318	529.600000
2660.432707	573.200000
2661.837262	617.100000
2663.243161	662.000000
2664.647227	701.800000
2666.051048	775.000000
2667.454625	807.400000
2668.856371	896.300000
2670.259460	974.600000
2671.659131	1053.500000
2673.060146	1142.100000
2674.457745	1235.800000
2675.858273	1313.500000
2677.255387	1393.000000
2678.653844	1456.600000
2680.050474	1511.200000
2681.446861	1529.200000
2682.843006	1605.100000
2684.237325	1590.800000
2685.632987	1593.600000
2687.025240	1593.200000
2688.418835	1534.200000
2689.810606	1502.800000
2691.203720	1402.200000
2692.595010	1324.800000
2693.984477	1297.000000
2695.373704	1177.700000
2696.762692	1100.900000
2698.153021	1024.500000
2699.538367	952.700000
2700.926636	899.500000
2702.313085	822.900000
2703.699295	759.700000
2705.085266	683.400000
2706.467839	635.100000
2707.851754	582.100000
2709.235430	551.900000
2710.618869	539.500000
2711.998912	465.900000
2713.380297	444.100000
2714.759867	418.900000
2716.140777	401.400000
2717.519873	365.000000
2718.897155	369.400000
2720.275778	330.700000
2721.652587	315.400000
2723.029161	314.700000
2724.405499	298.000000
2725.780025	282.800000
2727.155892	271.700000
2728.528373	252.200000
2729.903769	257.600000
2731.274205	240.100000
2732.645981	223.800000
2734.017524	228.300000
2735.387258	225.500000
2736.758332	197.500000
2738.127599	200.200000
2739.496632	202.200000
2740.863859	190.200000
2742.230852	173.900000
2743.597613	177.600000
2744.964141	156.900000
2746.328865	173.100000
2747.693356	145.200000
2749.057616	163.500000
2750.421643	156.000000
2751.785438	149.800000
2753.145861	132.000000
2754.509193	161.900000
2755.867583	142.300000
2757.228883	155.800000
2758.586813	149.500000
2759.947651	139.000000
2761.306689	143.900000
2762.662360	131.400000
2764.020938	133.200000
2765.376149	108.800000
2766.731131	129.000000
2768.084316	136.700000
2769.440408	133.000000
2770.793136	129.500000
2772.145636	134.800000
2773.497907	133.600000
2774.851516	135.600000
2776.201765	117.600000
2777.550219	140.100000
2778.901578	139.800000
2780.249579	122.200000
2781.598917	118.400000
2782.946463	120.800000
2784.293783	117.300000
2785.640875	114.800000
2786.986177	135.400000
2788.331253	117.100000
2789.676103	105.100000
2791.020727	124.800000
2792.361999	112.500000
2793.704608	124.300000
2795.046993	120.300000
2796.389152	138.900000
2797.727962	134.500000
2799.069672	114.900000
2800.408033	121.300000
2801.747732	119.200000
2803.085646	109.400000
2804.421774	106.800000
2805.757680	116.200000
2807.094923	113.400000
2808.430382	120.600000
2809.765617	117.500000
2811.099071	114.500000
2812.433861	123.500000
2813.765311	133.900000
2815.099656	110.900000
2816.429102	124.600000
2817.759886	118.100000
2819.090449	113.500000
2820.419232	101.100000
2821.749351	114.600000
2823.077692	107.300000
2824.405812	114.700000
2825.732154	99.300000
2827.059832	106.000000
2828.384178	93.500000
2829.709860	106.400000
2831.033766	116.600000
2832.357452	100.500000
2833.682474	101.600000
2835.004167	108.600000
2836.325641	105.500000
2837.646895	92.000000
2838.967932	105.200000
2840.287195	113.100000
2841.607794	100.800000
2842.926621	126.200000
2844.245231	89.900000
2845.562069	108.500000
2846.878690	86.900000
2848.195094	96.600000
2849.509728	97.600000
2850.825697	101.900000
2852.138347	104.900000
2853.452331	96.800000
2854.766099	96.800000
2856.079650	103.100000
2857.391435	117.900000
2858.701453	111.300000
2860.012806	80.900000
2861.320844	102.600000
2862.630216	110.300000
2863.939373	110.400000
2865.248316	107.100000
2866.555494	98.400000
2867.860910	80.500000
2869.167659	108.600000
2870.472647	91.900000
2871.777420	112.400000
2873.080433	93.300000
2874.386326	113.700000
2875.687365	106.800000
2876.989737	87.700000
2878.290351	87.400000
2879.592297	105.600000
2880.894031	93.200000
2882.192461	99.400000
2883.492224	99.200000
2884.790230	100.600000
2886.088024	81.200000
2887.384062	87.700000
2888.681432	89.100000
2889.977048	111.500000
2891.272452	81.500000
2892.567645	99.700000
2893.859541	91.000000
2895.154312	86.700000
2896.445788	94.800000
2897.738596	94.900000
2899.031194	115.800000
2900.320497	94.500000
2901.611134	86.000000
2902.900019	101.200000
2904.190236	91.700000
2905.477162	88.400000
2906.765420	102.000000
2908.051929	93.400000
2909.338229	105.200000
2910.624321	103.800000
2911.908665	94.700000
2913.195881	100.200000
2914.478270	68.100000
2915.761991	101.900000
2917.043965	83.600000
2918.325733	106.900000
2919.605755	111.100000
2920.888648	95.400000
2922.169794	105.600000
2923.447659	96.600000
2924.728393	94.000000
2926.005847	87.100000
2927.283094	108.400000
2928.558599	102.300000
2929.836972	81.400000
2931.110531	99.400000
2932.386957	82.900000
2933.661642	108.600000
2934.934586	100.100000
2936.208862	98.300000
2937.481398	88.700000
2938.753729	97.800000
2940.022788	84.400000
2941.294712	97.200000
2942.564898	89.400000
2943.834880	95.000000
2945.104659	112.900000
2946.372702	100.000000
2947.639008	82.700000
2948.905112	85.600000
2950.172547	89.400000
2951.438246	77.900000
2952.703744	89.700000
2953.969039	92.700000
2955.231069	104.900000
2956.494429	84.700000
2957.757588	83.200000
2959.019015	75.600000
2960.281771	82.300000
2961.542795	106.600000
2962.802089	85.800000
2964.061182	97.000000
2965.320076	93.800000
2966.578769	97.900000
2967.837261	82.800000
2969.094025	93.700000
2970.350590	84.500000
2971.605426	87.400000
2972.861592	84.400000
2974.114503	83.800000
2975.368742	73.800000
2976.622783	93.500000
2977.875098	82.100000
2979.127215	94.800000
2980.377607	78.800000
2981.630854	97.300000
2982.879324	87.100000
2984.130649	102.400000
2985.378724	93.800000
2986.626602	94.100000
2987.874284	85.500000
2989.121768	93.600000
2990.367531	80.300000
2991.613098	93.900000
2992.859992	52.500000
2994.103642	81.100000
2995.348619	80.500000
2996.590354	102.700000
2997.834940	73.300000
2999.077807	97.200000
3000.317433	86.600000
3001.559909	79.700000
3002.799145	81.100000
3004.039709	97.500000
3005.278556	70.800000
3006.517209	72.400000
3007.754146	65.200000
3008.992411	99.600000
3010.228960	90.800000
3011.465316	89.000000
3012.701478	79.200000
3013.935926	83.200000
3015.170181	89.600000
3016.404244	93.400000
3017.636593	92.900000
3018.867231	82.400000
3020.100715	85.000000
3021.332488	79.600000
3022.562549	76.900000
3023.792419	68.400000
3025.020579	100.700000
3026.250066	93.700000
3027.477843	77.800000
3028.705429	98.800000
3029.934341	81.400000
3031.158511	93.900000
3032.385524	78.000000
3033.609314	89.100000
3034.834429	79.800000
3036.057839	78.200000
3037.281058	64.300000
3038.502572	84.200000
3039.726927	64.100000
3040.946547	80.600000
3042.167493	72.500000
3043.388249	74.400000
3044.607303	74.200000
3045.827681	75.400000
3047.044843	77.900000
3048.263330	85.700000
3049.480116	83.600000
3050.696713	71.400000
3051.913123	85.400000
3053.126319	84.000000
3054.342353	84.100000
3055.555175	82.100000
3056.770834	75.600000
3057.981771	81.100000
3059.194032	87.100000
3060.406106	69.700000
3061.617994	83.200000
3062.828185	59.600000
3064.038189	83.300000
3065.248007	79.200000
3066.456129	69.200000
3067.664066	77.700000
3068.870307	80.600000
3070.077873	80.500000
3071.283744	74.400000
3072.489430	68.300000
3073.694932	80.200000
3074.898740	69.100000
3076.103872	71.900000
3077.307311	75.500000
3078.509059	58.000000
3079.710622	66.800000
3080.912002	48.000000
3082.113198	73.100000
3083.312704	75.900000
3084.512027	84.000000
3085.712673	68.500000
3086.911629	77.500000
3088.107391	69.600000
3089.305981	85.300000
3090.501378	74.500000
3091.698099	64.400000
3092.891627	70.300000
3094.087983	67.000000
3095.282652	67.700000
3096.474131	66.500000
3097.669942	76.500000
3098.861058	70.300000
3100.053498	66.200000
3101.242749	82.000000
3102.434827	69.900000
3103.625221	50.500000
3104.812429	71.800000
3106.000959	73.500000
3107.190812	70.000000
3108.377480	73.300000
3109.563969	78.200000
3110.750279	87.600000
3111.937910	71.300000
3113.122359	76.000000
3114.305129	41.900000
3115.490721	46.000000
3116.674634	69.100000
3117.856867	77.000000
3119.038923	61.700000
3120.220800	86.700000
3121.402499	73.600000
3122.582521	54.400000
3123.760866	65.400000
3124.942031	66.200000
3126.120021	72.200000
3127.297834	69.700000
3128.475470	78.900000
3129.651431	76.300000
3130.827216	60.500000
3132.004321	69.600000
3133.179753	70.800000
3134.353511	69.700000
3135.525596	48.000000
3136.699003	53.800000
3137.872233	66.100000
3139.043792	83.400000
3140.216671	77.400000
3141.386383	56.100000
3142.557416	62.000000
3143.726778	78.100000
3144.894471	69.000000
3146.064979	53.400000
3147.230829	66.900000
3148.400987	62.500000
3149.566488	59.200000
3150.731816	67.200000
3151.896970	61.900000
3153.061951	59.300000
3154.228251	69.400000
3155.389898	68.300000
3156.552866	70.700000
3157.715661	63.900000
3158.878283	53.600000
3160.039239	77.400000
3161.200024	76.700000
3162.360636	45.600000
3163.519584	65.700000
3164.678361	86.600000
3165.836965	65.300000
3166.995398	66.200000
3168.153660	55.500000
3169.310259	69.500000
3170.465197	68.200000
3171.621454	64.800000
3172.776050	56.100000
3173.930476	71.100000
3175.083242	81.500000
3176.235837	63.500000
3177.388263	55.300000
3178.540518	64.300000
3179.692604	72.500000
3180.841543	69.600000
3181.993289	65.500000
3183.143378	68.500000
3184.291810	65.800000
3185.440072	66.900000
3186.588166	42.300000
3187.736091	62.400000
3188.882360	67.800000
3190.028461	72.300000
3191.172908	74.600000
3192.317187	54.100000
3193.461297	45.000000
3194.606726	68.600000
3195.749016	62.900000
3196.891139	59.900000
3198.033094	62.700000
3199.174882	67.700000
3200.316503	60.000000
3201.454989	62.800000
3202.594792	64.100000
3203.735912	59.800000
3204.873899	53.300000
3206.010235	73.900000
3207.146407	66.100000
3208.283895	68.200000
3209.419735	49.700000
3210.556892	64.400000
3211.689436	63.500000
3212.826261	69.200000
3213.958476	53.400000
3215.092007	70.400000
3216.225373	66.700000
3217.355613	58.700000
3218.488650	96.000000
3219.618561	75.800000
3220.749788	93.900000
3221.877891	63.500000
3223.008790	65.600000
3224.138045	75.000000
3225.265657	57.400000
3226.390146	88.500000
3227.518911	73.500000
3228.644554	95.000000
3229.770034	97.800000
3230.893873	73.200000
3232.020507	102.800000
3233.142543	101.500000
3234.265895	109.900000
3235.389085	117.100000
3236.512112	116.600000
3237.633501	118.300000
3238.754727	112.100000
3239.874315	120.500000
3240.993742	121.000000
3242.111532	119.100000
3243.232113	114.100000
3244.349581	113.300000
3245.466888	120.700000
3246.584035	117.100000
3247.699545	89.900000
3248.816371	108.500000
3249.930087	94.000000
3251.046592	92.300000
3252.161462	74.600000
3253.273224	71.200000
3254.384827	80.200000
3255.497745	62.900000
3256.610503	81.300000
3257.720155	66.100000
3258.831122	60.800000
3259.941930	64.500000
3261.051106	71.600000
3262.158651	73.800000
3263.267511	61.500000
3264.376212	63.100000
3265.481811	64.200000
3266.588725	73.200000
3267.694009	49.100000
3268.800607	76.300000
3269.904105	47.500000
3271.008917	60.000000
3272.113572	78.500000
3273.215129	69.000000
3274.316529	70.400000
3275.419243	53.800000
3276.521801	50.600000
3277.621262	68.000000
3278.723507	52.400000
3279.822656	56.700000
3280.920180	44.600000
3282.017550	78.700000
3283.117701	46.800000
3284.214760	55.000000
3285.311663	57.000000
3286.408411	65.400000
3287.500600	44.900000
3288.597039	66.700000
3289.691855	62.100000
3290.786517	50.900000
3291.879556	56.900000
3292.972442	59.100000
3294.063707	58.600000
3295.156285	69.700000
3296.247243	42.100000
3297.336581	66.100000
3298.425766	56.100000
3299.516263	43.500000
3300.603677	58.500000
3301.690937	67.000000
3302.779510	57.900000
3303.867930	66.900000
3304.951804	52.100000
3306.039919	59.900000
3307.124952	67.600000
3308.208370	58.400000
3309.293100	55.000000
3310.376214	74.800000
3311.460641	62.000000
3312.541989	41.100000
3313.624649	46.800000
3314.705694	59.400000
3315.786589	55.900000
3316.865871	55.600000
3317.945002	48.000000
3319.025445	55.000000
3320.102813	60.100000
3321.181493	63.100000
3322.258561	57.300000
3323.335479	43.600000
3324.410787	64.300000
3325.485945	54.700000
3326.562414	59.300000
3327.635813	53.600000
3328.709062	43.000000
3329.783623	60.800000
3330.856575	64.400000
3331.927918	51.500000
3333.000572	76.000000
3334.070159	50.000000
3335.141058	47.300000
3336.210349	67.900000
3337.280950	60.700000
3338.349946	66.600000
3339.417335	65.100000
3340.483119	37.800000
3341.553129	56.300000
3342.620076	52.700000
3343.683961	51.400000
3344.750613	62.700000
3345.815662	47.200000
3346.879107	61.300000
3347.942406	50.100000
3349.005558	63.400000
3350.068564	43.000000
3351.131424	59.900000
3352.192681	61.200000
3353.250882	48.900000
3354.313304	42.700000
3355.372670	69.900000
3356.431890	49.100000
3357.492419	39.600000
3358.548440	60.900000
3359.607224	56.900000
3360.661501	55.200000
3361.718542	46.900000
3362.773984	44.500000
3363.830736	66.300000
3364.885889	70.800000
3365.939445	52.800000
3366.991404	47.900000
3368.046126	56.000000
3369.097798	37.800000
3370.149327	65.900000
3371.202164	47.700000
3372.251954	55.800000
3373.303053	42.200000
3374.351105	74.800000
3375.401918	38.700000
3376.449685	30.100000
3377.497310	63.700000
3378.544793	42.100000
3379.590683	54.700000
3380.637881	55.900000
3381.682037	37.700000
3382.728951	45.800000
3383.774273	49.500000
3384.816554	56.200000
3385.858694	32.700000
3386.902143	70.300000
3387.945450	67.000000
3388.987167	56.700000
3390.028744	36.700000
3391.070179	43.600000
3392.110026	50.300000
3393.148284	37.000000
3394.187850	40.200000
3395.227276	52.600000
3396.265114	49.800000
3397.301365	41.100000
3398.337477	45.600000
3399.374895	65.700000
3400.409281	56.600000
3401.444975	52.000000
3402.480529	42.700000
3403.513052	52.800000
3404.548327	53.700000
3405.580573	55.100000
3406.612680	47.100000
3407.643203	45.900000
3408.675033	53.200000
3409.706725	43.000000
3410.735389	45.500000
3411.763916	68.200000
3412.793749	58.700000
3413.823445	56.000000
3414.850115	46.300000
3415.878091	57.700000
3416.903044	33.300000
3417.930746	53.900000
3418.955424	46.500000
3419.981409	60.700000
3421.005815	51.700000
3422.030084	45.500000
3423.052774	61.600000
3424.075328	52.400000
3425.099188	35.300000
3426.120028	60.800000
3427.140732	44.200000
3428.162742	46.800000
3429.181734	50.400000
3430.200591	28.800000
3431.220754	39.400000
3432.237900	54.700000
