-117.018713	16.100000
-114.349113	-17.200000
-111.682448	-3.600000
-109.016535	2.400000
-106.353555	-15.000000
-103.689144	10.300000
-101.027664	-8.300000
-98.364755	8.400000
-95.706952	12.100000
-93.047720	8.200000
-90.389236	-17.400000
-87.733677	9.100000
-85.076688	9.700000
-82.424798	-2.200000
-79.771478	1.400000
-77.121077	-14.500000
-74.469248	8.500000
-71.822509	10.700000
-69.174340	-2.200000
-66.526914	0.700000
-63.882403	0.600000
-61.236462	7.600000
-58.595603	-7.300000
-55.953315	1.100000
-53.313936	1.000000
-50.673128	8.200000
-48.033059	6.300000
-45.398064	0.800000
-42.761639	2.000000
-40.128117	12.700000
-37.493167	10.100000
-34.863283	11.800000
-32.229805	9.700000
-29.601390	15.700000
-26.973709	6.400000
-24.344599	14.300000
-21.720547	31.000000
-19.092904	44.300000
-16.470316	38.600000
-13.848458	58.000000
-11.227331	115.000000
-8.606935	255.500000
-5.989426	896.800000
-3.370489	3170.500000
-0.754438	8703.500000
1.860886	13385.800000
4.475481	6220.100000
7.087195	624.600000
9.700337	105.700000
12.308445	52.100000
14.920134	31.900000
17.526793	39.500000
20.134881	27.200000
22.742243	10.900000
25.344581	24.300000
27.950498	-6.700000
30.551392	-1.700000
33.153714	11.900000
35.751018	12.200000
38.351899	16.800000
40.947764	11.200000
43.545057	18.700000
46.141632	4.200000
48.733197	12.400000
51.326190	-5.700000
53.916322	6.200000
56.507881	-3.300000
59.096582	2.500000
61.686709	10.100000
64.271837	11.200000
66.858393	0.800000
69.444235	-3.500000
72.027222	16.000000
74.611637	16.500000
77.188923	4.800000
79.769775	7.900000
82.347778	10.700000
84.925070	1.800000
87.503790	19.500000
90.077527	-0.100000
92.652691	2.800000
95.225012	15.600000
97.796626	7.200000
100.365399	0.400000
102.935599	3.100000
105.502960	7.500000
108.071748	10.100000
110.637699	-9.900000
113.200815	7.600000
115.767487	7.900000
118.324937	22.200000
120.888073	32.200000
123.446250	39.600000
126.007981	55.700000
128.564755	81.100000
131.122955	116.800000
133.676203	179.000000
136.228753	273.600000
138.784853	393.900000
141.336005	486.300000
143.886460	644.900000
146.436217	718.500000
148.983155	803.300000
151.529398	831.800000
154.077066	866.600000
156.624038	894.900000
159.166075	825.000000
161.707418	876.800000
164.248068	845.800000
166.790144	858.300000
169.329408	843.600000
171.865863	858.900000
174.401628	875.200000
176.938818	837.900000
179.475317	825.600000
182.009010	830.200000
184.539899	830.800000
187.070100	815.500000
189.601727	817.200000
192.130552	822.200000
194.656578	792.000000
197.181918	819.200000
199.708683	809.000000
202.232652	806.500000
204.755936	799.100000
207.278534	808.000000
209.798340	823.200000
212.317463	790.100000
214.835903	788.300000
217.355768	820.500000
219.868630	832.200000
222.385024	836.400000
224.900737	884.300000
227.411559	890.600000
229.923806	890.800000
232.433270	907.400000
234.942056	915.200000
237.450164	907.900000
239.959696	907.200000
242.464347	907.200000
244.968322	883.100000
247.473721	885.300000
249.974245	876.000000
252.478292	872.700000
254.975369	876.500000
257.475969	907.600000
259.973797	892.400000
262.470952	874.900000
264.967434	892.000000
267.459053	890.100000
269.954192	902.600000
272.446564	932.200000
274.938266	903.600000
277.427205	937.000000
279.917567	925.500000
282.405168	948.900000
284.890009	953.500000
287.378365	937.200000
289.859781	975.900000
292.344711	970.400000
294.824796	987.700000
297.308393	1012.900000
299.787147	1050.900000
302.267324	1089.400000
304.744750	1094.900000
307.221512	1047.700000
309.697610	1019.700000
312.170960	1003.100000
314.643649	954.000000
317.115676	980.500000
319.587041	977.900000
322.055663	985.400000
324.523625	951.000000
326.993010	912.100000
329.457572	872.600000
331.925638	889.900000
334.388883	858.600000
336.851472	834.200000
339.313404	828.600000
341.774679	821.400000
344.233219	806.700000
346.693183	779.200000
349.150413	792.400000
351.606989	792.300000
354.062911	775.800000
356.516103	756.800000
358.970718	768.700000
361.420531	752.700000
363.873840	749.200000
366.322350	732.100000
368.770210	687.600000
371.219492	706.300000
373.663979	700.500000
376.109890	689.700000
378.555150	693.600000
380.997692	684.900000
383.439586	682.500000
385.880832	666.600000
388.319364	680.400000
390.759316	675.500000
393.196555	658.800000
395.631083	672.500000
398.069097	679.200000
400.502336	669.500000
402.936995	646.300000
405.366882	648.500000
407.800254	660.300000
410.228856	645.700000
412.656816	620.300000
415.086198	623.800000
417.510814	618.300000
419.936852	618.300000
422.362249	614.000000
424.787006	619.200000
427.207004	602.100000
429.628424	623.800000
432.047148	584.800000
434.467292	595.700000
436.884741	575.100000
439.303610	576.300000
441.719785	575.400000
444.131214	585.700000
446.546119	551.700000
448.958335	519.400000
451.369916	491.200000
453.780863	482.200000
456.189123	471.900000
458.596752	468.800000
461.003748	467.500000
463.410113	459.500000
465.813795	441.300000
468.216847	460.200000
470.619269	464.300000
473.021061	475.300000
475.420175	479.700000
477.820709	459.000000
480.220614	483.900000
482.615797	490.300000
485.014446	523.300000
487.408374	530.100000
489.801677	545.000000
492.194355	587.600000
494.586407	631.800000
496.979877	690.900000
499.368635	796.300000
501.754727	979.500000
504.142239	1231.800000
506.529128	1634.800000
508.913352	2342.000000
511.298996	3334.300000
513.681978	4706.400000
516.062299	6212.100000
518.444039	7205.600000
520.823120	7129.400000
523.203619	6351.100000
525.581462	5239.700000
527.956648	4371.400000
530.331218	3624.600000
532.707205	3081.100000
535.080540	2666.300000
537.455292	2336.000000
539.825358	2150.700000
542.194810	1932.200000
544.565679	1756.800000
546.931867	1618.400000
549.299474	1531.600000
551.664435	1425.200000
554.028784	1365.600000
556.392519	1313.800000
558.757672	1258.800000
561.118153	1190.200000
563.480052	1164.000000
565.839310	1144.300000
568.195930	1088.200000
570.555996	1054.200000
572.909370	1020.900000
575.266189	991.300000
577.620373	954.400000
579.973948	912.100000
582.326916	892.400000
584.677251	886.300000
587.029004	846.400000
589.374080	800.300000
591.724619	814.500000
594.068486	771.800000
596.417814	775.300000
598.762493	728.000000
601.104548	743.300000
603.448020	737.500000
605.788869	730.900000
608.129115	746.300000
610.466741	763.300000
612.807802	783.900000
615.144226	823.900000
617.482066	848.600000
619.817289	818.100000
622.149895	791.500000
624.483919	765.100000
626.815328	732.400000
629.146139	705.500000
631.476352	679.500000
633.805968	663.800000
636.130960	698.800000
638.461394	690.000000
640.787207	683.600000
643.110412	686.700000
645.435034	674.700000
647.757050	663.500000
650.078472	654.000000
652.397291	651.800000
654.717527	644.700000
657.037169	648.600000
659.354210	636.100000
661.670659	649.100000
663.984510	652.500000
666.299777	636.300000
668.612447	639.600000
670.926532	669.100000
673.236017	648.300000
675.546918	644.800000
677.855226	615.600000
680.162946	624.900000
682.472080	605.300000
684.776622	608.100000
687.080578	565.400000
689.383948	574.400000
691.688732	566.100000
693.988929	567.200000
696.290542	541.200000
698.591569	558.200000
700.888015	541.200000
703.185876	539.400000
705.483153	529.500000
707.779847	495.300000
710.071965	490.800000
712.367494	499.100000
714.658449	494.000000
716.950819	498.900000
719.240614	497.400000
721.529828	496.900000
723.818463	503.900000
726.104525	497.700000
728.392002	514.000000
730.676907	494.300000
732.961235	489.000000
735.242994	468.600000
737.526167	449.800000
739.808763	491.000000
742.086803	477.900000
744.366257	470.900000
746.645136	478.300000
748.923440	494.400000
751.197193	489.300000
753.472361	479.300000
755.746955	451.600000
758.018990	460.000000
760.292438	457.700000
762.563328	468.300000
764.831662	476.200000
767.101409	486.600000
769.368601	464.800000
771.635224	475.200000
773.901276	475.500000
776.164777	499.200000
778.429691	481.000000
780.694035	476.500000
782.953850	490.600000
785.215077	472.300000
787.475737	472.200000
789.733851	498.500000
791.989420	481.600000
794.248379	484.400000
796.500840	491.600000
798.758668	481.800000
801.011977	493.900000
803.262746	484.700000
805.514927	475.500000
807.764569	489.600000
810.015623	481.500000
812.262167	476.400000
814.510122	478.300000
816.755543	466.800000
819.002375	461.800000
821.248646	454.700000
823.490412	472.000000
825.735562	478.300000
827.974239	455.900000
830.216298	475.900000
832.453859	473.300000
834.692832	489.800000
836.929278	475.600000
839.167135	490.200000
841.402467	452.600000
843.635276	464.900000
845.869495	452.000000
848.101193	471.300000
850.332336	458.200000
852.562924	447.800000
854.792958	458.000000
857.022438	463.600000
859.247436	435.300000
861.475808	416.800000
863.699702	435.400000
865.925007	434.600000
868.145836	433.100000
870.370037	424.700000
872.589765	449.700000
874.810903	422.400000
877.031491	443.500000
879.249570	423.800000
881.469058	438.300000
883.684080	426.400000
885.898554	438.600000
888.112481	419.400000
890.325861	433.100000
892.538693	412.400000
894.750978	402.900000
896.960762	424.000000
899.170000	431.600000
901.378693	417.300000
903.584886	421.400000
905.792489	445.700000
907.997595	436.200000
910.202157	460.100000
912.404224	469.500000
914.607700	470.000000
916.808682	467.000000
919.009122	489.600000
921.210971	523.800000
923.406429	544.200000
925.605245	584.300000
927.799624	633.600000
929.997360	662.400000
932.190660	734.000000
934.385369	824.300000
936.577591	928.000000
938.769276	968.800000
940.960423	1013.900000
943.149087	1058.200000
945.337215	1075.800000
947.522861	1030.500000
949.711861	1022.300000
951.896437	1047.700000
954.080478	1037.400000
956.267869	1053.800000
958.446956	1050.400000
960.629394	1072.700000
962.811298	1037.300000
964.990727	1061.400000
967.167684	1045.000000
969.346049	1078.500000
971.525821	1073.300000
973.699244	1089.000000
975.876013	1089.700000
978.048375	1074.300000
980.222145	1062.000000
982.391511	1050.200000
984.564221	995.100000
986.734466	929.500000
988.904181	835.300000
991.073368	755.500000
993.238158	717.900000
995.406290	675.100000
997.570026	628.600000
999.735170	619.600000
1001.897854	594.600000
1004.060013	589.200000
1006.219715	567.200000
1008.378892	561.000000
1010.539476	540.600000
1012.697605	490.700000
1014.855211	500.000000
1017.012293	467.300000
1019.168851	474.800000
1021.321030	456.700000
1023.474616	458.500000
1025.627680	453.100000
1027.778295	447.100000
1029.930316	440.600000
1032.077965	423.900000
1034.228945	403.000000
1036.375554	403.000000
1038.521644	405.500000
1040.667216	399.100000
1042.814193	397.900000
1044.954881	394.200000
1047.098898	402.000000
1049.240476	403.200000
1051.381536	400.900000
1053.524002	415.500000
1055.660187	402.700000
1057.799699	392.300000
1059.934855	397.600000
1062.073336	382.300000
1064.207464	384.400000
1066.341078	384.200000
1068.476096	395.400000
1070.606766	384.900000
1072.738840	392.800000
1074.868485	389.700000
1076.997617	375.800000
1079.126239	373.900000
1081.254349	345.000000
1083.380033	389.700000
1085.505207	380.700000
1087.631785	365.800000
1089.754025	361.000000
1091.877670	371.400000
1093.996980	352.400000
1096.121519	378.400000
1098.239814	371.200000
1100.359512	356.800000
1102.476793	345.800000
1104.593566	352.500000
1106.709833	366.600000
1108.823685	356.900000
1110.938940	362.800000
1113.049873	347.900000
1115.164118	365.200000
1117.274042	360.800000
1119.385370	354.500000
1121.496193	348.200000
1123.602700	347.200000
1125.712516	347.000000
1127.818019	332.600000
1129.924924	352.600000
1132.025614	338.300000
1134.131516	344.700000
1136.233109	341.800000
1138.336105	325.800000
1140.438600	325.300000
1142.534888	314.300000
1144.636383	320.900000
1146.733576	328.300000
1148.830271	326.900000
1150.926467	329.600000
1153.022165	312.500000
1155.117366	323.600000
1157.210170	308.000000
1159.304376	342.600000
1161.392391	334.600000
1163.485604	331.100000
1165.572630	330.100000
1167.662954	320.300000
1169.748990	322.900000
1171.838324	329.200000
1173.921477	344.300000
1176.006033	341.300000
1178.091990	313.400000
1180.173665	324.400000
1182.256741	320.900000
1184.337432	308.200000
1186.417632	326.500000
1188.497340	321.200000
1190.576557	322.800000
1192.653391	325.100000
1194.727845	309.500000
1196.805591	309.400000
1198.879066	323.900000
1200.953943	328.600000
1203.024552	319.900000
1205.096562	320.200000
1207.166196	311.100000
1209.237231	306.200000
1211.307779	318.400000
1213.374065	296.400000
1215.441752	296.500000
1217.507066	296.800000
1219.573781	288.900000
1221.636241	319.300000
1223.701985	302.700000
1225.763475	302.000000
1227.826366	300.500000
1229.886888	313.100000
1231.946928	321.400000
1234.006484	309.200000
1236.063676	321.900000
1238.120385	311.500000
1240.174732	304.600000
1242.232360	329.500000
1244.287624	317.700000
1246.338649	308.600000
1248.391073	310.600000
1250.443017	323.400000
1252.492603	286.400000
1254.541710	313.200000
1256.590338	310.100000
1258.638488	319.800000
1260.686160	334.400000
1262.729601	317.500000
1264.776318	318.400000
1266.820681	325.300000
1268.864568	329.800000
1270.906103	311.200000
1272.945289	337.700000
1274.987748	310.900000
1277.025984	303.900000
1279.065619	324.600000
1281.104778	328.100000
1283.139720	314.800000
1285.176060	324.300000
1287.210056	315.300000
1289.245449	305.900000
1291.276629	309.300000
1293.309208	316.000000
1295.341315	321.400000
1297.371081	283.700000
1299.402244	305.300000
1301.429200	306.200000
1303.457555	276.900000
1305.481704	312.300000
1307.509119	302.100000
1309.532331	297.100000
1311.556941	302.800000
1313.579216	293.000000
1315.602889	301.100000
1317.624229	288.900000
1319.645102	314.000000
1321.665507	314.600000
1323.681719	296.400000
1325.699328	290.100000
1327.714609	300.800000
1329.733149	290.400000
1331.747499	306.100000
1333.759524	307.000000
1335.774807	314.900000
1337.785904	321.000000
1339.798397	334.800000
1341.806708	333.700000
1343.818275	349.400000
1345.823803	362.700000
1347.832586	352.700000
1349.837191	361.100000
1351.845050	334.200000
1353.852447	351.500000
1355.853813	351.000000
1357.856575	356.200000
1359.858878	344.500000
1361.860721	316.600000
1363.862104	365.700000
1365.861173	318.200000
1367.859785	349.400000
1369.857937	324.600000
1371.855632	299.100000
1373.849164	320.300000
1375.844091	315.300000
1377.838562	328.700000
1379.832576	313.600000
1381.824283	326.800000
1383.815534	302.500000
1385.804480	320.300000
1387.794821	325.900000
1389.784708	290.200000
1391.772290	301.500000
1393.759419	319.400000
1395.744246	318.200000
1397.730468	298.700000
1399.714389	313.400000
1401.697858	305.700000
1403.680875	290.300000
1405.661594	324.100000
1407.643707	309.200000
1409.623523	296.400000
1411.602889	312.300000
1413.578116	312.800000
1415.556581	300.400000
1417.532753	301.200000
1419.508475	310.800000
1421.483749	290.300000
1423.456731	301.600000
1425.429265	295.600000
1427.401351	282.300000
1429.372990	283.200000
1431.340500	281.200000
1433.313084	287.000000
1435.277862	311.900000
1437.247713	308.600000
1439.213439	290.700000
1441.180559	297.700000
1443.145395	320.900000
1445.106111	312.800000
1447.071895	299.700000
1449.031724	303.200000
1450.992947	316.000000
1452.955561	332.000000
1454.914061	319.500000
1456.872119	306.300000
1458.829735	314.700000
1460.786908	293.000000
1462.741806	311.900000
1464.698097	305.600000
1466.652113	289.300000
1468.605688	314.900000
1470.556991	285.300000
1472.509686	321.900000
1474.460110	306.900000
1476.410095	293.000000
1478.359641	290.800000
1480.306918	280.500000
1482.251927	291.800000
1484.198329	273.500000
1486.144293	286.200000
1488.089820	264.000000
1490.033081	274.700000
1491.975906	272.600000
1493.916468	264.900000
1495.858422	277.200000
1497.798113	278.600000
1499.737369	283.600000
1501.676191	299.200000
1503.612753	279.600000
1505.550706	311.300000
1507.486400	298.000000
1509.421661	307.800000
1511.354665	272.100000
1513.287237	288.800000
1515.219377	317.500000
1517.151085	295.100000
1519.080540	304.600000
1521.011385	305.200000
1522.941798	300.300000
1524.868139	309.300000
1526.795870	306.000000
1528.721352	300.600000
1530.646404	319.900000
1532.571027	316.900000
1534.495220	316.700000
1536.417167	309.800000
1538.340504	318.400000
1540.261594	321.300000
1542.180440	332.800000
1544.100676	317.500000
1546.018668	319.900000
1547.936234	356.200000
1549.851559	350.300000
1551.768273	357.700000
1553.680932	374.900000
1555.596794	386.700000
1557.510418	394.000000
1559.421803	401.100000
1561.334578	415.700000
1563.243303	446.600000
1565.153417	472.700000
1567.063108	543.800000
1568.972376	577.500000
1570.879409	646.200000
1572.784210	729.500000
1574.690400	855.400000
1576.594359	989.600000
1578.497896	1153.800000
1580.401013	1343.600000
1582.301900	1449.700000
1584.204176	1465.700000
1586.104223	1399.600000
1588.005659	1292.300000
1589.903061	1140.300000
1591.800044	986.100000
1593.696609	796.700000
1595.594561	663.200000
1597.486679	576.700000
1599.381991	494.800000
1601.276885	475.500000
1603.169557	432.300000
1605.061812	411.900000
1606.951848	374.700000
1608.841468	380.800000
1610.730673	379.600000
1612.619462	352.000000
1614.506035	378.400000
1616.393995	344.600000
1618.277938	336.500000
1620.163268	347.000000
1622.048185	331.700000
1623.930888	326.000000
1625.814978	313.400000
1627.695056	302.500000
1629.576522	289.100000
1631.455776	281.500000
1633.336418	260.000000
1635.211255	276.500000
1637.091073	273.400000
1638.966887	270.900000
1640.842290	267.200000
1642.719079	266.800000
1644.590071	282.300000
1646.464246	270.600000
1648.334421	272.100000
1650.207777	247.400000
1652.078930	261.400000
1653.947881	244.000000
1655.818218	250.500000
1657.684562	228.300000
1659.552291	236.800000
1661.417821	239.500000
1663.284737	242.000000
1665.147663	240.000000
1667.011976	226.700000
1668.874092	222.700000
1670.735803	235.400000
1672.598899	236.000000
1674.459801	228.800000
1676.318510	239.300000
1678.176815	224.000000
1680.036504	231.800000
1681.890427	214.400000
1683.747523	213.900000
1685.604215	215.900000
1687.456932	221.500000
1689.312820	218.000000
1691.164734	207.600000
1693.016247	196.700000
1694.867359	213.800000
1696.718070	211.800000
1698.568381	197.800000
1700.416508	194.700000
1702.266019	206.700000
1704.109780	217.200000
1705.958492	198.300000
1707.801457	197.100000
1709.647588	210.600000
1711.489758	209.100000
1713.335093	207.000000
1715.174687	186.600000
1717.015665	206.400000
1718.858026	194.500000
1720.696430	208.700000
1722.536218	210.000000
1724.373831	211.200000
1726.211049	204.200000
1728.046093	199.600000
1729.882520	210.000000
1731.716774	230.800000
1733.550635	207.700000
1735.384101	185.700000
1737.213621	202.500000
1739.046301	202.600000
1740.875035	213.400000
1742.706928	190.000000
1744.534878	182.900000
1746.362436	200.300000
1748.189603	211.700000
1750.016378	199.500000
1751.842761	183.900000
1753.665208	196.400000
1755.490810	211.700000
1757.312477	214.400000
1759.135525	196.800000
1760.956413	217.400000
1762.776912	203.900000
1764.598791	194.200000
1766.414971	192.800000
1768.234303	190.300000
1770.049708	200.100000
1771.868264	185.900000
1773.682894	202.400000
1775.497137	178.200000
1777.310994	210.200000
1779.124464	208.600000
1780.935780	222.000000
1782.748478	192.200000
1784.560790	213.000000
1786.369183	204.400000
1788.178958	203.200000
1789.984818	191.100000
1791.793823	185.500000
1793.598915	199.200000
1795.405388	190.500000
1797.211476	191.200000
1799.013655	204.500000
1800.818978	208.000000
1802.620391	183.800000
1804.423186	196.100000
1806.222074	209.700000
1808.022343	204.100000
1809.822230	188.800000
1811.619975	196.000000
1813.417340	195.600000
1815.214324	196.600000
1817.010929	189.800000
1818.805393	191.500000
1820.601238	198.100000
1822.391427	198.700000
1824.186513	213.700000
1825.975946	187.100000
1827.768517	183.500000
1829.558952	216.000000
1831.347252	211.000000
1833.138688	211.500000
1834.924479	198.300000
1836.711649	197.600000
1838.496687	206.000000
1840.284858	208.200000
1842.069145	191.900000
1843.851301	225.900000
1845.634837	225.000000
1847.416244	218.800000
1849.199029	214.200000
1850.977935	200.200000
1852.758219	196.400000
1854.536378	211.100000
1856.315914	205.900000
1858.093326	211.200000
1859.868615	194.000000
1861.645281	201.800000
1863.419825	214.300000
1865.195746	220.900000
1866.966048	214.300000
1868.739477	222.200000
1870.510786	184.200000
1872.281724	206.900000
1874.054040	228.000000
1875.820742	204.100000
1877.590569	215.400000
1879.356533	192.800000
1881.125621	197.000000
1882.890847	203.000000
1884.655705	212.500000
1886.421939	209.000000
1888.184316	194.800000
1889.946324	188.700000
1891.707966	184.100000
1893.469240	202.600000
1895.230148	193.200000
1896.990688	189.700000
1898.749120	191.400000
1900.507185	189.800000
1902.263143	194.400000
1904.020477	188.200000
1905.777446	186.800000
1907.532308	181.800000
1909.285066	192.200000
1911.037459	204.300000
1912.791229	175.100000
1914.542895	175.000000
1916.292458	191.400000
1918.043398	179.300000
1919.793974	187.000000
1921.540712	196.900000
1923.288825	178.800000
1925.034840	177.100000
1926.782229	203.100000
1928.527520	190.900000
1930.270715	183.200000
1932.015284	193.700000
1933.757757	190.000000
1935.499871	215.500000
1937.241624	179.100000
1938.983017	186.900000
1940.722317	182.400000
1942.461258	196.500000
1944.199840	195.700000
1945.936331	202.500000
1947.672463	193.650000
1949.409971	184.800000
1951.143656	186.800000
1952.878716	177.900000
1954.611687	162.200000
1956.344302	169.100000
1958.076560	184.100000
1959.808462	174.400000
1961.538279	191.400000
1963.266010	185.000000
1964.995116	180.300000
1966.723866	166.400000
1968.450533	181.600000
1970.176846	179.300000
1971.904533	158.400000
1973.626683	175.200000
1975.351934	190.300000
1977.073378	150.600000
1978.797922	180.400000
1980.520387	172.100000
1982.239048	182.100000
1983.960809	199.400000
1985.678767	194.100000
1987.398098	176.200000
1989.113630	201.000000
1990.833982	166.100000
1992.550536	181.900000
1994.263293	200.400000
1995.979146	176.100000
1997.692927	186.900000
1999.406358	193.800000
2001.117718	193.000000
2002.830450	194.000000
2004.539392	185.100000
2006.251426	189.100000
2007.957951	176.100000
2009.667569	189.500000
2011.375119	185.300000
2013.082322	187.700000
2014.787459	205.700000
2016.492250	189.100000
2018.198412	200.300000
2019.900791	195.400000
2021.604543	204.300000
2023.306232	175.300000
2025.007575	189.400000
2026.708574	197.300000
2028.407511	178.900000
2030.107820	176.800000
2031.804353	182.900000
2033.502258	176.700000
2035.198105	174.300000
2036.897037	181.700000
2038.590483	171.000000
2040.285300	171.200000
2041.979774	167.200000
2043.670481	170.200000
2045.364270	182.000000
2047.054294	175.100000
2048.745688	175.500000
2050.435028	167.300000
2052.125740	181.300000
2053.812688	163.300000
2055.499296	190.100000
2057.187275	172.400000
2058.871494	179.300000
2060.557083	188.700000
2062.242333	192.100000
2063.925535	189.300000
2065.610107	183.700000
2067.289215	158.300000
2068.973110	189.700000
2070.651543	163.700000
2072.333054	171.000000
2074.010813	186.300000
2075.688236	174.200000
2077.367028	168.600000
2079.043777	160.200000
2080.718485	164.500000
2082.394563	175.100000
2084.068599	169.200000
2085.742301	172.200000
2087.415667	187.200000
2089.086994	162.700000
2090.757987	186.300000
2092.428646	193.100000
2094.098971	180.600000
2095.768962	172.300000
2097.436917	169.500000
2099.104538	182.000000
2100.770126	163.300000
2102.437082	167.900000
2104.102005	149.500000
2105.766596	174.700000
2107.429155	177.500000
2109.093082	156.200000
2110.754978	172.300000
2112.416544	159.600000
2114.077778	155.100000
2115.736983	177.000000
2117.395859	186.800000
2119.054405	158.600000
2120.712620	168.300000
2122.367113	170.000000
2124.024670	174.200000
2125.681897	166.200000
2127.335404	170.000000
2128.990278	166.200000
2130.641433	161.800000
2132.295651	141.500000
2133.946151	144.700000
2135.598019	152.500000
2137.244478	153.300000
2138.895691	158.100000
2140.543192	170.000000
2142.192059	163.300000
2143.838907	149.100000
2145.485430	149.800000
2147.131627	162.700000
2148.774116	152.200000
2150.419662	174.000000
2152.061502	159.000000
2153.706399	159.900000
2155.347591	172.200000
2156.988459	172.400000
2158.629004	191.500000
2160.267536	175.100000
2161.907434	154.400000
2163.543632	168.700000
2165.181196	181.300000
2166.818438	166.100000
2168.453670	188.400000
2170.088580	169.600000
2171.723169	179.800000
2173.357437	195.500000
2174.988011	165.700000
2176.621637	145.400000
2178.251571	167.300000
2179.882870	160.300000
2181.512164	156.100000
2183.141139	167.900000
2184.769794	159.600000
2186.398130	166.300000
2188.024463	157.800000
2189.650478	162.200000
2191.274492	145.500000
2192.899871	167.700000
2194.523249	194.500000
2196.147992	144.600000
2197.769054	168.500000
2199.389799	169.300000
2201.011908	178.300000
2202.632020	165.600000
2204.250136	155.200000
2205.867936	170.200000
2207.485420	175.600000
2209.102590	162.800000
2210.719443	160.200000
2212.335982	162.100000
2213.950528	158.700000
2215.563081	172.500000
2217.176998	166.600000
2218.788924	158.300000
2220.402213	159.000000
2222.013512	172.300000
2223.622821	162.800000
2225.233493	167.100000
2226.842177	178.300000
2228.450549	161.600000
2230.056934	148.600000
2231.664681	153.400000
2233.270443	164.100000
2234.875893	151.300000
2236.479358	166.000000
2238.084186	137.200000
2239.687030	140.000000
2241.287891	164.000000
2242.890115	150.100000
2244.490357	167.100000
2246.091961	169.300000
2247.689912	148.400000
2249.289226	163.600000
2250.886560	177.400000
2252.483586	171.800000
2254.081973	175.500000
2255.676713	166.000000
2257.269475	170.600000
2258.863600	172.200000
2260.459086	173.200000
2262.050927	151.500000
2263.642462	176.100000
2265.235359	163.600000
2266.822946	150.800000
2268.415229	174.600000
2270.002205	140.800000
2271.592210	180.900000
2273.176910	175.400000
2274.766304	169.000000
2276.350395	145.100000
2277.935848	148.800000
2279.519332	151.400000
2281.105841	169.400000
2282.688717	151.800000
2284.271290	163.600000
2285.853559	161.000000
2287.432198	147.900000
2289.013862	168.000000
2290.591897	166.100000
2292.172955	161.700000
2293.750386	156.800000
2295.325854	151.900000
2296.904344	143.600000
2298.479210	147.600000
2300.053775	146.300000
2301.628039	148.800000
2303.202003	155.800000
2304.775667	164.900000
2306.349031	148.200000
2307.918776	163.900000
2309.488222	152.500000
2311.060686	152.100000
2312.627876	143.700000
2314.198083	137.700000
2315.764677	162.800000
2317.332629	143.500000
2318.898627	137.700000
2320.464327	153.700000
2322.029729	146.200000
2323.593178	155.900000
2325.157986	155.800000
2326.719186	172.500000
2328.283399	169.300000
2329.842352	165.900000
2331.404318	150.200000
2332.964334	152.300000
2334.524054	153.500000
2336.081826	169.100000
2337.639302	161.700000
2339.196484	154.300000
2340.751718	151.100000
2342.306659	160.200000
2343.861305	145.900000
2345.415658	174.400000
2346.969717	156.900000
2348.523483	162.300000
2350.075304	149.000000
2351.625182	163.300000
2353.178069	159.500000
2354.725712	170.400000
2356.276364	143.200000
2357.823424	150.500000
2359.371842	151.200000
2360.919969	171.600000
2362.464507	149.300000
2364.010403	163.000000
2365.554361	149.600000
2367.099675	161.500000
2368.641405	156.100000
2370.184493	151.000000
2371.725644	157.300000
2373.266506	143.700000
2374.807079	154.900000
2376.347363	173.800000
2377.887358	169.900000
2379.423774	152.000000
2380.963192	164.800000
2382.499033	151.100000
2384.036231	146.700000
2385.569853	157.500000
2387.106475	161.700000
2388.641167	147.900000
2390.173929	168.200000
2391.706404	163.100000
2393.236951	167.900000
2394.770496	151.100000
2396.298830	161.700000
2397.828520	134.900000
2399.357925	161.900000
2400.887045	140.700000
2402.415879	164.800000
2403.939509	165.900000
2405.467774	164.100000
2406.990837	167.100000
2408.518533	180.400000
2410.039390	171.400000
2411.564879	164.500000
2413.086809	163.800000
2414.610093	164.900000
2416.131457	167.700000
2417.650901	142.400000
2419.171700	175.600000
2420.690580	171.700000
2422.209179	166.500000
2423.725859	166.600000
2425.243895	171.100000
2426.761649	183.100000
2428.275851	162.600000
2429.789774	174.100000
2431.303416	188.300000
2432.818412	185.300000
2434.329861	171.700000
2435.842663	189.200000
2437.353553	193.500000
2438.864164	192.700000
2440.372863	232.200000
2441.884548	220.600000
2443.392690	243.400000
2444.900554	247.100000
2446.408139	252.300000
2447.912185	262.200000
2449.419215	246.900000
2450.924337	275.300000
2452.429182	243.000000
2453.932120	263.900000
2455.434782	250.800000
2456.937167	239.300000
2458.437647	246.300000
2459.939480	241.500000
2461.439408	240.500000
2462.939061	256.700000
2464.438439	224.900000
2465.935914	231.600000
2467.431487	215.300000
2468.930040	222.200000
2470.425065	209.300000
2471.921442	206.100000
2473.414293	205.300000
2474.908497	224.600000
2476.402427	193.400000
2477.892833	204.000000
2479.386217	166.000000
2480.877703	195.300000
2482.367292	195.700000
2483.856609	177.100000
2485.344030	179.500000
2486.834427	197.500000
2488.321306	168.000000
2489.809536	186.200000
2491.294249	151.900000
2492.778692	171.000000
2494.264487	161.900000
2495.748390	163.900000
2497.233643	163.900000
2498.713763	162.800000
2500.196856	166.100000
2501.678058	173.800000
2503.158991	185.400000
2504.638035	181.700000
2506.116810	151.000000
2507.595317	156.400000
2509.073555	157.400000
2510.551526	166.600000
2512.025991	165.100000
2513.503426	164.600000
2514.977356	143.000000
2516.452638	168.400000
2517.927652	157.300000
2519.399165	157.900000
2520.872029	154.200000
2522.343010	155.600000
2523.815341	176.100000
2525.282558	156.100000
2526.752742	152.200000
2528.221045	160.500000
2529.689083	162.800000
2531.156855	151.800000
2532.624363	164.500000
2534.091607	152.000000
2535.555358	166.700000
2537.020459	156.700000
2538.483683	157.900000
2539.948256	150.500000
2541.409341	165.200000
2542.871775	167.100000
2544.333946	156.000000
2545.792630	171.100000
2547.255887	153.500000
2548.714047	167.200000
2550.173557	169.000000
2551.627972	152.800000
2553.086958	187.700000
2554.544072	169.800000
2555.999314	158.700000
2557.454296	162.400000
2558.907408	159.700000
2560.361869	164.500000
2561.814461	159.200000
2563.266793	177.700000
2564.717257	166.500000
2566.170678	162.500000
2567.619016	150.200000
2569.070309	184.900000
2570.519737	162.400000
2571.965692	172.900000
2573.414602	169.800000
2574.860042	163.700000
2576.306829	181.600000
2577.751753	175.000000
2579.196420	182.900000
2580.642434	174.700000
2582.084982	172.000000
2583.528876	167.800000
2584.969306	158.400000
2586.411084	172.500000
2587.851002	156.000000
2589.292267	164.400000
2590.730070	175.200000
2592.170823	172.500000
2593.606514	164.100000
2595.045153	182.500000
2596.481936	184.900000
2597.916863	180.400000
2599.354737	167.200000
2600.787554	172.900000
2602.221718	170.800000
2603.654028	192.400000
2605.087684	179.200000
2606.519487	198.000000
2607.951036	168.200000
2609.382332	185.900000
2610.811777	183.100000
2612.240969	177.600000
2613.668310	195.300000
2615.096998	208.400000
2616.525433	198.600000
2617.950422	198.600000
2619.376756	226.300000
2620.801243	233.100000
2622.227075	218.200000
2623.649463	221.800000
2625.073196	224.400000
2626.495084	231.600000
2627.916721	219.900000
2629.336514	230.000000
2630.757652	236.200000
2632.178540	243.700000
2633.595989	261.100000
2635.016378	283.900000
2636.433330	278.200000
2637.850034	282.300000
2639.266489	290.700000
2640.682696	296.800000
2642.098655	325.000000
2643.512773	315.500000
2644.926643	326.300000
2646.338674	339.200000
2647.752050	361.100000
2649.161996	391.600000
2650.574878	390.400000
2651.984331	419.200000
2653.393538	454.100000
2654.800909	488.000000
2656.211214	527.600000
2657.619683	559.700000
2659.026318	583.800000
2660.432707	646.900000
2661.837262	673.700000
2663.243161	714.900000
2664.647227	804.000000
2666.051048	865.200000
2667.454625	939.400000
2668.856371	1066.300000
2670.259460	1130.100000
2671.659131	1254.300000
2673.060146	1361.000000
2674.457745	1429.500000
2675.858273	1548.600000
2677.255387	1671.900000
2678.653844	1748.100000
2680.050474	1796.400000
2681.446861	1855.100000
2682.843006	1922.600000
2684.237325	1943.800000
2685.632987	1962.100000
2687.025240	1999.700000
2688.418835	1935.900000
2689.810606	1901.700000
2691.203720	1794.400000
2692.595010	1693.900000
2693.984477	1660.800000
2695.373704	1548.000000
2696.762692	1432.400000
2698.153021	1330.200000
2699.538367	1226.000000
2700.926636	1160.200000
2702.313085	1073.800000
2703.699295	940.000000
2705.085266	908.700000
2706.467839	806.200000
2707.851754	738.600000
2709.235430	672.300000
2710.618869	645.100000
2711.998912	567.300000
2713.380297	527.600000
2714.759867	522.700000
2716.140777	457.900000
2717.519873	451.200000
2718.897155	436.800000
2720.275778	400.900000
2721.652587	367.200000
2723.029161	368.900000
2724.405499	346.000000
2725.780025	315.500000
2727.155892	318.000000
2728.528373	285.300000
2729.903769	286.900000
2731.274205	285.700000
2732.645981	264.700000
2734.017524	274.900000
2735.387258	246.800000
2736.758332	239.500000
2738.127599	216.300000
2739.496632	222.300000
2740.863859	211.600000
2742.230852	212.600000
2743.597613	219.600000
2744.964141	196.900000
2746.328865	197.900000
2747.693356	186.900000
2749.057616	201.000000
2750.421643	192.700000
2751.785438	175.700000
2753.145861	184.200000
2754.509193	186.800000
2755.867583	166.800000
2757.228883	166.200000
2758.586813	178.200000
2759.947651	158.500000
2761.306689	174.800000
2762.662360	164.100000
2764.020938	167.100000
2765.376149	152.200000
2766.731131	164.500000
2768.084316	158.300000
2769.440408	175.400000
2770.793136	149.000000
2772.145636	152.400000
2773.497907	164.400000
2774.851516	153.400000
2776.201765	154.600000
2777.550219	176.800000
2778.901578	170.200000
2780.249579	160.100000
2781.598917	148.900000
2782.946463	163.700000
2784.293783	166.200000
2785.640875	148.200000
2786.986177	152.100000
2788.331253	160.500000
2789.676103	145.200000
2791.020727	153.500000
2792.361999	149.600000
2793.704608	160.700000
2795.046993	152.300000
2796.389152	160.300000
2797.727962	143.900000
2799.069672	155.100000
2800.408033	146.000000
2801.747732	156.400000
2803.085646	135.300000
2804.421774	150.700000
2805.757680	162.100000
2807.094923	150.700000
2808.430382	154.900000
2809.765617	171.600000
2811.099071	151.600000
2812.433861	142.000000
2813.765311	154.600000
2815.099656	140.200000
2816.429102	141.500000
2817.759886	145.200000
2819.090449	137.100000
2820.419232	124.900000
2821.749351	145.800000
2823.077692	152.200000
2824.405812	124.100000
2825.732154	143.600000
2827.059832	134.100000
2828.384178	128.700000
2829.709860	125.000000
2831.033766	132.000000
2832.357452	132.100000
2833.682474	134.000000
2835.004167	115.600000
2836.325641	135.300000
2837.646895	131.900000
2838.967932	112.200000
2840.287195	123.800000
2841.607794	122.800000
2842.926621	147.900000
2844.245231	136.100000
2845.562069	128.600000
2846.878690	108.900000
2848.195094	133.400000
2849.509728	134.500000
2850.825697	122.900000
2852.138347	138.800000
2853.452331	132.900000
2854.766099	123.100000
2856.079650	132.400000
2857.391435	125.700000
2858.701453	129.500000
2860.012806	120.600000
2861.320844	131.700000
2862.630216	148.700000
2863.939373	141.100000
2865.248316	116.100000
2866.555494	123.200000
2867.860910	116.900000
2869.167659	128.800000
2870.472647	128.400000
2871.777420	140.600000
2873.080433	120.400000
2874.386326	119.300000
2875.687365	128.700000
2876.989737	106.400000
2878.290351	105.200000
2879.592297	125.100000
2880.894031	114.300000
2882.192461	117.900000
2883.492224	98.900000
2884.790230	120.700000
2886.088024	101.700000
2887.384062	116.300000
2888.681432	125.300000
2889.977048	126.500000
2891.272452	114.700000
2892.567645	107.200000
2893.859541	106.700000
2895.154312	124.400000
2896.445788	111.900000
2897.738596	129.400000
2899.031194	119.700000
2900.320497	119.800000
2901.611134	124.100000
2902.900019	115.400000
2904.190236	111.600000
2905.477162	125.900000
2906.765420	136.800000
2908.051929	131.700000
2909.338229	119.400000
2910.624321	127.800000
2911.908665	138.900000
2913.195881	138.900000
2914.478270	91.500000
2915.761991	122.900000
2917.043965	120.500000
2918.325733	120.900000
2919.605755	129.100000
2920.888648	128.200000
2922.169794	109.100000
2923.447659	115.600000
2924.728393	117.800000
2926.005847	115.800000
2927.283094	129.800000
2928.558599	115.400000
2929.836972	111.600000
2931.110531	108.000000
2932.386957	124.700000
2933.661642	120.100000
2934.934586	116.900000
2936.208862	114.400000
2937.481398	124.200000
2938.753729	115.900000
2940.022788	121.900000
2941.294712	131.800000
2942.564898	108.400000
2943.834880	110.500000
2945.104659	123.900000
2946.372702	111.700000
2947.639008	114.500000
2948.905112	101.200000
2950.172547	115.300000
2951.438246	124.200000
2952.703744	111.700000
2953.969039	100.600000
2955.231069	117.900000
2956.494429	106.500000
2957.757588	98.300000
2959.019015	103.700000
2960.281771	91.800000
2961.542795	134.800000
2962.802089	116.800000
2964.061182	119.000000
2965.320076	135.600000
2966.578769	110.700000
2967.837261	100.400000
2969.094025	101.300000
2970.350590	110.600000
2971.605426	112.900000
2972.861592	107.400000
2974.114503	106.600000
2975.368742	109.300000
2976.622783	111.000000
2977.875098	99.100000
2979.127215	107.800000
2980.377607	103.200000
2981.630854	118.400000
2982.879324	106.800000
2984.130649	134.100000
2985.378724	117.200000
2986.626602	99.700000
2987.874284	115.200000
2989.121768	107.000000
2990.367531	94.600000
2991.613098	95.500000
2992.859992	101.900000
2994.103642	120.200000
2995.348619	112.500000
2996.590354	119.000000
2997.834940	104.800000
2999.077807	126.800000
3000.317433	114.000000
3001.559909	90.100000
3002.799145	88.700000
3004.039709	107.900000
3005.278556	95.000000
3006.517209	102.800000
3007.754146	105.900000
3008.992411	96.800000
3010.228960	112.700000
3011.465316	99.000000
3012.701478	105.100000
3013.935926	100.200000
3015.170181	104.000000
3016.404244	100.500000
3017.636593	111.200000
3018.867231	107.800000
3020.100715	91.800000
3021.332488	99.500000
3022.562549	106.900000
3023.792419	105.800000
3025.020579	103.900000
3026.250066	115.600000
3027.477843	90.900000
3028.705429	111.400000
3029.934341	109.600000
3031.158511	99.200000
3032.385524	103.600000
3033.609314	99.000000
3034.834429	95.700000
3036.057839	89.500000
3037.281058	96.600000
3038.502572	96.200000
3039.726927	88.200000
3040.946547	111.400000
3042.167493	96.900000
3043.388249	86.300000
3044.607303	100.700000
3045.827681	93.300000
3047.044843	76.600000
3048.263330	95.200000
3049.480116	112.800000
3050.696713	96.900000
3051.913123	100.100000
3053.126319	93.200000
3054.342353	98.800000
3055.555175	99.000000
3056.770834	102.500000
3057.981771	101.800000
3059.194032	105.700000
3060.406106	97.900000
3061.617994	95.600000
3062.828185	87.200000
3064.038189	95.500000
3065.248007	80.000000
3066.456129	101.000000
3067.664066	88.100000
3068.870307	100.800000
3070.077873	96.800000
3071.283744	92.950000
3072.489430	89.100000
3073.694932	86.000000
3074.898740	87.800000
3076.103872	93.000000
3077.307311	90.200000
3078.509059	76.800000
3079.710622	86.700000
3080.912002	69.600000
3082.113198	85.800000
3083.312704	78.600000
3084.512027	74.300000
3085.712673	91.000000
3086.911629	84.700000
3088.107391	80.700000
3089.305981	87.800000
3090.501378	88.700000
3091.698099	91.900000
3092.891627	76.300000
3094.087983	75.900000
3095.282652	83.700000
3096.474131	75.500000
3097.669942	97.800000
3098.861058	85.600000
3100.053498	84.700000
3101.242749	99.900000
3102.434827	87.800000
3103.625221	71.500000
3104.812429	80.100000
3106.000959	99.600000
3107.190812	93.700000
3108.377480	93.500000
3109.563969	84.000000
3110.750279	99.200000
3111.937910	99.700000
3113.122359	100.000000
3114.305129	80.100000
3115.490721	72.300000
3116.674634	78.900000
3117.856867	87.700000
3119.038923	84.400000
3120.220800	82.900000
3121.402499	87.700000
3122.582521	82.500000
3123.760866	105.000000
3124.942031	97.800000
3126.120021	90.100000
3127.297834	80.800000
3128.475470	88.300000
3129.651431	93.100000
3130.827216	85.900000
3132.004321	93.900000
3133.179753	94.100000
3134.353511	79.500000
3135.525596	62.300000
3136.699003	72.600000
3137.872233	81.100000
3139.043792	95.700000
3140.216671	83.200000
3141.386383	76.500000
3142.557416	83.200000
3143.726778	85.100000
3144.894471	93.200000
3146.064979	81.300000
3147.230829	91.300000
3148.400987	82.800000
3149.566488	75.000000
3150.731816	73.800000
3151.896970	95.100000
3153.061951	77.100000
3154.228251	93.600000
3155.389898	86.700000
3156.552866	94.200000
3157.715661	86.300000
3158.878283	75.900000
3160.039239	90.700000
3161.200024	76.700000
3162.360636	88.800000
3163.519584	90.500000
3164.678361	96.300000
3165.836965	99.900000
3166.995398	84.100000
3168.153660	97.800000
3169.310259	90.600000
3170.465197	91.000000
3171.621454	87.000000
3172.776050	86.900000
3173.930476	87.900000
3175.083242	92.200000
3176.235837	90.200000
3177.388263	72.400000
3178.540518	79.200000
3179.692604	80.300000
3180.841543	87.700000
3181.993289	68.200000
3183.143378	98.000000
3184.291810	75.900000
3185.440072	65.200000
3186.588166	67.300000
3187.736091	87.600000
3188.882360	80.100000
3190.028461	71.700000
3191.172908	83.400000
3192.317187	80.700000
3193.461297	77.400000
3194.606726	69.400000
3195.749016	78.400000
3196.891139	76.100000
3198.033094	72.200000
3199.174882	82.200000
3200.316503	72.500000
3201.454989	76.600000
3202.594792	74.600000
3203.735912	84.500000
3204.873899	69.800000
3206.010235	82.200000
3207.146407	77.100000
3208.283895	95.400000
3209.419735	75.900000
3210.556892	75.900000
3211.689436	69.000000
3212.826261	88.600000
3213.958476	71.600000
3215.092007	83.700000
3216.225373	86.500000
3217.355613	84.700000
3218.488650	101.800000
3219.618561	82.700000
3220.749788	95.400000
3221.877891	70.600000
3223.008790	89.300000
3224.138045	81.300000
3225.265657	90.100000
3226.390146	91.300000
3227.518911	92.300000
3228.644554	108.700000
3229.770034	97.100000
3230.893873	103.100000
3232.020507	122.100000
3233.142543	133.500000
3234.265895	120.400000
3235.389085	130.700000
3236.512112	138.700000
3237.633501	123.800000
3238.754727	147.800000
3239.874315	134.000000
3240.993742	150.000000
3242.111532	140.200000
3243.232113	145.200000
3244.349581	139.500000
3245.466888	130.800000
3246.584035	134.700000
3247.699545	106.300000
3248.816371	123.000000
3249.930087	112.800000
3251.046592	110.700000
3252.161462	107.900000
3253.273224	105.500000
3254.384827	91.900000
3255.497745	83.900000
3256.610503	97.900000
3257.720155	77.300000
3258.831122	84.400000
3259.941930	87.900000
3261.051106	96.500000
3262.158651	90.300000
3263.267511	81.600000
3264.376212	86.400000
3265.481811	76.900000
3266.588725	75.700000
3267.694009	53.500000
3268.800607	85.400000
3269.904105	63.300000
3271.008917	86.000000
3272.113572	98.300000
3273.215129	76.700000
3274.316529	72.000000
3275.419243	58.700000
3276.521801	71.200000
3277.621262	96.400000
3278.723507	69.300000
3279.822656	70.900000
3280.920180	61.300000
3282.017550	74.900000
3283.117701	70.400000
3284.214760	71.100000
3285.311663	60.300000
3286.408411	72.200000
3287.500600	60.000000
3288.597039	85.200000
3289.691855	79.300000
3290.786517	64.600000
3291.879556	69.000000
3292.972442	69.400000
3294.063707	70.700000
3295.156285	80.200000
3296.247243	63.800000
3297.336581	74.700000
3298.425766	68.700000
3299.516263	59.900000
3300.603677	72.000000
3301.690937	77.500000
3302.779510	78.900000
3303.867930	71.400000
3304.951804	72.600000
3306.039919	68.700000
3307.124952	65.800000
3308.208370	65.700000
3309.293100	63.900000
3310.376214	67.100000
3311.460641	79.200000
3312.541989	67.200000
3313.624649	63.000000
3314.705694	84.500000
3315.786589	67.100000
3316.865871	80.200000
3317.945002	85.200000
3319.025445	76.700000
3320.102813	69.500000
3321.181493	82.100000
3322.258561	72.800000
3323.335479	71.000000
3324.410787	66.200000
3325.485945	72.300000
3326.562414	65.300000
3327.635813	67.900000
3328.709062	57.400000
3329.783623	58.900000
3330.856575	77.500000
3331.927918	61.800000
3333.000572	76.100000
3334.070159	65.200000
3335.141058	57.200000
3336.210349	66.000000
3337.280950	56.400000
3338.349946	80.400000
3339.417335	84.200000
3340.483119	58.300000
3341.553129	76.600000
3342.620076	52.700000
3343.683961	69.000000
3344.750613	78.600000
3345.815662	51.200000
3346.879107	59.800000
3347.942406	57.000000
3349.005558	67.800000
3350.068564	70.200000
3351.131424	86.800000
3352.192681	71.200000
3353.250882	66.300000
3354.313304	62.900000
3355.372670	78.900000
3356.431890	66.500000
3357.492419	62.200000
3358.548440	76.300000
3359.607224	71.400000
3360.661501	65.100000
3361.718542	74.300000
3362.773984	75.300000
3363.830736	70.400000
3364.885889	66.500000
3365.939445	66.400000
3366.991404	69.600000
3368.046126	63.100000
3369.097798	58.800000
3370.149327	82.700000
3371.202164	65.900000
3372.251954	64.900000
3373.303053	73.500000
3374.351105	75.900000
3375.401918	67.100000
3376.449685	53.000000
3377.497310	79.600000
3378.544793	47.600000
3379.590683	72.500000
3380.637881	77.200000
3381.682037	64.700000
3382.728951	54.200000
3383.774273	62.000000
3384.816554	60.300000
3385.858694	64.200000
3386.902143	67.200000
3387.945450	63.100000
3388.987167	70.400000
3390.028744	59.100000
3391.070179	53.700000
3392.110026	68.100000
3393.148284	61.400000
3394.187850	64.900000
3395.227276	68.200000
3396.265114	53.900000
3397.301365	44.900000
3398.337477	55.100000
3399.374895	74.800000
3400.409281	68.400000
3401.444975	61.600000
3402.480529	57.600000
3403.513052	62.300000
3404.548327	52.000000
3405.580573	53.000000
3406.612680	50.500000
3407.643203	57.500000
3408.675033	64.500000
3409.706725	56.100000
3410.735389	63.300000
3411.763916	73.300000
3412.793749	69.200000
3413.823445	62.900000
3414.850115	60.800000
3415.878091	60.000000
3416.903044	48.100000
3417.930746	72.800000
3418.955424	75.600000
3419.981409	61.700000
3421.005815	58.600000
3422.030084	67.400000
3423.052774	70.800000
3424.075328	53.800000
3425.099188	58.900000
3426.120028	65.800000
3427.140732	60.900000
3428.162742	44.100000
3429.181734	62.900000
3430.200591	52.600000
3431.220754	52.400000
3432.237900	39.100000
