-117.018713	14.600000
-114.349113	-1.400000
-111.682448	-0.800000
-109.016535	0.700000
-106.353555	-1.500000
-103.689144	-3.200000
-101.027664	3.600000
-98.364755	13.400000
-95.706952	4.600000
-93.047720	6.600000
-90.389236	-8.600000
-87.733677	-3.500000
-85.076688	8.600000
-82.424798	8.700000
-79.771478	12.800000
-77.121077	-9.300000
-74.469248	5.200000
-71.822509	13.300000
-69.174340	0.900000
-66.526914	-0.200000
-63.882403	10.100000
-61.236462	4.100000
-58.595603	-2.800000
-55.953315	-5.500000
-53.313936	2.900000
-50.673128	7.200000
-48.033059	13.900000
-45.398064	1.100000
-42.761639	-3.900000
-40.128117	11.400000
-37.493167	15.400000
-34.863283	17.500000
-32.229805	18.400000
-29.601390	20.200000
-26.973709	26.000000
-24.344599	23.600000
-21.720547	26.900000
-19.092904	41.800000
-16.470316	46.100000
-13.848458	67.000000
-11.227331	133.200000
-8.606935	287.700000
-5.989426	942.200000
-3.370489	3020.300000
-0.754438	9895.600000
1.860886	14091.100000
4.475481	7875.400000
7.087195	893.300000
9.700337	121.800000
12.308445	67.100000
14.920134	32.500000
17.526793	36.800000
20.134881	33.700000
22.742243	13.900000
25.344581	38.800000
27.950498	14.500000
30.551392	3.900000
33.153714	10.100000
35.751018	17.100000
38.351899	19.100000
40.947764	20.700000
43.545057	22.800000
46.141632	4.600000
48.733197	12.100000
51.326190	4.200000
53.916322	12.600000
56.507881	12.700000
59.096582	6.400000
61.686709	11.300000
64.271837	5.400000
66.858393	25.100000
69.444235	14.800000
72.027222	5.200000
74.611637	14.900000
77.188923	4.200000
79.769775	4.100000
82.347778	11.800000
84.925070	17.900000
87.503790	14.000000
90.077527	5.600000
92.652691	8.800000
95.225012	7.500000
97.796626	20.000000
100.365399	5.400000
102.935599	9.300000
105.502960	0.900000
108.071748	17.000000
110.637699	9.300000
113.200815	8.200000
115.767487	28.500000
118.324937	25.100000
120.888073	44.200000
123.446250	45.700000
126.007981	76.000000
128.564755	89.400000
131.122955	127.100000
133.676203	221.400000
136.228753	318.200000
138.784853	443.900000
141.336005	578.000000
143.886460	759.500000
146.436217	823.500000
148.983155	917.700000
151.529398	963.600000
154.077066	1013.000000
156.624038	1025.500000
159.166075	976.000000
161.707418	1002.800000
164.248068	983.000000
166.790144	997.700000
169.329408	962.900000
171.865863	980.600000
174.401628	993.800000
176.938818	969.900000
179.475317	959.600000
182.009010	928.400000
184.539899	963.200000
187.070100	925.300000
189.601727	949.600000
192.130552	926.300000
194.656578	944.800000
197.181918	929.900000
199.708683	952.100000
202.232652	931.700000
204.755936	923.300000
207.278534	959.000000
209.798340	929.700000
212.317463	921.300000
214.835903	925.600000
217.355768	938.100000
219.868630	971.900000
222.385024	983.000000
224.900737	1012.900000
227.411559	1026.700000
229.923806	1033.500000
232.433270	1028.100000
234.942056	1044.400000
237.450164	1014.100000
239.959696	1042.900000
242.464347	1037.000000
244.968322	1031.800000
247.473721	1049.000000
249.974245	1026.100000
252.478292	1010.800000
254.975369	1022.000000
257.475969	1048.800000
259.973797	1022.000000
262.470952	1024.600000
264.967434	1012.600000
267.459053	1038.900000
269.954192	1005.600000
272.446564	1041.500000
274.938266	1025.600000
277.427205	1033.700000
279.917567	1039.800000
282.405168	1069.900000
284.890009	1080.500000
287.378365	1079.300000
289.859781	1080.700000
292.344711	1088.300000
294.824796	1149.600000
297.308393	1137.900000
299.787147	1159.500000
302.267324	1220.000000
304.744750	1211.100000
307.221512	1174.700000
309.697610	1149.600000
312.170960	1102.200000
314.643649	1101.200000
317.115676	1132.700000
319.587041	1128.800000
322.055663	1137.200000
324.523625	1130.600000
326.993010	1060.400000
329.457572	1024.100000
331.925638	1031.400000
334.388883	999.500000
336.851472	1007.800000
339.313404	981.200000
341.774679	954.800000
344.233219	936.600000
346.693183	935.300000
349.150413	929.900000
351.606989	899.900000
354.062911	943.800000
356.516103	921.700000
358.970718	911.400000
361.420531	918.100000
363.873840	913.200000
366.322350	904.600000
368.770210	842.500000
371.219492	878.400000
373.663979	831.800000
376.109890	854.100000
378.555150	818.100000
380.997692	838.900000
383.439586	819.100000
385.880832	832.300000
388.319364	802.700000
390.759316	824.600000
393.196555	811.200000
395.631083	812.600000
398.069097	813.000000
400.502336	814.000000
402.936995	802.300000
405.366882	816.000000
407.800254	819.300000
410.228856	799.300000
412.656816	773.100000
415.086198	776.400000
417.510814	743.700000
419.936852	770.100000
422.362249	763.000000
424.787006	754.500000
427.207004	746.400000
429.628424	765.100000
432.047148	736.300000
434.467292	738.800000
436.884741	735.200000
439.303610	720.700000
441.719785	715.200000
444.131214	721.600000
446.546119	673.900000
448.958335	682.000000
451.369916	662.600000
453.780863	644.900000
456.189123	641.100000
458.596752	626.500000
461.003748	641.900000
463.410113	604.900000
465.813795	612.700000
468.216847	619.200000
470.619269	602.000000
473.021061	617.500000
475.420175	607.800000
477.820709	627.500000
480.220614	656.300000
482.615797	654.000000
485.014446	661.200000
487.408374	679.300000
489.801677	676.700000
492.194355	733.700000
494.586407	751.000000
496.979877	815.500000
499.368635	927.400000
501.754727	1112.900000
504.142239	1363.800000
506.529128	1768.300000
508.913352	2409.100000
511.298996	3437.400000
513.681978	4813.000000
516.062299	6272.300000
518.444039	7280.800000
520.823120	7186.200000
523.203619	6406.700000
525.581462	5304.900000
527.956648	4418.200000
530.331218	3724.400000
532.707205	3176.400000
535.080540	2753.100000
537.455292	2483.300000
539.825358	2218.300000
542.194810	2033.300000
544.565679	1881.000000
546.931867	1743.300000
549.299474	1639.100000
551.664435	1543.100000
554.028784	1469.600000
556.392519	1405.100000
558.757672	1363.400000
561.118153	1325.000000
563.480052	1327.900000
565.839310	1270.500000
568.195930	1209.500000
570.555996	1225.800000
572.909370	1152.700000
575.266189	1125.800000
577.620373	1081.000000
579.973948	1063.000000
582.326916	1034.400000
584.677251	1044.700000
587.029004	1009.000000
589.374080	994.100000
591.724619	946.200000
594.068486	952.800000
596.417814	919.200000
598.762493	892.800000
601.104548	908.900000
603.448020	895.500000
605.788869	893.000000
608.129115	904.600000
610.466741	897.200000
612.807802	922.800000
615.144226	961.700000
617.482066	966.300000
619.817289	967.400000
622.149895	919.300000
624.483919	884.100000
626.815328	861.100000
629.146139	852.100000
631.476352	819.900000
633.805968	819.300000
636.130960	799.300000
638.461394	802.900000
640.787207	802.100000
643.110412	820.600000
645.435034	796.000000
647.757050	797.800000
650.078472	774.000000
652.397291	789.200000
654.717527	763.100000
657.037169	780.900000
659.354210	787.100000
661.670659	769.800000
663.984510	783.400000
666.299777	763.600000
668.612447	770.700000
670.926532	761.100000
673.236017	777.400000
675.546918	774.500000
677.855226	758.500000
680.162946	781.700000
682.472080	760.400000
684.776622	745.100000
687.080578	766.400000
689.383948	730.300000
691.688732	734.200000
693.988929	730.000000
696.290542	688.700000
698.591569	703.400000
700.888015	682.200000
703.185876	659.700000
705.483153	659.900000
707.779847	673.800000
710.071965	648.900000
712.367494	623.200000
714.658449	642.900000
716.950819	639.000000
719.240614	627.300000
721.529828	625.400000
723.818463	649.000000
726.104525	626.500000
728.392002	644.400000
730.676907	625.000000
732.961235	617.300000
735.242994	630.100000
737.526167	625.700000
739.808763	634.400000
742.086803	636.300000
744.366257	617.500000
746.645136	635.200000
748.923440	632.700000
751.197193	625.600000
753.472361	608.700000
755.746955	614.500000
758.018990	632.300000
760.292438	617.400000
762.563328	588.600000
764.831662	618.100000
767.101409	620.200000
769.368601	634.100000
771.635224	610.800000
773.901276	612.200000
776.164777	630.500000
778.429691	633.400000
780.694035	631.500000
782.953850	610.400000
785.215077	623.800000
787.475737	615.700000
789.733851	630.400000
791.989420	646.600000
794.248379	632.900000
796.500840	630.400000
798.758668	636.700000
801.011977	643.900000
803.262746	644.400000
805.514927	634.200000
807.764569	654.800000
810.015623	651.500000
812.262167	641.200000
814.510122	623.600000
816.755543	660.500000
819.002375	628.700000
821.248646	623.600000
823.490412	605.000000
825.735562	626.300000
827.974239	631.400000
830.216298	596.400000
832.453859	628.900000
834.692832	608.700000
836.929278	639.400000
839.167135	641.300000
841.402467	637.200000
843.635276	661.900000
845.869495	643.600000
848.101193	640.400000
850.332336	635.600000
852.562924	622.500000
854.792958	606.300000
857.022438	619.800000
859.247436	605.700000
861.475808	612.900000
863.699702	622.000000
865.925007	614.900000
868.145836	597.700000
870.370037	594.900000
872.589765	601.300000
874.810903	602.500000
877.031491	616.800000
879.249570	623.500000
881.469058	620.000000
883.684080	605.400000
885.898554	613.800000
888.112481	594.900000
890.325861	604.500000
892.538693	582.000000
894.750978	583.700000
896.960762	603.100000
899.170000	595.900000
901.378693	588.000000
903.584886	620.100000
905.792489	631.700000
907.997595	610.000000
910.202157	643.700000
912.404224	650.000000
914.607700	652.700000
916.808682	661.200000
919.009122	680.400000
921.210971	681.600000
923.406429	711.700000
925.605245	761.700000
927.799624	798.100000
929.997360	877.300000
932.190660	939.900000
934.385369	1062.900000
936.577591	1117.400000
938.769276	1177.500000
940.960423	1232.900000
943.149087	1268.400000
945.337215	1271.300000
947.522861	1221.900000
949.711861	1231.400000
951.896437	1224.600000
954.080478	1223.700000
956.267869	1242.400000
958.446956	1227.300000
960.629394	1253.100000
962.811298	1234.400000
964.990727	1257.300000
967.167684	1261.500000
969.346049	1258.300000
971.525821	1288.200000
973.699244	1288.100000
975.876013	1320.200000
978.048375	1297.000000
980.222145	1262.500000
982.391511	1254.200000
984.564221	1213.400000
986.734466	1131.400000
988.904181	1020.900000
991.073368	968.000000
993.238158	899.100000
995.406290	865.800000
997.570026	835.700000
999.735170	787.900000
1001.897854	777.100000
1004.060013	793.200000
1006.219715	771.400000
1008.378892	744.800000
1010.539476	743.300000
1012.697605	723.600000
1014.855211	700.700000
1017.012293	698.100000
1019.168851	703.600000
1021.321030	663.400000
1023.474616	654.000000
1025.627680	659.400000
1027.778295	652.700000
1029.930316	629.000000
1032.077965	617.900000
1034.228945	637.500000
1036.375554	610.400000
1038.521644	610.600000
1040.667216	607.000000
1042.814193	623.700000
1044.954881	615.600000
1047.098898	609.600000
1049.240476	598.600000
1051.381536	608.700000
1053.524002	621.200000
1055.660187	586.700000
1057.799699	581.600000
1059.934855	618.000000
1062.073336	570.200000
1064.207464	598.600000
1066.341078	588.900000
1068.476096	581.300000
1070.606766	582.800000
1072.738840	595.400000
1074.868485	570.400000
1076.997617	559.000000
1079.126239	563.400000
1081.254349	554.200000
1083.380033	561.500000
1085.505207	551.300000
1087.631785	557.400000
1089.754025	564.500000
1091.877670	592.900000
1093.996980	571.400000
1096.121519	586.200000
1098.239814	547.900000
1100.359512	581.100000
1102.476793	553.500000
1104.593566	555.400000
1106.709833	549.600000
1108.823685	540.600000
1110.938940	532.600000
1113.049873	510.200000
1115.164118	548.700000
1117.274042	541.100000
1119.385370	538.500000
1121.496193	536.200000
1123.602700	528.200000
1125.712516	524.700000
1127.818019	509.400000
1129.924924	525.000000
1132.025614	530.500000
1134.131516	520.300000
1136.233109	538.800000
1138.336105	531.900000
1140.438600	551.600000
1142.534888	501.000000
1144.636383	510.400000
1146.733576	508.600000
1148.830271	499.700000
1150.926467	496.600000
1153.022165	498.300000
1155.117366	508.200000
1157.210170	495.400000
1159.304376	515.500000
1161.392391	543.300000
1163.485604	509.800000
1165.572630	497.100000
1167.662954	484.400000
1169.748990	502.700000
1171.838324	521.500000
1173.921477	516.200000
1176.006033	524.700000
1178.091990	487.000000
1180.173665	508.400000
1182.256741	506.000000
1184.337432	510.500000
1186.417632	495.900000
1188.497340	523.700000
1190.576557	498.100000
1192.653391	519.500000
1194.727845	494.700000
1196.805591	509.500000
1198.879066	488.500000
1200.953943	511.400000
1203.024552	516.800000
1205.096562	508.900000
1207.166196	501.900000
1209.237231	509.100000
1211.307779	517.000000
1213.374065	507.600000
1215.441752	514.900000
1217.507066	514.900000
1219.573781	500.600000
1221.636241	510.500000
1223.701985	490.500000
1225.763475	531.300000
1227.826366	543.900000
1229.886888	538.800000
1231.946928	547.100000
1234.006484	555.800000
1236.063676	566.000000
1238.120385	529.700000
1240.174732	575.600000
1242.232360	593.300000
1244.287624	584.400000
1246.338649	585.000000
1248.391073	571.900000
1250.443017	611.300000
1252.492603	583.700000
1254.541710	581.800000
1256.590338	586.700000
1258.638488	596.600000
1260.686160	586.400000
1262.729601	603.600000
1264.776318	616.400000
1266.820681	596.100000
1268.864568	648.400000
1270.906103	621.600000
1272.945289	620.600000
1274.987748	613.800000
1277.025984	630.200000
1279.065619	614.200000
1281.104778	591.200000
1283.139720	574.900000
1285.176060	585.600000
1287.210056	584.400000
1289.245449	598.900000
1291.276629	581.300000
1293.309208	580.400000
1295.341315	576.000000
1297.371081	575.100000
1299.402244	577.400000
1301.429200	579.600000
1303.457555	553.000000
1305.481704	606.200000
1307.509119	590.200000
1309.532331	599.400000
1311.556941	607.400000
1313.579216	597.800000
1315.602889	624.700000
1317.624229	621.900000
1319.645102	588.300000
1321.665507	592.800000
1323.681719	593.900000
1325.699328	583.400000
1327.714609	591.000000
1329.733149	574.600000
1331.747499	557.700000
1333.759524	559.800000
1335.774807	553.800000
1337.785904	570.600000
1339.798397	557.600000
1341.806708	554.600000
1343.818275	557.500000
1345.823803	581.200000
1347.832586	581.000000
1349.837191	583.200000
1351.845050	581.300000
1353.852447	595.600000
1355.853813	604.500000
1357.856575	593.200000
1359.858878	590.800000
1361.860721	566.300000
1363.862104	594.200000
1365.861173	564.900000
1367.859785	565.700000
1369.857937	581.500000
1371.855632	565.500000
1373.849164	577.500000
1375.844091	574.200000
1377.838562	571.400000
1379.832576	554.900000
1381.824283	551.700000
1383.815534	546.500000
1385.804480	556.600000
1387.794821	563.000000
1389.784708	536.000000
1391.772290	526.100000
1393.759419	549.300000
1395.744246	547.800000
1397.730468	549.000000
1399.714389	534.400000
1401.697858	542.300000
1403.680875	538.500000
1405.661594	570.000000
1407.643707	590.100000
1409.623523	582.100000
1411.602889	594.500000
1413.578116	601.500000
1415.556581	605.900000
1417.532753	601.200000
1419.508475	612.600000
1421.483749	588.500000
1423.456731	578.100000
1425.429265	584.500000
1427.401351	580.600000
1429.372990	571.700000
1431.340500	552.800000
1433.313084	581.100000
1435.277862	581.800000
1437.247713	564.700000
1439.213439	571.700000
1441.180559	584.500000
1443.145395	575.000000
1445.106111	591.700000
1447.071895	591.400000
1449.031724	610.000000
1450.992947	584.700000
1452.955561	616.000000
1454.914061	628.800000
1456.872119	619.000000
1458.829735	636.900000
1460.786908	596.700000
1462.741806	603.800000
1464.698097	604.000000
1466.652113	594.400000
1468.605688	600.300000
1470.556991	597.200000
1472.509686	609.400000
1474.460110	578.600000
1476.410095	584.500000
1478.359641	556.200000
1480.306918	548.500000
1482.251927	555.700000
1484.198329	546.300000
1486.144293	568.400000
1488.089820	519.200000
1490.033081	534.400000
1491.975906	515.600000
1493.916468	513.500000
1495.858422	537.200000
1497.798113	520.900000
1499.737369	541.500000
1501.676191	525.600000
1503.612753	526.500000
1505.550706	538.100000
1507.486400	528.500000
1509.421661	542.400000
1511.354665	505.300000
1513.287237	522.900000
1515.219377	552.200000
1517.151085	527.000000
1519.080540	557.300000
1521.011385	546.100000
1522.941798	559.700000
1524.868139	562.900000
1526.795870	596.500000
1528.721352	592.000000
1530.646404	598.300000
1532.571027	567.600000
1534.495220	595.800000
1536.417167	605.000000
1538.340504	601.800000
1540.261594	595.800000
1542.180440	611.800000
1544.100676	628.700000
1546.018668	637.800000
1547.936234	652.100000
1549.851559	661.900000
1551.768273	678.200000
1553.680932	667.600000
1555.596794	697.700000
1557.510418	732.000000
1559.421803	738.600000
1561.334578	764.800000
1563.243303	752.400000
1565.153417	794.300000
1567.063108	852.100000
1568.972376	913.000000
1570.879409	987.400000
1572.784210	1058.000000
1574.690400	1188.800000
1576.594359	1320.200000
1578.497896	1460.400000
1580.401013	1618.000000
1582.301900	1696.700000
1584.204176	1769.000000
1586.104223	1735.000000
1588.005659	1580.600000
1589.903061	1413.600000
1591.800044	1259.600000
1593.696609	1087.900000
1595.594561	936.900000
1597.486679	867.300000
1599.381991	786.800000
1601.276885	770.100000
1603.169557	727.300000
1605.061812	696.500000
1606.951848	701.900000
1608.841468	683.400000
1610.730673	669.000000
1612.619462	653.200000
1614.506035	657.100000
1616.393995	649.500000
1618.277938	652.000000
1620.163268	639.900000
1622.048185	629.000000
1623.930888	645.800000
1625.814978	609.000000
1627.695056	569.700000
1629.576522	562.900000
1631.455776	553.700000
1633.336418	526.000000
1635.211255	530.200000
1637.091073	560.500000
1638.966887	553.000000
1640.842290	557.100000
1642.719079	517.300000
1644.590071	521.800000
1646.464246	516.800000
1648.334421	534.400000
1650.207777	517.400000
1652.078930	521.900000
1653.947881	505.600000
1655.818218	519.100000
1657.684562	478.200000
1659.552291	498.800000
1661.417821	488.100000
1663.284737	489.700000
1665.147663	473.500000
1667.011976	472.700000
1668.874092	465.800000
1670.735803	467.300000
1672.598899	473.600000
1674.459801	464.100000
1676.318510	463.600000
1678.176815	442.600000
1680.036504	457.900000
1681.890427	457.100000
1683.747523	456.300000
1685.604215	448.800000
1687.456932	425.200000
1689.312820	448.500000
1691.164734	443.900000
1693.016247	447.500000
1694.867359	447.500000
1696.718070	456.100000
1698.568381	417.400000
1700.416508	420.000000
1702.266019	443.900000
1704.109780	440.500000
1705.958492	442.200000
1707.801457	431.400000
1709.647588	432.400000
1711.489758	439.200000
1713.335093	423.000000
1715.174687	428.300000
1717.015665	444.000000
1718.858026	464.400000
1720.696430	423.500000
1722.536218	457.300000
1724.373831	428.200000
1726.211049	444.100000
1728.046093	442.400000
1729.882520	438.800000
1731.716774	444.800000
1733.550635	445.900000
1735.384101	432.300000
1737.213621	424.600000
1739.046301	432.600000
1740.875035	433.500000
1742.706928	432.500000
1744.534878	424.700000
1746.362436	413.900000
1748.189603	420.700000
1750.016378	420.000000
1751.842761	391.800000
1753.665208	431.100000
1755.490810	423.900000
1757.312477	432.500000
1759.135525	438.000000
1760.956413	429.700000
1762.776912	443.300000
1764.598791	428.700000
1766.414971	416.000000
1768.234303	445.000000
1770.049708	447.400000
1771.868264	451.600000
1773.682894	455.500000
1775.497137	458.800000
1777.310994	470.200000
1779.124464	476.200000
1780.935780	444.200000
1782.748478	471.000000
1784.560790	454.300000
1786.369183	447.700000
1788.178958	440.800000
1789.984818	440.400000
1791.793823	449.300000
1793.598915	431.100000
1795.405388	427.100000
1797.211476	445.200000
1799.013655	435.900000
1800.818978	411.900000
1802.620391	410.200000
1804.423186	402.200000
1806.222074	393.300000
1808.022343	396.200000
1809.822230	388.700000
1811.619975	401.500000
1813.417340	408.300000
1815.214324	405.700000
1817.010929	415.200000
1818.805393	410.400000
1820.601238	401.800000
1822.391427	402.300000
1824.186513	428.100000
1825.975946	417.600000
1827.768517	411.600000
1829.558952	411.600000
1831.347252	411.400000
1833.138688	427.000000
1834.924479	417.100000
1836.711649	425.800000
1838.496687	424.600000
1840.284858	406.100000
1842.069145	386.400000
1843.851301	411.600000
1845.634837	410.800000
1847.416244	398.500000
1849.199029	407.900000
1850.977935	404.100000
1852.758219	409.100000
1854.536378	401.500000
1856.315914	385.900000
1858.093326	411.800000
1859.868615	393.900000
1861.645281	394.000000
1863.419825	410.900000
1865.195746	417.700000
1866.966048	407.100000
1868.739477	409.600000
1870.510786	386.600000
1872.281724	409.300000
1874.054040	399.900000
1875.820742	403.900000
1877.590569	413.600000
1879.356533	422.300000
1881.125621	420.800000
1882.890847	417.900000
1884.655705	422.900000
1886.421939	427.600000
1888.184316	409.100000
1889.946324	420.800000
1891.707966	394.400000
1893.469240	412.500000
1895.230148	423.600000
1896.990688	409.000000
1898.749120	407.200000
1900.507185	404.800000
1902.263143	406.700000
1904.020477	403.900000
1905.777446	389.900000
1907.532308	387.000000
1909.285066	387.900000
1911.037459	395.300000
1912.791229	369.100000
1914.542895	367.600000
1916.292458	371.300000
1918.043398	374.100000
1919.793974	409.300000
1921.540712	417.800000
1923.288825	386.200000
1925.034840	403.500000
1926.782229	384.600000
1928.527520	386.600000
1930.270715	391.200000
1932.015284	409.900000
1933.757757	399.800000
1935.499871	417.700000
1937.241624	409.500000
1938.983017	388.900000
1940.722317	390.500000
1942.461258	407.200000
1944.199840	420.300000
1945.936331	422.600000
1947.672463	411.250000
1949.409971	399.900000
1951.143656	433.500000
1952.878716	397.600000
1954.611687	387.400000
1956.344302	395.500000
1958.076560	392.900000
1959.808462	399.200000
1961.538279	385.700000
1963.266010	386.700000
1964.995116	374.800000
1966.723866	389.100000
1968.450533	375.700000
1970.176846	386.800000
1971.904533	379.000000
1973.626683	390.400000
1975.351934	411.200000
1977.073378	409.200000
1978.797922	416.800000
1980.520387	409.000000
1982.239048	421.000000
1983.960809	404.200000
1985.678767	404.000000
1987.398098	393.700000
1989.113630	410.900000
1990.833982	396.500000
1992.550536	394.900000
1994.263293	405.100000
1995.979146	392.100000
1997.692927	412.100000
1999.406358	406.600000
2001.117718	429.700000
2002.830450	400.800000
2004.539392	405.500000
2006.251426	409.200000
2007.957951	394.100000
2009.667569	398.100000
2011.375119	373.400000
2013.082322	397.200000
2014.787459	420.900000
2016.492250	414.000000
2018.198412	406.900000
2019.900791	415.400000
2021.604543	420.100000
2023.306232	415.200000
2025.007575	416.200000
2026.708574	403.900000
2028.407511	403.800000
2030.107820	392.000000
2031.804353	368.700000
2033.502258	400.000000
2035.198105	383.100000
2036.897037	409.900000
2038.590483	395.300000
2040.285300	368.900000
2041.979774	382.000000
2043.670481	401.700000
2045.364270	393.000000
2047.054294	398.400000
2048.745688	389.100000
2050.435028	393.900000
2052.125740	384.700000
2053.812688	388.600000
2055.499296	390.800000
2057.187275	400.900000
2058.871494	398.800000
2060.557083	423.900000
2062.242333	412.100000
2063.925535	380.400000
2065.610107	391.700000
2067.289215	408.400000
2068.973110	390.100000
2070.651543	390.800000
2072.333054	392.000000
2074.010813	376.800000
2075.688236	375.600000
2077.367028	364.400000
2079.043777	362.400000
2080.718485	341.400000
2082.394563	367.600000
2084.068599	357.600000
2085.742301	361.300000
2087.415667	379.300000
2089.086994	360.200000
2090.757987	381.700000
2092.428646	385.400000
2094.098971	364.400000
2095.768962	370.900000
2097.436917	371.100000
2099.104538	387.100000
2100.770126	366.600000
2102.437082	382.500000
2104.102005	371.100000
2105.766596	380.400000
2107.429155	371.100000
2109.093082	377.900000
2110.754978	380.100000
2112.416544	357.300000
2114.077778	361.000000
2115.736983	377.100000
2117.395859	368.600000
2119.054405	367.900000
2120.712620	375.200000
2122.367113	363.000000
2124.024670	355.900000
2125.681897	359.500000
2127.335404	336.600000
2128.990278	327.800000
2130.641433	316.400000
2132.295651	349.700000
2133.946151	322.300000
2135.598019	330.800000
2137.244478	325.500000
2138.895691	309.700000
2140.543192	328.600000
2142.192059	326.500000
2143.838907	320.600000
2145.485430	316.700000
2147.131627	325.300000
2148.774116	346.300000
2150.419662	350.900000
2152.061502	351.300000
2153.706399	364.500000
2155.347591	375.800000
2156.988459	352.700000
2158.629004	397.700000
2160.267536	373.800000
2161.907434	354.800000
2163.543632	379.200000
2165.181196	372.200000
2166.818438	380.100000
2168.453670	376.200000
2170.088580	379.100000
2171.723169	357.300000
2173.357437	381.000000
2174.988011	373.900000
2176.621637	366.000000
2178.251571	341.300000
2179.882870	368.500000
2181.512164	346.000000
2183.141139	366.200000
2184.769794	348.400000
2186.398130	348.800000
2188.024463	337.500000
2189.650478	376.000000
2191.274492	328.200000
2192.899871	332.000000
2194.523249	353.300000
2196.147992	325.800000
2197.769054	364.000000
2199.389799	359.300000
2201.011908	341.900000
2202.632020	346.500000
2204.250136	337.300000
2205.867936	344.900000
2207.485420	341.300000
2209.102590	348.000000
2210.719443	356.500000
2212.335982	355.100000
2213.950528	344.400000
2215.563081	374.600000
2217.176998	353.100000
2218.788924	344.300000
2220.402213	340.400000
2222.013512	341.800000
2223.622821	352.200000
2225.233493	343.400000
2226.842177	333.700000
2228.450549	337.900000
2230.056934	295.200000
2231.664681	331.000000
2233.270443	323.500000
2234.875893	333.000000
2236.479358	343.800000
2238.084186	334.500000
2239.687030	312.300000
2241.287891	353.400000
2242.890115	327.700000
2244.490357	354.300000
2246.091961	330.100000
2247.689912	333.200000
2249.289226	330.300000
2250.886560	345.100000
2252.483586	347.900000
2254.081973	347.100000
2255.676713	329.300000
2257.269475	340.300000
2258.863600	332.400000
2260.459086	324.200000
2262.050927	345.200000
2263.642462	346.900000
2265.235359	351.100000
2266.822946	333.900000
2268.415229	351.500000
2270.002205	349.400000
2271.592210	342.500000
2273.176910	328.400000
2274.766304	354.600000
2276.350395	340.600000
2277.935848	344.900000
2279.519332	359.800000
2281.105841	347.200000
2282.688717	328.900000
2284.271290	349.100000
2285.853559	335.600000
2287.432198	333.800000
2289.013862	348.600000
2290.591897	349.900000
2292.172955	366.400000
2293.750386	356.550000
2295.325854	346.700000
2296.904344	319.400000
2298.479210	350.100000
2300.053775	339.000000
2301.628039	342.100000
2303.202003	337.100000
2304.775667	356.300000
2306.349031	329.100000
2307.918776	336.100000
2309.488222	335.300000
2311.060686	353.100000
2312.627876	339.000000
2314.198083	309.800000
2315.764677	342.700000
2317.332629	323.400000
2318.898627	323.600000
2320.464327	340.400000
2322.029729	351.800000
2323.593178	341.100000
2325.157986	344.400000
2326.719186	343.400000
2328.283399	358.100000
2329.842352	350.600000
2331.404318	362.700000
2332.964334	340.700000
2334.524054	342.400000
2336.081826	356.300000
2337.639302	355.300000
2339.196484	338.900000
2340.751718	374.700000
2342.306659	366.600000
2343.861305	348.500000
2345.415658	360.800000
2346.969717	346.200000
2348.523483	351.900000
2350.075304	337.500000
2351.625182	366.600000
2353.178069	339.100000
2354.725712	342.500000
2356.276364	343.500000
2357.823424	349.300000
2359.371842	325.900000
2360.919969	336.600000
2362.464507	322.700000
2364.010403	326.000000
2365.554361	304.200000
2367.099675	332.000000
2368.641405	330.700000
2370.184493	305.800000
2371.725644	314.300000
2373.266506	315.300000
2374.807079	318.100000
2376.347363	319.100000
2377.887358	320.300000
2379.423774	304.700000
2380.963192	315.100000
2382.499033	291.400000
2384.036231	313.600000
2385.569853	324.400000
2387.106475	318.300000
2388.641167	320.000000
2390.173929	323.800000
2391.706404	317.200000
2393.236951	319.300000
2394.770496	303.900000
2396.298830	330.100000
2397.828520	312.500000
2399.357925	304.500000
2400.887045	326.500000
2402.415879	321.000000
2403.939509	338.400000
2405.467774	329.000000
2406.990837	331.200000
2408.518533	344.200000
2410.039390	341.800000
2411.564879	317.900000
2413.086809	335.200000
2414.610093	352.300000
2416.131457	351.100000
2417.650901	338.000000
2419.171700	350.500000
2420.690580	365.200000
2422.209179	355.600000
2423.725859	361.500000
2425.243895	356.900000
2426.761649	353.000000
2428.275851	373.500000
2429.789774	366.400000
2431.303416	400.000000
2432.818412	378.500000
2434.329861	376.600000
2435.842663	401.800000
2437.353553	412.300000
2438.864164	396.600000
2440.372863	436.600000
2441.884548	421.300000
2443.392690	395.600000
2444.900554	417.800000
2446.408139	421.800000
2447.912185	420.000000
2449.419215	425.800000
2450.924337	425.900000
2452.429182	436.800000
2453.932120	438.200000
2455.434782	428.200000
2456.937167	431.300000
2458.437647	427.100000
2459.939480	401.700000
2461.439408	425.400000
2462.939061	416.800000
2464.438439	403.200000
2465.935914	413.300000
2467.431487	384.800000
2468.930040	395.500000
2470.425065	375.400000
2471.921442	368.700000
2473.414293	378.200000
2474.908497	381.500000
2476.402427	364.800000
2477.892833	379.100000
2479.386217	339.900000
2480.877703	367.700000
2482.367292	381.600000
2483.856609	348.400000
2485.344030	360.000000
2486.834427	376.700000
2488.321306	333.500000
2489.809536	353.800000
2491.294249	349.900000
2492.778692	356.800000
2494.264487	318.100000
2495.748390	332.400000
2497.233643	329.300000
2498.713763	321.400000
2500.196856	330.000000
2501.678058	334.600000
2503.158991	332.700000
2504.638035	329.400000
2506.116810	310.700000
2507.595317	334.600000
2509.073555	311.500000
2510.551526	340.600000
2512.025991	336.200000
2513.503426	327.800000
2514.977356	321.500000
2516.452638	330.800000
2517.927652	326.100000
2519.399165	345.600000
2520.872029	325.300000
2522.343010	337.100000
2523.815341	345.600000
2525.282558	327.600000
2526.752742	340.700000
2528.221045	307.600000
2529.689083	346.900000
2531.156855	346.800000
2532.624363	312.600000
2534.091607	333.200000
2535.555358	358.700000
2537.020459	346.700000
2538.483683	337.900000
2539.948256	348.600000
2541.409341	343.500000
2542.871775	354.000000
2544.333946	342.000000
2545.792630	339.200000
2547.255887	348.500000
2548.714047	341.500000
2550.173557	337.900000
2551.627972	360.200000
2553.086958	357.500000
2554.544072	353.700000
2555.999314	344.800000
2557.454296	328.600000
2558.907408	341.800000
2560.361869	345.300000
2561.814461	315.700000
2563.266793	329.200000
2564.717257	332.000000
2566.170678	310.800000
2567.619016	305.500000
2569.070309	332.400000
2570.519737	334.900000
2571.965692	333.000000
2573.414602	341.200000
2574.860042	330.200000
2576.306829	344.600000
2577.751753	361.400000
2579.196420	348.100000
2580.642434	352.200000
2582.084982	334.100000
2583.528876	324.600000
2584.969306	323.400000
2586.411084	335.700000
2587.851002	339.200000
2589.292267	329.400000
2590.730070	348.500000
2592.170823	354.200000
2593.606514	360.100000
2595.045153	351.900000
2596.481936	360.100000
2597.916863	340.000000
2599.354737	331.700000
2600.787554	329.300000
2602.221718	319.500000
2603.654028	329.200000
2605.087684	328.800000
2606.519487	318.000000
2607.951036	305.200000
2609.382332	329.700000
2610.811777	330.700000
2612.240969	314.300000
2613.668310	335.900000
2615.096998	355.400000
2616.525433	334.000000
2617.950422	332.100000
2619.376756	374.600000
2620.801243	385.500000
2622.227075	369.000000
2623.649463	359.500000
2625.073196	368.900000
2626.495084	386.900000
2627.916721	379.700000
2629.336514	360.000000
2630.757652	384.600000
2632.178540	370.500000
2633.595989	381.100000
2635.016378	397.000000
2636.433330	390.100000
2637.850034	386.200000
2639.266489	399.400000
2640.682696	415.800000
2642.098655	446.500000
2643.512773	449.600000
2644.926643	452.600000
2646.338674	464.800000
2647.752050	473.900000
2649.161996	494.100000
2650.574878	488.800000
2651.984331	508.200000
2653.393538	540.300000
2654.800909	565.800000
2656.211214	581.200000
2657.619683	597.000000
2659.026318	612.400000
2660.432707	642.800000
2661.837262	663.900000
2663.243161	696.900000
2664.647227	755.300000
2666.051048	782.700000
2667.454625	823.800000
2668.856371	895.600000
2670.259460	927.200000
2671.659131	986.000000
2673.060146	1071.900000
2674.457745	1114.500000
2675.858273	1172.800000
2677.255387	1252.800000
2678.653844	1265.700000
2680.050474	1355.600000
2681.446861	1385.400000
2682.843006	1426.000000
2684.237325	1478.200000
2685.632987	1475.900000
2687.025240	1474.000000
2688.418835	1502.200000
2689.810606	1451.000000
2691.203720	1374.700000
2692.595010	1371.700000
2693.984477	1314.400000
2695.373704	1257.700000
2696.762692	1211.300000
2698.153021	1106.500000
2699.538367	1046.600000
2700.926636	979.300000
2702.313085	914.700000
2703.699295	847.300000
2705.085266	832.000000
2706.467839	762.200000
2707.851754	700.400000
2709.235430	661.200000
2710.618869	628.100000
2711.998912	606.400000
2713.380297	583.800000
2714.759867	548.600000
2716.140777	517.400000
2717.519873	511.400000
2718.897155	486.300000
2720.275778	482.900000
2721.652587	466.600000
2723.029161	459.900000
2724.405499	448.300000
2725.780025	427.200000
2727.155892	439.500000
2728.528373	410.300000
2729.903769	398.800000
2731.274205	384.000000
2732.645981	374.700000
2734.017524	393.300000
2735.387258	369.800000
2736.758332	369.900000
2738.127599	335.200000
2739.496632	344.600000
2740.863859	342.200000
2742.230852	347.800000
2743.597613	339.700000
2744.964141	331.500000
2746.328865	317.300000
2747.693356	326.200000
2749.057616	337.000000
2750.421643	331.100000
2751.785438	313.500000
2753.145861	313.800000
2754.509193	346.300000
2755.867583	315.000000
2757.228883	339.500000
2758.586813	330.800000
2759.947651	299.700000
2761.306689	318.500000
2762.662360	304.100000
2764.020938	301.700000
2765.376149	294.100000
2766.731131	306.000000
2768.084316	314.000000
2769.440408	324.200000
2770.793136	300.200000
2772.145636	324.800000
2773.497907	313.000000
2774.851516	310.700000
2776.201765	276.200000
2777.550219	307.700000
2778.901578	295.200000
2780.249579	290.600000
2781.598917	287.800000
2782.946463	295.400000
2784.293783	277.500000
2785.640875	281.100000
2786.986177	272.200000
2788.331253	285.700000
2789.676103	277.200000
2791.020727	281.000000
2792.361999	263.800000
2793.704608	264.400000
2795.046993	269.300000
2796.389152	296.300000
2797.727962	276.000000
2799.069672	279.900000
2800.408033	279.500000
2801.747732	265.200000
2803.085646	282.500000
2804.421774	282.500000
2805.757680	289.900000
2807.094923	273.700000
2808.430382	292.800000
2809.765617	291.400000
2811.099071	289.200000
2812.433861	271.800000
2813.765311	290.000000
2815.099656	280.700000
2816.429102	282.500000
2817.759886	290.000000
2819.090449	272.200000
2820.419232	264.600000
2821.749351	268.000000
2823.077692	265.800000
2824.405812	259.200000
2825.732154	261.500000
2827.059832	262.500000
2828.384178	260.400000
2829.709860	253.100000
2831.033766	269.200000
2832.357452	243.500000
2833.682474	255.800000
2835.004167	264.000000
2836.325641	268.600000
2837.646895	238.000000
2838.967932	256.900000
2840.287195	245.400000
2841.607794	256.200000
2842.926621	257.900000
2844.245231	254.900000
2845.562069	247.800000
2846.878690	235.200000
2848.195094	254.800000
2849.509728	242.900000
2850.825697	247.500000
2852.138347	247.000000
2853.452331	259.100000
2854.766099	256.500000
2856.079650	277.200000
2857.391435	265.000000
2858.701453	258.500000
2860.012806	240.100000
2861.320844	258.600000
2862.630216	259.700000
2863.939373	254.300000
2865.248316	245.700000
2866.555494	254.500000
2867.860910	243.900000
2869.167659	258.500000
2870.472647	265.600000
2871.777420	283.500000
2873.080433	246.500000
2874.386326	263.900000
2875.687365	278.500000
2876.989737	252.000000
2878.290351	254.500000
2879.592297	272.400000
2880.894031	246.400000
2882.192461	254.500000
2883.492224	242.800000
2884.790230	262.700000
2886.088024	227.300000
2887.384062	246.700000
2888.681432	249.300000
2889.977048	267.500000
2891.272452	250.000000
2892.567645	258.500000
2893.859541	255.700000
2895.154312	252.500000
2896.445788	247.200000
2897.738596	250.300000
2899.031194	279.300000
2900.320497	269.300000
2901.611134	242.400000
2902.900019	224.600000
2904.190236	255.200000
2905.477162	238.600000
2906.765420	254.400000
2908.051929	241.400000
2909.338229	251.800000
2910.624321	250.900000
2911.908665	246.800000
2913.195881	245.800000
2914.478270	214.800000
2915.761991	231.200000
2917.043965	224.000000
2918.325733	237.100000
2919.605755	246.100000
2920.888648	221.500000
2922.169794	222.600000
2923.447659	220.800000
2924.728393	222.500000
2926.005847	231.900000
2927.283094	232.200000
2928.558599	222.400000
2929.836972	221.900000
2931.110531	231.000000
2932.386957	246.900000
2933.661642	228.100000
2934.934586	227.600000
2936.208862	235.900000
2937.481398	236.600000
2938.753729	234.800000
2940.022788	234.000000
2941.294712	241.100000
2942.564898	242.100000
2943.834880	224.500000
2945.104659	238.800000
2946.372702	229.400000
2947.639008	209.100000
2948.905112	216.800000
2950.172547	235.100000
2951.438246	231.800000
2952.703744	228.200000
2953.969039	217.600000
2955.231069	234.600000
2956.494429	236.600000
2957.757588	205.000000
2959.019015	216.500000
2960.281771	213.100000
2961.542795	244.500000
2962.802089	238.400000
2964.061182	235.100000
2965.320076	252.900000
2966.578769	220.300000
2967.837261	213.900000
2969.094025	220.400000
2970.350590	229.700000
2971.605426	199.800000
2972.861592	218.500000
2974.114503	220.800000
2975.368742	222.200000
2976.622783	223.100000
2977.875098	221.700000
2979.127215	238.000000
2980.377607	237.000000
2981.630854	249.600000
2982.879324	236.800000
2984.130649	222.500000
2985.378724	216.800000
2986.626602	233.200000
2987.874284	235.700000
2989.121768	227.200000
2990.367531	230.500000
2991.613098	222.100000
2992.859992	238.200000
2994.103642	252.800000
2995.348619	253.600000
2996.590354	241.200000
2997.834940	244.200000
2999.077807	246.200000
3000.317433	242.900000
3001.559909	234.200000
3002.799145	234.200000
3004.039709	218.300000
3005.278556	229.900000
3006.517209	203.700000
3007.754146	221.500000
3008.992411	231.400000
3010.228960	209.600000
3011.465316	223.400000
3012.701478	224.400000
3013.935926	238.900000
3015.170181	238.200000
3016.404244	228.700000
3017.636593	246.300000
3018.867231	230.500000
3020.100715	221.400000
3021.332488	216.000000
3022.562549	236.100000
3023.792419	223.500000
3025.020579	252.200000
3026.250066	235.100000
3027.477843	214.500000
3028.705429	229.300000
3029.934341	216.200000
3031.158511	228.100000
3032.385524	210.100000
3033.609314	211.200000
3034.834429	222.000000
3036.057839	213.000000
3037.281058	213.100000
3038.502572	219.000000
3039.726927	195.000000
3040.946547	217.800000
3042.167493	228.000000
3043.388249	213.000000
3044.607303	236.600000
3045.827681	189.000000
3047.044843	202.500000
3048.263330	201.000000
3049.480116	230.400000
3050.696713	212.200000
3051.913123	206.000000
3053.126319	202.300000
3054.342353	211.400000
3055.555175	196.600000
3056.770834	212.100000
3057.981771	203.500000
3059.194032	226.400000
3060.406106	196.300000
3061.617994	212.300000
3062.828185	194.000000
3064.038189	201.300000
3065.248007	206.700000
3066.456129	203.400000
3067.664066	208.600000
3068.870307	203.200000
3070.077873	209.700000
3071.283744	208.200000
3072.489430	206.700000
3073.694932	196.100000
3074.898740	199.100000
3076.103872	200.400000
3077.307311	212.000000
3078.509059	206.400000
3079.710622	174.000000
3080.912002	203.600000
3082.113198	195.500000
3083.312704	194.200000
3084.512027	194.400000
3085.712673	191.400000
3086.911629	199.300000
3088.107391	188.000000
3089.305981	192.100000
3090.501378	184.600000
3091.698099	188.100000
3092.891627	188.800000
3094.087983	179.800000
3095.282652	203.300000
3096.474131	187.600000
3097.669942	194.800000
3098.861058	184.000000
3100.053498	182.400000
3101.242749	197.200000
3102.434827	187.900000
3103.625221	185.400000
3104.812429	188.100000
3106.000959	197.700000
3107.190812	202.400000
3108.377480	201.200000
3109.563969	210.600000
3110.750279	182.100000
3111.937910	209.700000
3113.122359	194.000000
3114.305129	184.600000
3115.490721	201.000000
3116.674634	197.300000
3117.856867	208.200000
3119.038923	203.300000
3120.220800	208.500000
3121.402499	214.600000
3122.582521	191.100000
3123.760866	180.600000
3124.942031	190.200000
3126.120021	195.400000
3127.297834	187.100000
3128.475470	204.500000
3129.651431	188.900000
3130.827216	191.300000
3132.004321	186.900000
3133.179753	182.000000
3134.353511	198.200000
3135.525596	183.100000
3136.699003	188.400000
3137.872233	200.500000
3139.043792	204.300000
3140.216671	193.500000
3141.386383	181.000000
3142.557416	168.500000
3143.726778	204.700000
3144.894471	188.700000
3146.064979	185.500000
3147.230829	177.400000
3148.400987	188.100000
3149.566488	186.700000
3150.731816	206.700000
3151.896970	196.300000
3153.061951	190.600000
3154.228251	182.500000
3155.389898	177.200000
3156.552866	187.200000
3157.715661	173.500000
3158.878283	174.500000
3160.039239	189.600000
3161.200024	177.800000
3162.360636	152.100000
3163.519584	185.300000
3164.678361	184.100000
3165.836965	175.500000
3166.995398	177.000000
3168.153660	178.600000
3169.310259	174.700000
3170.465197	185.500000
3171.621454	169.500000
3172.776050	177.700000
3173.930476	158.700000
3175.083242	178.400000
3176.235837	180.000000
3177.388263	172.600000
3178.540518	173.200000
3179.692604	184.800000
3180.841543	193.800000
3181.993289	189.600000
3183.143378	197.700000
3184.291810	172.500000
3185.440072	155.100000
3186.588166	160.700000
3187.736091	172.900000
3188.882360	184.500000
3190.028461	163.000000
3191.172908	174.400000
3192.317187	174.800000
3193.461297	172.900000
3194.606726	167.100000
3195.749016	177.500000
3196.891139	158.000000
3198.033094	178.600000
3199.174882	181.300000
3200.316503	156.900000
3201.454989	178.800000
3202.594792	162.500000
3203.735912	159.100000
3204.873899	177.000000
3206.010235	175.900000
3207.146407	157.000000
3208.283895	178.800000
3209.419735	158.700000
3210.556892	162.800000
3211.689436	152.800000
3212.826261	171.900000
3213.958476	156.000000
3215.092007	163.600000
3216.225373	159.900000
3217.355613	143.800000
3218.488650	172.500000
3219.618561	166.000000
3220.749788	177.900000
3221.877891	165.800000
3223.008790	178.100000
3224.138045	161.100000
3225.265657	164.300000
3226.390146	185.300000
3227.518911	170.200000
3228.644554	185.900000
3229.770034	179.000000
3230.893873	175.300000
3232.020507	199.300000
3233.142543	200.300000
3234.265895	205.600000
3235.389085	212.100000
3236.512112	205.000000
3237.633501	207.100000
3238.754727	190.600000
3239.874315	205.300000
3240.993742	198.000000
3242.111532	204.300000
3243.232113	205.500000
3244.349581	202.600000
3245.466888	198.900000
3246.584035	189.000000
3247.699545	188.100000
3248.816371	199.500000
3249.930087	177.100000
3251.046592	176.900000
3252.161462	183.100000
3253.273224	178.500000
3254.384827	173.300000
3255.497745	160.600000
3256.610503	175.400000
3257.720155	157.000000
3258.831122	172.700000
3259.941930	164.500000
3261.051106	180.300000
3262.158651	177.200000
3263.267511	164.900000
3264.376212	173.600000
3265.481811	162.900000
3266.588725	147.600000
3267.694009	157.400000
3268.800607	174.100000
3269.904105	162.600000
3271.008917	156.000000
3272.113572	175.700000
3273.215129	192.500000
3274.316529	170.900000
3275.419243	149.900000
3276.521801	142.800000
3277.621262	173.300000
3278.723507	150.800000
3279.822656	144.400000
3280.920180	140.500000
3282.017550	160.400000
3283.117701	151.300000
3284.214760	173.600000
3285.311663	147.700000
3286.408411	154.400000
3287.500600	144.800000
3288.597039	157.800000
3289.691855	158.900000
3290.786517	134.600000
3291.879556	158.600000
3292.972442	149.900000
3294.063707	152.200000
3295.156285	125.100000
3296.247243	121.800000
3297.336581	152.000000
3298.425766	136.300000
3299.516263	138.300000
3300.603677	148.300000
3301.690937	154.100000
3302.779510	165.900000
3303.867930	170.100000
3304.951804	154.400000
3306.039919	159.700000
3307.124952	149.500000
3308.208370	142.600000
3309.293100	150.500000
3310.376214	148.800000
3311.460641	157.600000
3312.541989	138.000000
3313.624649	133.700000
3314.705694	148.100000
3315.786589	148.400000
3316.865871	135.700000
3317.945002	157.000000
3319.025445	151.200000
3320.102813	167.500000
3321.181493	156.500000
3322.258561	150.400000
3323.335479	138.400000
3324.410787	157.900000
3325.485945	139.700000
3326.562414	164.200000
3327.635813	144.500000
3328.709062	136.500000
3329.783623	145.900000
3330.856575	143.400000
3331.927918	157.500000
3333.000572	150.800000
3334.070159	137.000000
3335.141058	144.000000
3336.210349	135.400000
3337.280950	146.300000
3338.349946	166.600000
3339.417335	148.800000
3340.483119	137.900000
3341.553129	163.500000
3342.620076	144.900000
3343.683961	147.800000
3344.750613	146.200000
3345.815662	140.800000
3346.879107	146.200000
3347.942406	155.000000
3349.005558	137.600000
3350.068564	139.000000
3351.131424	145.700000
3352.192681	143.800000
3353.250882	146.200000
3354.313304	130.300000
3355.372670	148.700000
3356.431890	146.700000
3357.492419	128.100000
3358.548440	146.700000
3359.607224	131.900000
3360.661501	137.300000
3361.718542	148.700000
3362.773984	135.000000
3363.830736	139.900000
3364.885889	141.700000
3365.939445	135.000000
3366.991404	129.700000
3368.046126	135.600000
3369.097798	129.900000
3370.149327	141.100000
3371.202164	149.400000
3372.251954	127.900000
3373.303053	125.400000
3374.351105	134.200000
3375.401918	153.000000
3376.449685	134.900000
3377.497310	146.600000
3378.544793	132.800000
3379.590683	134.700000
3380.637881	141.500000
3381.682037	128.200000
3382.728951	145.700000
3383.774273	139.000000
3384.816554	121.500000
3385.858694	129.700000
3386.902143	131.900000
3387.945450	125.400000
3388.987167	145.100000
3390.028744	128.200000
3391.070179	137.400000
3392.110026	146.900000
3393.148284	134.900000
3394.187850	119.400000
3395.227276	124.700000
3396.265114	128.100000
3397.301365	107.100000
3398.337477	134.300000
3399.374895	148.000000
3400.409281	140.600000
3401.444975	132.900000
3402.480529	136.800000
3403.513052	126.200000
3404.548327	134.800000
3405.580573	120.300000
3406.612680	117.900000
3407.643203	118.000000
3408.675033	139.600000
3409.706725	123.800000
3410.735389	145.300000
3411.763916	149.700000
3412.793749	147.900000
3413.823445	127.100000
3414.850115	144.000000
3415.878091	128.400000
3416.903044	140.000000
3417.930746	144.700000
3418.955424	154.600000
3419.981409	138.600000
3421.005815	140.800000
3422.030084	126.400000
3423.052774	164.100000
3424.075328	139.100000
3425.099188	138.400000
3426.120028	142.700000
3427.140732	142.500000
3428.162742	127.800000
3429.181734	138.300000
3430.200591	126.500000
3431.220754	143.700000
3432.237900	136.400000
