-117.018713	-15.700000
-114.349113	-2.800000
-111.682448	-3.700000
-109.016535	-2.650000
-106.353555	9.350000
-103.689144	-8.200000
-101.027664	-4.050000
-98.364755	13.650000
-95.706952	2.050000
-93.047720	-1.600000
-90.389236	-2.150000
-87.733677	4.400000
-85.076688	-12.350000
-82.424798	1.150000
-79.771478	1.250000
-77.121077	-3.000000
-74.469248	-0.800000
-71.822509	7.650000
-69.174340	7.550000
-66.526914	-4.600000
-63.882403	-5.300000
-61.236462	11.150000
-58.595603	5.100000
-55.953315	-1.800000
-53.313936	3.050000
-50.673128	20.650000
-48.033059	6.150000
-45.398064	5.000000
-42.761639	-9.700000
-40.128117	-0.600000
-37.493167	2.150000
-34.863283	1.250000
-32.229805	11.000000
-29.601390	12.350000
-26.973709	4.250000
-24.344599	17.500000
-21.720547	-2.750000
-19.092904	21.150000
-16.470316	9.150000
-13.848458	24.600000
-11.227331	53.050000
-8.606935	139.600000
-5.989426	452.050000
-3.370489	1407.900000
-0.754438	4233.500000
1.860886	5875.900000
4.475481	3002.700000
7.087195	301.950000
9.700337	62.950000
12.308445	25.250000
14.920134	25.650000
17.526793	28.550000
20.134881	3.950000
22.742243	20.450000
25.344581	-3.700000
27.950498	16.100000
30.551392	13.500000
33.153714	8.600000
35.751018	-4.400000
38.351899	4.800000
40.947764	6.550000
43.545057	-0.450000
46.141632	6.600000
48.733197	16.350000
51.326190	3.250000
53.916322	7.250000
56.507881	2.000000
59.096582	20.650000
61.686709	-5.400000
64.271837	-0.350000
66.858393	7.050000
69.444235	5.750000
72.027222	-14.500000
74.611637	1.000000
77.188923	-5.100000
79.769775	1.600000
82.347778	19.450000
84.925070	11.850000
87.503790	16.550000
90.077527	1.800000
92.652691	-10.500000
95.225012	3.000000
97.796626	-4.150000
100.365399	-10.750000
102.935599	3.600000
105.502960	2.500000
108.071748	-6.800000
110.637699	10.550000
113.200815	5.850000
115.767487	3.700000
118.324937	20.450000
120.888073	27.750000
123.446250	44.800000
126.007981	53.350000
128.564755	76.050000
131.122955	114.550000
133.676203	164.050000
136.228753	228.500000
138.784853	322.550000
141.336005	425.550000
143.886460	528.650000
146.436217	610.850000
148.983155	671.450000
151.529398	713.850000
154.077066	732.150000
156.624038	731.750000
159.166075	719.200000
161.707418	707.350000
164.248068	705.750000
166.790144	707.650000
169.329408	706.850000
171.865863	729.900000
174.401628	702.500000
176.938818	686.100000
179.475317	679.600000
182.009010	696.900000
184.539899	670.200000
187.070100	682.550000
189.601727	671.200000
192.130552	672.450000
194.656578	663.300000
197.181918	682.600000
199.708683	657.050000
202.232652	646.100000
204.755936	659.400000
207.278534	659.500000
209.798340	669.700000
212.317463	669.800000
214.835903	656.950000
217.355768	668.100000
219.868630	681.800000
222.385024	697.850000
224.900737	709.800000
227.411559	735.350000
229.923806	746.850000
232.433270	745.250000
234.942056	744.300000
237.450164	756.600000
239.959696	745.700000
242.464347	755.750000
244.968322	739.400000
247.473721	746.550000
249.974245	740.250000
252.478292	742.300000
254.975369	738.500000
257.475969	733.900000
259.973797	710.600000
262.470952	740.450000
264.967434	741.400000
267.459053	738.700000
269.954192	735.250000
272.446564	751.000000
274.938266	764.700000
277.427205	757.700000
279.917567	748.800000
282.405168	780.350000
284.890009	783.800000
287.378365	760.250000
289.859781	771.350000
292.344711	790.850000
294.824796	822.850000
297.308393	825.850000
299.787147	867.200000
302.267324	883.450000
304.744750	900.700000
307.221512	889.900000
309.697610	843.050000
312.170960	801.350000
314.643649	819.300000
317.115676	796.150000
319.587041	789.400000
322.055663	816.600000
324.523625	785.800000
326.993010	738.600000
329.457572	725.800000
331.925638	708.950000
334.388883	707.600000
336.851472	694.050000
339.313404	676.800000
341.774679	676.250000
344.233219	663.600000
346.693183	628.450000
349.150413	650.300000
351.606989	638.300000
354.062911	625.150000
356.516103	633.500000
358.970718	607.050000
361.420531	612.000000
363.873840	604.200000
366.322350	601.150000
368.770210	586.100000
371.219492	568.100000
373.663979	564.350000
376.109890	572.200000
378.555150	546.550000
380.997692	573.600000
383.439586	544.400000
385.880832	558.150000
388.319364	525.400000
390.759316	550.750000
393.196555	537.850000
395.631083	546.650000
398.069097	515.450000
400.502336	532.650000
402.936995	527.650000
405.366882	538.800000
407.800254	512.200000
410.228856	524.200000
412.656816	506.850000
415.086198	497.850000
417.510814	503.300000
419.936852	504.400000
422.362249	474.000000
424.787006	496.000000
427.207004	492.700000
429.628424	472.100000
432.047148	490.050000
434.467292	484.550000
436.884741	471.200000
439.303610	465.100000
441.719785	437.100000
444.131214	444.550000
446.546119	411.200000
448.958335	413.050000
451.369916	389.700000
453.780863	378.700000
456.189123	367.300000
458.596752	367.150000
461.003748	390.250000
463.410113	367.250000
465.813795	368.150000
468.216847	372.650000
470.619269	364.900000
473.021061	371.450000
475.420175	357.750000
477.820709	393.900000
480.220614	371.300000
482.615797	394.300000
485.014446	410.850000
487.408374	418.450000
489.801677	437.900000
492.194355	487.750000
494.586407	518.850000
496.979877	585.350000
499.368635	660.400000
501.754727	839.050000
504.142239	1077.850000
506.529128	1439.500000
508.913352	2048.650000
511.298996	2960.350000
513.681978	4179.550000
516.062299	5393.650000
518.444039	6244.600000
520.823120	6086.600000
523.203619	5422.250000
525.581462	4459.100000
527.956648	3701.400000
530.331218	3063.500000
532.707205	2628.450000
535.080540	2263.250000
537.455292	1995.150000
539.825358	1790.950000
542.194810	1611.700000
544.565679	1496.000000
546.931867	1356.600000
549.299474	1283.850000
551.664435	1192.350000
554.028784	1143.400000
556.392519	1078.100000
558.757672	1030.600000
561.118153	987.700000
563.480052	990.500000
565.839310	936.850000
568.195930	920.300000
570.555996	881.850000
572.909370	844.550000
575.266189	831.300000
577.620373	799.800000
579.973948	758.300000
582.326916	757.050000
584.677251	727.550000
587.029004	699.950000
589.374080	660.050000
591.724619	657.800000
594.068486	643.650000
596.417814	645.350000
598.762493	632.750000
601.104548	605.650000
603.448020	597.450000
605.788869	617.700000
608.129115	626.750000
610.466741	657.050000
612.807802	672.500000
615.144226	695.300000
617.482066	715.850000
619.817289	697.100000
622.149895	668.750000
624.483919	643.800000
626.815328	594.100000
629.146139	607.850000
631.476352	579.350000
633.805968	574.450000
636.130960	560.550000
638.461394	568.850000
640.787207	567.600000
643.110412	580.650000
645.435034	537.200000
647.757050	546.800000
650.078472	534.350000
652.397291	529.100000
654.717527	537.500000
657.037169	528.450000
659.354210	519.400000
661.670659	534.000000
663.984510	522.100000
666.299777	533.750000
668.612447	547.100000
670.926532	539.900000
673.236017	535.950000
675.546918	553.150000
677.855226	536.300000
680.162946	515.000000
682.472080	513.550000
684.776622	511.950000
687.080578	490.200000
689.383948	483.500000
691.688732	471.850000
693.988929	453.300000
696.290542	459.650000
698.591569	456.700000
700.888015	450.400000
703.185876	437.600000
705.483153	432.400000
707.779847	434.400000
710.071965	412.500000
712.367494	418.200000
714.658449	418.850000
716.950819	420.250000
719.240614	398.900000
721.529828	421.600000
723.818463	410.100000
726.104525	417.350000
728.392002	412.000000
730.676907	407.350000
732.961235	401.500000
735.242994	414.750000
737.526167	400.900000
739.808763	380.850000
742.086803	391.600000
744.366257	406.900000
746.645136	394.350000
748.923440	407.450000
751.197193	393.500000
753.472361	385.950000
755.746955	381.100000
758.018990	396.600000
760.292438	407.700000
762.563328	375.700000
764.831662	383.150000
767.101409	376.650000
769.368601	388.400000
771.635224	403.650000
773.901276	390.850000
776.164777	399.150000
778.429691	394.900000
780.694035	401.050000
782.953850	386.650000
785.215077	390.250000
787.475737	394.950000
789.733851	408.950000
791.989420	406.950000
794.248379	420.100000
796.500840	397.600000
798.758668	413.950000
801.011977	401.200000
803.262746	426.000000
805.514927	426.450000
807.764569	404.600000
810.015623	413.850000
812.262167	417.600000
814.510122	395.250000
816.755543	399.450000
819.002375	377.600000
821.248646	390.000000
823.490412	395.300000
825.735562	381.550000
827.974239	368.650000
830.216298	394.900000
832.453859	376.800000
834.692832	384.950000
836.929278	377.100000
839.167135	394.900000
841.402467	384.400000
843.635276	387.950000
845.869495	378.350000
848.101193	376.500000
850.332336	388.800000
852.562924	361.200000
854.792958	361.200000
857.022438	379.100000
859.247436	358.450000
861.475808	372.050000
863.699702	371.450000
865.925007	364.500000
868.145836	354.200000
870.370037	353.050000
872.589765	358.050000
874.810903	372.350000
877.031491	364.950000
879.249570	386.800000
881.469058	360.850000
883.684080	369.100000
885.898554	350.500000
888.112481	345.400000
890.325861	355.750000
892.538693	344.450000
894.750978	355.150000
896.960762	364.400000
899.170000	359.950000
901.378693	366.950000
903.584886	362.000000
905.792489	361.400000
907.997595	361.550000
910.202157	384.850000
912.404224	374.550000
914.607700	382.550000
916.808682	396.750000
919.009122	408.900000
921.210971	433.150000
923.406429	445.150000
925.605245	466.300000
927.799624	529.650000
929.997360	589.500000
932.190660	640.150000
934.385369	702.600000
936.577591	743.650000
938.769276	844.150000
940.960423	859.350000
943.149087	883.550000
945.337215	876.850000
947.522861	860.300000
949.711861	880.300000
951.896437	849.600000
954.080478	854.450000
956.267869	863.000000
958.446956	875.850000
960.629394	867.950000
962.811298	893.900000
964.990727	894.500000
967.167684	897.350000
969.346049	904.900000
971.525821	910.100000
973.699244	909.300000
975.876013	903.200000
978.048375	900.950000
980.222145	894.050000
982.391511	847.550000
984.564221	811.950000
986.734466	743.700000
988.904181	706.050000
991.073368	624.800000
993.238158	567.800000
995.406290	545.050000
997.570026	510.150000
999.735170	476.950000
1001.897854	477.150000
1004.060013	445.500000
1006.219715	444.450000
1008.378892	432.000000
1010.539476	422.400000
1012.697605	413.450000
1014.855211	389.000000
1017.012293	400.000000
1019.168851	381.800000
1021.321030	366.250000
1023.474616	348.600000
1025.627680	353.350000
1027.778295	349.950000
1029.930316	325.050000
1032.077965	334.500000
1034.228945	326.050000
1036.375554	331.100000
1038.521644	329.650000
1040.667216	314.300000
1042.814193	307.900000
1044.954881	324.450000
1047.098898	295.150000
1049.240476	309.200000
1051.381536	302.750000
1053.524002	310.000000
1055.660187	291.650000
1057.799699	310.600000
1059.934855	311.000000
1062.073336	303.200000
1064.207464	305.000000
1066.341078	299.250000
1068.476096	303.550000
1070.606766	294.500000
1072.738840	308.150000
1074.868485	297.800000
1076.997617	290.350000
1079.126239	319.650000
1081.254349	294.100000
1083.380033	300.550000
1085.505207	292.250000
1087.631785	310.450000
1089.754025	301.700000
1091.877670	305.100000
1093.996980	291.850000
1096.121519	310.000000
1098.239814	278.700000
1100.359512	282.550000
1102.476793	290.550000
1104.593566	282.250000
1106.709833	299.100000
1108.823685	304.550000
1110.938940	288.000000
1113.049873	293.250000
1115.164118	279.050000
1117.274042	300.800000
1119.385370	281.800000
1121.496193	279.950000
1123.602700	279.450000
1125.712516	268.600000
1127.818019	270.900000
1129.924924	284.600000
1132.025614	271.900000
1134.131516	272.350000
1136.233109	254.650000
1138.336105	274.650000
1140.438600	266.700000
1142.534888	260.500000
1144.636383	265.400000
1146.733576	285.100000
1148.830271	246.350000
1150.926467	278.650000
1153.022165	267.850000
1155.117366	271.000000
1157.210170	259.750000
1159.304376	269.550000
1161.392391	253.800000
1163.485604	251.300000
1165.572630	266.450000
1167.662954	271.500000
1169.748990	251.950000
1171.838324	267.300000
1173.921477	265.950000
1176.006033	279.850000
1178.091990	268.400000
1180.173665	277.350000
1182.256741	279.650000
1184.337432	287.950000
1186.417632	258.050000
1188.497340	261.750000
1190.576557	265.650000
1192.653391	261.300000
1194.727845	262.850000
1196.805591	276.850000
1198.879066	253.050000
1200.953943	268.850000
1203.024552	254.300000
1205.096562	245.000000
1207.166196	258.700000
1209.237231	266.550000
1211.307779	261.200000
1213.374065	254.200000
1215.441752	255.150000
1217.507066	250.550000
1219.573781	249.250000
1221.636241	262.200000
1223.701985	245.300000
1225.763475	264.800000
1227.826366	254.500000
1229.886888	263.650000
1231.946928	253.800000
1234.006484	274.000000
1236.063676	253.400000
1238.120385	272.750000
1240.174732	274.300000
1242.232360	269.100000
1244.287624	273.750000
1246.338649	268.500000
1248.391073	256.750000
1250.443017	266.350000
1252.492603	280.950000
1254.541710	284.450000
1256.590338	268.600000
1258.638488	266.000000
1260.686160	262.100000
1262.729601	268.350000
1264.776318	273.250000
1266.820681	285.050000
1268.864568	264.250000
1270.906103	282.350000
1272.945289	272.300000
1274.987748	279.750000
1277.025984	280.500000
1279.065619	269.500000
1281.104778	257.050000
1283.139720	278.650000
1285.176060	253.900000
1287.210056	271.000000
1289.245449	264.500000
1291.276629	287.300000
1293.309208	269.650000
1295.341315	265.900000
1297.371081	264.950000
1299.402244	283.700000
1301.429200	261.350000
1303.457555	273.250000
1305.481704	250.450000
1307.509119	267.750000
1309.532331	261.150000
1311.556941	264.450000
1313.579216	264.800000
1315.602889	256.600000
1317.624229	263.550000
1319.645102	270.600000
1321.665507	259.350000
1323.681719	272.300000
1325.699328	267.100000
1327.714609	285.750000
1329.733149	288.400000
1331.747499	295.350000
1333.759524	301.450000
1335.774807	305.800000
1337.785904	307.450000
1339.798397	306.500000
1341.806708	309.350000
1343.818275	320.650000
1345.823803	298.350000
1347.832586	322.500000
1349.837191	324.150000
1351.845050	304.600000
1353.852447	307.100000
1355.853813	295.600000
1357.856575	306.350000
1359.858878	293.350000
1361.860721	278.800000
1363.862104	298.600000
1365.861173	268.050000
1367.859785	248.950000
1369.857937	265.800000
1371.855632	280.900000
1373.849164	270.200000
1375.844091	276.450000
1377.838562	248.000000
1379.832576	253.400000
1381.824283	251.400000
1383.815534	254.850000
1385.804480	252.350000
1387.794821	248.800000
1389.784708	252.950000
1391.772290	255.350000
1393.759419	241.200000
1395.744246	250.150000
1397.730468	250.700000
1399.714389	239.650000
1401.697858	236.050000
1403.680875	244.150000
1405.661594	245.000000
1407.643707	248.450000
1409.623523	242.700000
1411.602889	239.950000
1413.578116	239.200000
1415.556581	250.050000
1417.532753	238.350000
1419.508475	246.350000
1421.483749	236.900000
1423.456731	228.600000
1425.429265	238.750000
1427.401351	237.150000
1429.372990	225.950000
1431.340500	235.300000
1433.313084	243.700000
1435.277862	240.100000
1437.247713	223.300000
1439.213439	241.900000
1441.180559	238.550000
1443.145395	244.150000
1445.106111	232.800000
1447.071895	250.350000
1449.031724	250.350000
1450.992947	259.300000
1452.955561	248.050000
1454.914061	258.350000
1456.872119	241.350000
1458.829735	242.250000
1460.786908	244.700000
1462.741806	243.750000
1464.698097	235.350000
1466.652113	229.050000
1468.605688	242.500000
1470.556991	245.250000
1472.509686	238.350000
1474.460110	217.950000
1476.410095	228.650000
1478.359641	224.350000
1480.306918	215.300000
1482.251927	227.600000
1484.198329	228.250000
1486.144293	225.250000
1488.089820	228.500000
1490.033081	220.400000
1491.975906	217.100000
1493.916468	207.600000
1495.858422	225.400000
1497.798113	237.200000
1499.737369	220.350000
1501.676191	223.200000
1503.612753	222.350000
1505.550706	213.900000
1507.486400	245.200000
1509.421661	224.550000
1511.354665	239.350000
1513.287237	240.700000
1515.219377	247.700000
1517.151085	249.550000
1519.080540	219.200000
1521.011385	242.500000
1522.941798	247.050000
1524.868139	252.650000
1526.795870	244.100000
1528.721352	243.950000
1530.646404	248.900000
1532.571027	255.850000
1534.495220	273.750000
1536.417167	251.600000
1538.340504	247.200000
1540.261594	268.700000
1542.180440	254.950000
1544.100676	284.900000
1546.018668	273.950000
1547.936234	274.250000
1549.851559	310.300000
1551.768273	297.800000
1553.680932	306.650000
1555.596794	319.500000
1557.510418	312.350000
1559.421803	329.300000
1561.334578	322.400000
1563.243303	347.900000
1565.153417	395.700000
1567.063108	412.950000
1568.972376	449.100000
1570.879409	496.500000
1572.784210	536.050000
1574.690400	588.450000
1576.594359	646.400000
1578.497896	697.400000
1580.401013	764.450000
1582.301900	832.950000
1584.204176	831.050000
1586.104223	819.400000
1588.005659	775.850000
1589.903061	697.100000
1591.800044	642.800000
1593.696609	563.050000
1595.594561	496.300000
1597.486679	467.100000
1599.381991	402.750000
1601.276885	371.650000
1603.169557	359.000000
1605.061812	337.650000
1606.951848	331.400000
1608.841468	328.150000
1610.730673	299.600000
1612.619462	312.300000
1614.506035	289.800000
1616.393995	280.150000
1618.277938	279.100000
1620.163268	272.650000
1622.048185	260.500000
1623.930888	269.750000
1625.814978	254.450000
1627.695056	249.350000
1629.576522	231.900000
1631.455776	256.150000
1633.336418	232.300000
1635.211255	221.500000
1637.091073	209.700000
1638.966887	214.100000
1640.842290	195.600000
1642.719079	211.450000
1644.590071	206.200000
1646.464246	194.800000
1648.334421	223.150000
1650.207777	193.350000
1652.078930	210.450000
1653.947881	206.900000
1655.818218	190.950000
1657.684562	205.950000
1659.552291	192.500000
1661.417821	188.450000
1663.284737	199.350000
1665.147663	199.850000
1667.011976	201.400000
1668.874092	189.050000
1670.735803	154.550000
1672.598899	178.600000
1674.459801	181.350000
1676.318510	181.500000
1678.176815	172.350000
1680.036504	172.000000
1681.890427	174.300000
1683.747523	170.050000
1685.604215	165.800000
1687.456932	168.700000
1689.312820	156.500000
1691.164734	169.650000
1693.016247	155.050000
1694.867359	162.750000
1696.718070	163.300000
1698.568381	165.100000
1700.416508	155.900000
1702.266019	168.100000
1704.109780	163.800000
1705.958492	157.150000
1707.801457	169.150000
1709.647588	161.800000
1711.489758	164.400000
1713.335093	170.300000
1715.174687	168.600000
1717.015665	169.550000
1718.858026	154.650000
1720.696430	165.850000
1722.536218	157.100000
1724.373831	158.900000
1726.211049	174.700000
1728.046093	168.900000
1729.882520	159.950000
1731.716774	154.550000
1733.550635	175.350000
1735.384101	172.350000
1737.213621	165.350000
1739.046301	172.450000
1740.875035	160.950000
1742.706928	158.800000
1744.534878	165.800000
1746.362436	157.650000
1748.189603	158.850000
1750.016378	157.000000
1751.842761	150.950000
1753.665208	169.850000
1755.490810	170.300000
1757.312477	161.050000
1759.135525	166.550000
1760.956413	155.950000
1762.776912	160.850000
1764.598791	164.850000
1766.414971	149.950000
1768.234303	163.300000
1770.049708	143.150000
1771.868264	163.250000
1773.682894	144.150000
1775.497137	146.800000
1777.310994	160.800000
1779.124464	152.600000
1780.935780	150.600000
1782.748478	170.450000
1784.560790	158.850000
1786.369183	150.500000
1788.178958	161.150000
1789.984818	155.900000
1791.793823	148.800000
1793.598915	166.000000
1795.405388	140.500000
1797.211476	156.800000
1799.013655	148.400000
1800.818978	152.350000
1802.620391	150.000000
1804.423186	145.900000
1806.222074	163.500000
1808.022343	166.150000
1809.822230	158.600000
1811.619975	165.600000
1813.417340	161.550000
1815.214324	148.550000
1817.010929	152.350000
1818.805393	163.450000
1820.601238	146.900000
1822.391427	166.950000
1824.186513	139.050000
1825.975946	164.300000
1827.768517	152.200000
1829.558952	160.150000
1831.347252	162.400000
1833.138688	151.450000
1834.924479	145.700000
1836.711649	162.500000
1838.496687	153.300000
1840.284858	167.950000
1842.069145	137.100000
1843.851301	157.800000
1845.634837	165.650000
1847.416244	156.750000
1849.199029	162.400000
1850.977935	175.300000
1852.758219	154.300000
1854.536378	167.850000
1856.315914	145.550000
1858.093326	167.500000
1859.868615	147.450000
1861.645281	157.800000
1863.419825	162.100000
1865.195746	151.800000
1866.966048	163.450000
1868.739477	152.600000
1870.510786	154.100000
1872.281724	166.650000
1874.054040	163.050000
1875.820742	162.600000
1877.590569	145.450000
1879.356533	160.550000
1881.125621	157.700000
1882.890847	144.900000
1884.655705	158.600000
1886.421939	159.450000
1888.184316	139.800000
1889.946324	154.050000
1891.707966	142.350000
1893.469240	146.850000
1895.230148	131.850000
1896.990688	151.900000
1898.749120	143.900000
1900.507185	145.850000
1902.263143	142.100000
1904.020477	131.150000
1905.777446	149.550000
1907.532308	129.100000
1909.285066	148.400000
1911.037459	143.200000
1912.791229	131.750000
1914.542895	157.400000
1916.292458	124.600000
1918.043398	127.400000
1919.793974	136.200000
1921.540712	168.850000
1923.288825	144.150000
1925.034840	136.050000
1926.782229	147.800000
1928.527520	144.950000
1930.270715	140.600000
1932.015284	142.850000
1933.757757	135.800000
1935.499871	157.150000
1937.241624	141.350000
1938.983017	150.700000
1940.722317	152.200000
1942.461258	150.450000
1944.199840	125.600000
1945.936331	164.300000
1947.672463	163.775000
1949.409971	163.250000
1951.143656	141.650000
1952.878716	159.700000
1954.611687	129.300000
1956.344302	161.650000
1958.076560	150.300000
1959.808462	146.450000
1961.538279	127.150000
1963.266010	133.350000
1964.995116	139.950000
1966.723866	149.400000
1968.450533	123.550000
1970.176846	143.150000
1971.904533	124.850000
1973.626683	138.850000
1975.351934	145.800000
1977.073378	143.100000
1978.797922	140.050000
1980.520387	142.700000
1982.239048	148.600000
1983.960809	144.800000
1985.678767	141.800000
1987.398098	134.550000
1989.113630	134.350000
1990.833982	132.550000
1992.550536	138.350000
1994.263293	154.200000
1995.979146	129.700000
1997.692927	141.550000
1999.406358	135.000000
2001.117718	136.050000
2002.830450	140.800000
2004.539392	145.250000
2006.251426	131.600000
2007.957951	135.500000
2009.667569	136.950000
2011.375119	137.800000
2013.082322	138.350000
2014.787459	134.750000
2016.492250	135.100000
2018.198412	136.600000
2019.900791	136.100000
2021.604543	149.650000
2023.306232	129.900000
2025.007575	133.750000
2026.708574	138.250000
2028.407511	144.550000
2030.107820	130.900000
2031.804353	118.350000
2033.502258	131.450000
2035.198105	123.400000
2036.897037	117.600000
2038.590483	136.150000
2040.285300	138.850000
2041.979774	140.650000
2043.670481	132.150000
2045.364270	136.800000
2047.054294	132.600000
2048.745688	127.700000
2050.435028	144.450000
2052.125740	132.900000
2053.812688	135.500000
2055.499296	130.850000
2057.187275	138.850000
2058.871494	122.250000
2060.557083	140.300000
2062.242333	143.050000
2063.925535	134.100000
2065.610107	135.150000
2067.289215	134.550000
2068.973110	126.600000
2070.651543	130.100000
2072.333054	140.700000
2074.010813	124.150000
2075.688236	126.100000
2077.367028	124.350000
2079.043777	133.350000
2080.718485	134.600000
2082.394563	132.250000
2084.068599	124.050000
2085.742301	129.750000
2087.415667	113.150000
2089.086994	130.400000
2090.757987	129.800000
2092.428646	138.900000
2094.098971	125.250000
2095.768962	131.850000
2097.436917	124.250000
2099.104538	120.300000
2100.770126	118.450000
2102.437082	127.050000
2104.102005	111.600000
2105.766596	122.400000
2107.429155	128.750000
2109.093082	127.550000
2110.754978	119.050000
2112.416544	136.900000
2114.077778	112.050000
2115.736983	119.100000
2117.395859	127.400000
2119.054405	131.100000
2120.712620	126.600000
2122.367113	118.550000
2124.024670	125.800000
2125.681897	118.550000
2127.335404	124.550000
2128.990278	137.750000
2130.641433	105.250000
2132.295651	112.250000
2133.946151	117.350000
2135.598019	133.650000
2137.244478	126.100000
2138.895691	109.900000
2140.543192	118.300000
2142.192059	125.850000
2143.838907	111.000000
2145.485430	129.550000
2147.131627	114.250000
2148.774116	127.250000
2150.419662	119.300000
2152.061502	126.950000
2153.706399	134.100000
2155.347591	106.050000
2156.988459	124.200000
2158.629004	128.050000
2160.267536	124.300000
2161.907434	129.250000
2163.543632	132.900000
2165.181196	120.150000
2166.818438	131.400000
2168.453670	132.300000
2170.088580	123.700000
2171.723169	140.600000
2173.357437	108.450000
2174.988011	124.650000
2176.621637	127.050000
2178.251571	137.450000
2179.882870	111.800000
2181.512164	118.750000
2183.141139	103.200000
2184.769794	132.050000
2186.398130	119.150000
2188.024463	135.200000
2189.650478	128.050000
2191.274492	120.050000
2192.899871	119.550000
2194.523249	140.450000
2196.147992	129.650000
2197.769054	134.250000
2199.389799	124.250000
2201.011908	131.250000
2202.632020	118.750000
2204.250136	115.100000
2205.867936	113.850000
2207.485420	124.500000
2209.102590	107.450000
2210.719443	129.550000
2212.335982	111.350000
2213.950528	122.000000
2215.563081	117.050000
2217.176998	126.900000
2218.788924	115.150000
2220.402213	131.850000
2222.013512	117.800000
2223.622821	123.300000
2225.233493	105.600000
2226.842177	123.000000
2228.450549	97.650000
2230.056934	130.500000
2231.664681	103.300000
2233.270443	114.900000
2234.875893	96.000000
2236.479358	103.200000
2238.084186	106.400000
2239.687030	117.250000
2241.287891	115.400000
2242.890115	126.150000
2244.490357	125.050000
2246.091961	138.300000
2247.689912	123.350000
2249.289226	131.750000
2250.886560	123.900000
2252.483586	136.650000
2254.081973	104.450000
2255.676713	115.200000
2257.269475	122.000000
2258.863600	119.050000
2260.459086	116.650000
2262.050927	112.400000
2263.642462	113.050000
2265.235359	117.900000
2266.822946	107.500000
2268.415229	133.550000
2270.002205	110.000000
2271.592210	134.000000
2273.176910	124.200000
2274.766304	129.750000
2276.350395	116.300000
2277.935848	125.050000
2279.519332	111.000000
2281.105841	112.800000
2282.688717	112.700000
2284.271290	119.200000
2285.853559	117.500000
2287.432198	123.200000
2289.013862	120.600000
2290.591897	123.500000
2292.172955	116.250000
2293.750386	113.950000
2295.325854	111.650000
2296.904344	118.700000
2298.479210	123.400000
2300.053775	104.750000
2301.628039	104.000000
2303.202003	120.100000
2304.775667	116.300000
2306.349031	126.100000
2307.918776	122.450000
2309.488222	121.750000
2311.060686	102.600000
2312.627876	115.250000
2314.198083	117.350000
2315.764677	134.400000
2317.332629	125.350000
2318.898627	115.100000
2320.464327	117.100000
2322.029729	112.400000
2323.593178	108.500000
2325.157986	123.900000
2326.719186	106.450000
2328.283399	141.600000
2329.842352	127.650000
2331.404318	128.950000
2332.964334	107.800000
2334.524054	121.600000
2336.081826	107.700000
2337.639302	112.200000
2339.196484	107.550000
2340.751718	101.400000
2342.306659	98.150000
2343.861305	123.350000
2345.415658	107.500000
2346.969717	112.100000
2348.523483	113.500000
2350.075304	120.400000
2351.625182	108.200000
2353.178069	138.750000
2354.725712	118.700000
2356.276364	111.150000
2357.823424	126.200000
2359.371842	112.100000
2360.919969	113.550000
2362.464507	113.300000
2364.010403	116.750000
2365.554361	111.700000
2367.099675	106.100000
2368.641405	99.350000
2370.184493	117.350000
2371.725644	113.600000
2373.266506	112.150000
2374.807079	108.700000
2376.347363	105.650000
2377.887358	113.500000
2379.423774	93.300000
2380.963192	103.350000
2382.499033	108.350000
2384.036231	115.500000
2385.569853	114.200000
2387.106475	119.450000
2388.641167	109.600000
2390.173929	115.250000
2391.706404	110.950000
2393.236951	125.500000
2394.770496	110.800000
2396.298830	109.000000
2397.828520	124.050000
2399.357925	119.550000
2400.887045	111.900000
2402.415879	111.700000
2403.939509	106.150000
2405.467774	113.500000
2406.990837	121.400000
2408.518533	114.850000
2410.039390	111.250000
2411.564879	113.850000
2413.086809	117.900000
2414.610093	138.500000
2416.131457	126.950000
2417.650901	120.900000
2419.171700	122.050000
2420.690580	123.600000
2422.209179	124.000000
2423.725859	124.350000
2425.243895	127.500000
2426.761649	139.400000
2428.275851	130.250000
2429.789774	123.550000
2431.303416	126.750000
2432.818412	139.650000
2434.329861	115.700000
2435.842663	134.950000
2437.353553	128.200000
2438.864164	133.800000
2440.372863	133.100000
2441.884548	150.000000
2443.392690	140.050000
2444.900554	134.850000
2446.408139	130.550000
2447.912185	151.550000
2449.419215	144.400000
2450.924337	153.800000
2452.429182	152.850000
2453.932120	154.250000
2455.434782	145.800000
2456.937167	144.400000
2458.437647	135.900000
2459.939480	152.500000
2461.439408	137.600000
2462.939061	145.950000
2464.438439	136.850000
2465.935914	129.500000
2467.431487	135.150000
2468.930040	136.000000
2470.425065	129.350000
2471.921442	134.400000
2473.414293	134.850000
2474.908497	124.000000
2476.402427	136.350000
2477.892833	121.550000
2479.386217	126.450000
2480.877703	120.400000
2482.367292	125.950000
2483.856609	114.650000
2485.344030	127.200000
2486.834427	117.650000
2488.321306	107.200000
2489.809536	141.250000
2491.294249	119.050000
2492.778692	118.000000
2494.264487	107.200000
2495.748390	103.350000
2497.233643	107.050000
2498.713763	121.300000
2500.196856	104.900000
2501.678058	108.450000
2503.158991	119.950000
2504.638035	119.250000
2506.116810	99.850000
2507.595317	120.250000
2509.073555	104.450000
2510.551526	128.400000
2512.025991	101.250000
2513.503426	104.650000
2514.977356	122.700000
2516.452638	111.600000
2517.927652	104.600000
2519.399165	107.400000
2520.872029	101.050000
2522.343010	96.450000
2523.815341	110.500000
2525.282558	111.400000
2526.752742	109.950000
2528.221045	116.700000
2529.689083	100.550000
2531.156855	106.400000
2532.624363	106.950000
2534.091607	133.600000
2535.555358	110.250000
2537.020459	101.950000
2538.483683	103.300000
2539.948256	115.100000
2541.409341	105.500000
2542.871775	119.150000
2544.333946	109.100000
2545.792630	120.700000
2547.255887	112.700000
2548.714047	120.950000
2550.173557	116.250000
2551.627972	127.800000
2553.086958	117.150000
2554.544072	121.350000
2555.999314	113.200000
2557.454296	90.950000
2558.907408	119.300000
2560.361869	117.700000
2561.814461	116.050000
2563.266793	129.750000
2564.717257	102.850000
2566.170678	111.650000
2567.619016	108.550000
2569.070309	118.400000
2570.519737	120.700000
2571.965692	105.050000
2573.414602	107.950000
2574.860042	109.550000
2576.306829	110.700000
2577.751753	122.700000
2579.196420	108.250000
2580.642434	117.850000
2582.084982	112.850000
2583.528876	133.100000
2584.969306	112.600000
2586.411084	130.600000
2587.851002	110.700000
2589.292267	138.200000
2590.730070	121.450000
2592.170823	126.300000
2593.606514	113.800000
2595.045153	123.950000
2596.481936	122.350000
2597.916863	127.700000
2599.354737	124.000000
2600.787554	126.350000
2602.221718	113.550000
2603.654028	119.200000
2605.087684	125.750000
2606.519487	133.450000
2607.951036	124.350000
2609.382332	134.650000
2610.811777	146.300000
2612.240969	145.250000
2613.668310	120.650000
2615.096998	150.550000
2616.525433	140.550000
2617.950422	145.750000
2619.376756	145.900000
2620.801243	144.400000
2622.227075	147.250000
2623.649463	150.300000
2625.073196	156.700000
2626.495084	194.700000
2627.916721	167.350000
2629.336514	185.000000
2630.757652	189.650000
2632.178540	177.100000
2633.595989	181.150000
2635.016378	195.500000
2636.433330	213.400000
2637.850034	208.000000
2639.266489	223.750000
2640.682696	225.900000
2642.098655	216.750000
2643.512773	266.300000
2644.926643	267.600000
2646.338674	273.950000
2647.752050	288.400000
2649.161996	294.900000
2650.574878	324.550000
2651.984331	334.950000
2653.393538	367.100000
2654.800909	378.200000
2656.211214	398.700000
2657.619683	423.050000
2659.026318	445.150000
2660.432707	468.800000
2661.837262	461.350000
2663.243161	504.250000
2664.647227	532.950000
2666.051048	561.450000
2667.454625	560.400000
2668.856371	612.850000
2670.259460	604.950000
2671.659131	624.200000
2673.060146	620.950000
2674.457745	637.350000
2675.858273	632.900000
2677.255387	627.900000
2678.653844	622.300000
2680.050474	615.000000
2681.446861	600.000000
2682.843006	586.050000
2684.237325	544.800000
2685.632987	531.550000
2687.025240	517.650000
2688.418835	479.350000
2689.810606	453.050000
2691.203720	448.200000
2692.595010	423.400000
2693.984477	397.800000
2695.373704	356.550000
2696.762692	349.400000
2698.153021	327.450000
2699.538367	308.900000
2700.926636	295.300000
2702.313085	283.700000
2703.699295	258.400000
2705.085266	255.400000
2706.467839	252.600000
2707.851754	232.050000
2709.235430	207.650000
2710.618869	203.800000
2711.998912	206.600000
2713.380297	199.750000
2714.759867	186.400000
2716.140777	194.250000
2717.519873	175.100000
2718.897155	193.450000
2720.275778	167.600000
2721.652587	153.550000
2723.029161	151.550000
2724.405499	159.550000
2725.780025	151.850000
2727.155892	147.300000
2728.528373	148.750000
2729.903769	141.050000
2731.274205	150.000000
2732.645981	134.650000
2734.017524	134.400000
2735.387258	138.800000
2736.758332	126.700000
2738.127599	144.450000
2739.496632	128.950000
2740.863859	125.300000
2742.230852	123.350000
2743.597613	115.900000
2744.964141	113.400000
2746.328865	123.750000
2747.693356	105.550000
2749.057616	121.650000
2750.421643	114.850000
2751.785438	117.350000
2753.145861	108.300000
2754.509193	100.250000
2755.867583	87.800000
2757.228883	113.450000
2758.586813	105.700000
2759.947651	97.300000
2761.306689	102.400000
2762.662360	101.800000
2764.020938	97.850000
2765.376149	108.800000
2766.731131	99.550000
2768.084316	111.750000
2769.440408	110.850000
2770.793136	119.400000
2772.145636	92.100000
2773.497907	100.050000
2774.851516	104.700000
2776.201765	102.300000
2777.550219	99.150000
2778.901578	102.850000
2780.249579	98.800000
2781.598917	95.200000
2782.946463	83.850000
2784.293783	103.100000
2785.640875	99.850000
2786.986177	94.750000
2788.331253	88.950000
2789.676103	101.200000
2791.020727	86.650000
2792.361999	93.500000
2793.704608	92.150000
2795.046993	112.000000
2796.389152	96.250000
2797.727962	103.900000
2799.069672	90.550000
2800.408033	102.650000
2801.747732	87.650000
2803.085646	92.200000
2804.421774	100.700000
2805.757680	90.900000
2807.094923	82.100000
2808.430382	103.450000
2809.765617	94.400000
2811.099071	101.450000
2812.433861	95.800000
2813.765311	92.200000
2815.099656	96.250000
2816.429102	90.900000
2817.759886	102.550000
2819.090449	93.350000
2820.419232	100.200000
2821.749351	93.450000
2823.077692	94.350000
2824.405812	101.750000
2825.732154	88.150000
2827.059832	95.350000
2828.384178	93.050000
2829.709860	81.700000
2831.033766	101.650000
2832.357452	91.950000
2833.682474	92.150000
2835.004167	86.850000
2836.325641	79.300000
2837.646895	89.350000
2838.967932	88.700000
2840.287195	82.250000
2841.607794	86.650000
2842.926621	89.500000
2844.245231	76.800000
2845.562069	77.900000
2846.878690	82.850000
2848.195094	78.100000
2849.509728	77.100000
2850.825697	88.000000
2852.138347	85.500000
2853.452331	86.250000
2854.766099	80.200000
2856.079650	88.900000
2857.391435	100.400000
2858.701453	83.150000
2860.012806	88.000000
2861.320844	102.600000
2862.630216	88.550000
2863.939373	88.800000
2865.248316	82.850000
2866.555494	84.900000
2867.860910	94.150000
2869.167659	99.150000
2870.472647	72.000000
2871.777420	80.800000
2873.080433	102.050000
2874.386326	103.250000
2875.687365	77.450000
2876.989737	95.900000
2878.290351	82.000000
2879.592297	77.550000
2880.894031	79.800000
2882.192461	79.850000
2883.492224	79.900000
2884.790230	90.700000
2886.088024	79.350000
2887.384062	73.650000
2888.681432	79.600000
2889.977048	87.600000
2891.272452	80.800000
2892.567645	74.000000
2893.859541	78.050000
2895.154312	78.450000
2896.445788	84.450000
2897.738596	83.700000
2899.031194	72.500000
2900.320497	96.150000
2901.611134	78.700000
2902.900019	81.150000
2904.190236	76.950000
2905.477162	82.850000
2906.765420	89.950000
2908.051929	91.600000
2909.338229	80.800000
2910.624321	98.550000
2911.908665	81.150000
2913.195881	83.800000
2914.478270	80.300000
2915.761991	78.250000
2917.043965	69.600000
2918.325733	100.850000
2919.605755	64.650000
2920.888648	89.900000
2922.169794	72.950000
2923.447659	82.150000
2924.728393	81.950000
2926.005847	91.650000
2927.283094	75.850000
2928.558599	69.400000
2929.836972	70.400000
2931.110531	81.050000
2932.386957	69.200000
2933.661642	80.050000
2934.934586	80.700000
2936.208862	93.450000
2937.481398	73.850000
2938.753729	76.500000
2940.022788	74.250000
2941.294712	79.000000
2942.564898	80.950000
2943.834880	82.600000
2945.104659	82.000000
2946.372702	93.250000
2947.639008	72.500000
2948.905112	77.400000
2950.172547	84.600000
2951.438246	85.600000
2952.703744	80.250000
2953.969039	86.600000
2955.231069	76.600000
2956.494429	65.250000
2957.757588	83.650000
2959.019015	75.000000
2960.281771	85.500000
2961.542795	68.550000
2962.802089	65.050000
2964.061182	83.150000
2965.320076	68.200000
2966.578769	81.300000
2967.837261	69.300000
2969.094025	88.950000
2970.350590	71.150000
2971.605426	100.350000
2972.861592	69.600000
2974.114503	86.300000
2975.368742	65.100000
2976.622783	80.400000
2977.875098	76.650000
2979.127215	81.800000
2980.377607	72.050000
2981.630854	64.600000
2982.879324	83.100000
2984.130649	77.500000
2985.378724	81.850000
2986.626602	78.700000
2987.874284	63.150000
2989.121768	84.000000
2990.367531	59.550000
2991.613098	68.250000
2992.859992	71.450000
2994.103642	70.950000
2995.348619	67.850000
2996.590354	80.350000
2997.834940	67.050000
2999.077807	83.050000
3000.317433	77.150000
3001.559909	73.350000
3002.799145	70.350000
3004.039709	67.900000
3005.278556	67.050000
3006.517209	77.800000
3007.754146	65.850000
3008.992411	86.050000
3010.228960	75.300000
3011.465316	61.450000
3012.701478	73.250000
3013.935926	63.800000
3015.170181	64.850000
3016.404244	68.050000
3017.636593	54.050000
3018.867231	72.000000
3020.100715	61.850000
3021.332488	72.400000
3022.562549	64.000000
3023.792419	81.900000
3025.020579	62.900000
3026.250066	83.000000
3027.477843	55.600000
3028.705429	70.300000
3029.934341	72.300000
3031.158511	63.950000
3032.385524	44.600000
3033.609314	66.350000
3034.834429	55.850000
3036.057839	51.800000
3037.281058	67.900000
3038.502572	79.400000
3039.726927	75.900000
3040.946547	68.300000
3042.167493	59.700000
3043.388249	82.500000
3044.607303	73.850000
3045.827681	76.350000
3047.044843	66.900000
3048.263330	68.150000
3049.480116	68.900000
3050.696713	69.150000
3051.913123	73.200000
3053.126319	65.200000
3054.342353	62.800000
3055.555175	70.100000
3056.770834	65.500000
3057.981771	76.350000
3059.194032	51.500000
3060.406106	54.450000
3061.617994	56.800000
3062.828185	57.800000
3064.038189	52.350000
3065.248007	67.250000
3066.456129	60.600000
3067.664066	64.500000
3068.870307	59.500000
3070.077873	69.100000
3071.283744	64.825000
3072.489430	60.550000
3073.694932	63.900000
3074.898740	76.200000
3076.103872	55.550000
3077.307311	64.750000
3078.509059	53.950000
3079.710622	63.700000
3080.912002	66.650000
3082.113198	73.000000
3083.312704	40.900000
3084.512027	65.350000
3085.712673	52.100000
3086.911629	52.850000
3088.107391	69.850000
3089.305981	62.100000
3090.501378	46.300000
3091.698099	62.850000
3092.891627	53.000000
3094.087983	50.750000
3095.282652	59.650000
3096.474131	58.000000
3097.669942	47.650000
3098.861058	52.750000
3100.053498	50.500000
3101.242749	62.350000
3102.434827	57.900000
3103.625221	46.150000
3104.812429	63.250000
3106.000959	51.550000
3107.190812	54.500000
3108.377480	62.150000
3109.563969	78.900000
3110.750279	62.900000
3111.937910	48.800000
3113.122359	58.250000
3114.305129	70.100000
3115.490721	68.400000
3116.674634	40.350000
3117.856867	54.600000
3119.038923	55.600000
3120.220800	54.250000
3121.402499	56.500000
3122.582521	49.900000
3123.760866	62.300000
3124.942031	48.900000
3126.120021	59.900000
3127.297834	67.000000
3128.475470	48.950000
3129.651431	53.450000
3130.827216	45.600000
3132.004321	69.850000
3133.179753	57.750000
3134.353511	57.300000
3135.525596	49.250000
3136.699003	67.500000
3137.872233	53.450000
3139.043792	57.450000
3140.216671	67.500000
3141.386383	51.500000
3142.557416	59.400000
3143.726778	64.700000
3144.894471	71.600000
3146.064979	47.500000
3147.230829	58.500000
3148.400987	49.600000
3149.566488	55.150000
3150.731816	56.100000
3151.896970	65.800000
3153.061951	55.100000
3154.228251	71.550000
3155.389898	58.350000
3156.552866	52.800000
3157.715661	69.500000
3158.878283	49.200000
3160.039239	64.400000
3161.200024	54.100000
3162.360636	68.550000
3163.519584	59.350000
3164.678361	51.100000
3165.836965	49.300000
3166.995398	59.350000
3168.153660	61.750000
3169.310259	61.200000
3170.465197	46.300000
3171.621454	52.700000
3172.776050	49.300000
3173.930476	50.700000
3175.083242	57.950000
3176.235837	53.700000
3177.388263	37.900000
3178.540518	56.550000
3179.692604	55.050000
3180.841543	55.650000
3181.993289	45.400000
3183.143378	60.150000
3184.291810	59.650000
3185.440072	53.400000
3186.588166	49.500000
3187.736091	55.650000
3188.882360	62.550000
3190.028461	63.900000
3191.172908	67.750000
3192.317187	57.700000
3193.461297	51.950000
3194.606726	64.700000
3195.749016	59.850000
3196.891139	64.850000
3198.033094	54.800000
3199.174882	64.200000
3200.316503	47.750000
3201.454989	62.600000
3202.594792	60.600000
3203.735912	59.800000
3204.873899	53.850000
3206.010235	53.850000
3207.146407	41.150000
3208.283895	60.800000
3209.419735	55.300000
3210.556892	51.700000
3211.689436	48.350000
3212.826261	72.900000
3213.958476	44.750000
3215.092007	52.800000
3216.225373	52.400000
3217.355613	74.450000
3218.488650	58.850000
3219.618561	61.850000
3220.749788	49.050000
3221.877891	59.700000
3223.008790	62.800000
3224.138045	62.650000
3225.265657	53.400000
3226.390146	62.800000
3227.518911	60.400000
3228.644554	67.150000
3229.770034	67.750000
3230.893873	61.150000
3232.020507	61.350000
3233.142543	65.850000
3234.265895	65.350000
3235.389085	64.350000
3236.512112	64.350000
3237.633501	64.500000
3238.754727	69.750000
3239.874315	76.150000
3240.993742	61.600000
3242.111532	76.200000
3243.232113	68.950000
3244.349581	68.450000
3245.466888	59.600000
3246.584035	72.950000
3247.699545	61.750000
3248.816371	67.100000
3249.930087	44.200000
3251.046592	64.200000
3252.161462	70.750000
3253.273224	65.350000
3254.384827	59.050000
3255.497745	59.650000
3256.610503	58.000000
3257.720155	67.600000
3258.831122	46.100000
3259.941930	66.500000
3261.051106	65.600000
3262.158651	68.050000
3263.267511	54.000000
3264.376212	55.600000
3265.481811	51.900000
3266.588725	58.950000
3267.694009	52.900000
3268.800607	61.850000
3269.904105	45.100000
3271.008917	67.600000
3272.113572	41.400000
3273.215129	40.600000
3274.316529	54.850000
3275.419243	48.750000
3276.521801	42.650000
3277.621262	57.150000
3278.723507	41.050000
3279.822656	53.700000
3280.920180	28.450000
3282.017550	48.150000
3283.117701	52.350000
3284.214760	47.300000
3285.311663	41.000000
3286.408411	40.950000
3287.500600	52.400000
3288.597039	43.800000
3289.691855	51.250000
3290.786517	56.850000
3291.879556	42.400000
3292.972442	39.950000
3294.063707	39.550000
3295.156285	43.600000
3296.247243	52.350000
3297.336581	56.000000
3298.425766	39.350000
3299.516263	56.950000
3300.603677	30.650000
3301.690937	33.000000
3302.779510	41.700000
3303.867930	61.050000
3304.951804	43.900000
3306.039919	48.600000
3307.124952	36.450000
3308.208370	49.350000
3309.293100	40.050000
3310.376214	50.000000
3311.460641	32.500000
3312.541989	56.200000
3313.624649	33.700000
3314.705694	52.650000
3315.786589	24.200000
3316.865871	53.200000
3317.945002	53.700000
3319.025445	59.000000
3320.102813	40.300000
3321.181493	69.050000
3322.258561	50.150000
3323.335479	41.500000
3324.410787	49.850000
3325.485945	54.650000
3326.562414	48.250000
3327.635813	43.900000
3328.709062	31.900000
3329.783623	59.700000
3330.856575	40.900000
3331.927918	37.550000
3333.000572	39.750000
3334.070159	41.050000
3335.141058	47.150000
3336.210349	46.050000
3337.280950	46.400000
3338.349946	54.650000
3339.417335	33.700000
3340.483119	48.900000
3341.553129	50.750000
3342.620076	45.100000
3343.683961	47.200000
3344.750613	26.350000
3345.815662	29.250000
3346.879107	28.100000
3347.942406	35.300000
3349.005558	38.300000
3350.068564	43.250000
3351.131424	46.750000
3352.192681	62.050000
3353.250882	57.750000
3354.313304	30.900000
3355.372670	33.450000
3356.431890	37.750000
3357.492419	54.350000
3358.548440	42.100000
3359.607224	46.800000
3360.661501	50.950000
3361.718542	47.200000
3362.773984	43.450000
3363.830736	42.100000
3364.885889	41.500000
3365.939445	41.900000
3366.991404	51.600000
3368.046126	39.500000
3369.097798	58.950000
3370.149327	43.100000
3371.202164	35.150000
3372.251954	49.550000
3373.303053	44.250000
3374.351105	43.450000
3375.401918	37.650000
3376.449685	42.400000
3377.497310	18.450000
3378.544793	38.700000
3379.590683	36.000000
3380.637881	37.750000
3381.682037	48.450000
3382.728951	29.450000
3383.774273	36.800000
3384.816554	42.100000
3385.858694	41.050000
3386.902143	47.750000
3387.945450	33.700000
3388.987167	31.450000
3390.028744	28.700000
3391.070179	38.000000
3392.110026	48.650000
3393.148284	48.000000
3394.187850	31.350000
3395.227276	50.800000
3396.265114	48.750000
3397.301365	43.700000
3398.337477	33.300000
3399.374895	29.050000
3400.409281	41.900000
3401.444975	41.050000
3402.480529	34.500000
3403.513052	41.800000
3404.548327	35.250000
3405.580573	52.750000
3406.612680	50.950000
3407.643203	62.450000
3408.675033	53.500000
3409.706725	38.350000
3410.735389	25.600000
3411.763916	41.400000
3412.793749	37.550000
3413.823445	39.200000
3414.850115	38.400000
3415.878091	58.500000
3416.903044	28.650000
3417.930746	49.950000
3418.955424	45.550000
3419.981409	38.850000
3421.005815	62.000000
3422.030084	48.400000
3423.052774	31.400000
3424.075328	36.750000
3425.099188	43.550000
3426.120028	34.100000
3427.140732	36.000000
3428.162742	46.350000
3429.181734	37.950000
3430.200591	53.500000
3431.220754	31.850000
3432.237900	47.000000
