-117.018713	-1.650000
-114.349113	3.150000
-111.682448	-10.300000
-109.016535	3.450000
-106.353555	1.700000
-103.689144	6.600000
-101.027664	12.150000
-98.364755	5.350000
-95.706952	-11.500000
-93.047720	-2.600000
-90.389236	-6.250000
-87.733677	-18.000000
-85.076688	-8.100000
-82.424798	-4.550000
-79.771478	9.750000
-77.121077	-2.800000
-74.469248	3.800000
-71.822509	6.000000
-69.174340	4.400000
-66.526914	-14.900000
-63.882403	-1.650000
-61.236462	7.100000
-58.595603	1.350000
-55.953315	14.500000
-53.313936	-7.700000
-50.673128	-11.750000
-48.033059	6.850000
-45.398064	9.250000
-42.761639	1.300000
-40.128117	5.400000
-37.493167	9.700000
-34.863283	-14.300000
-32.229805	8.400000
-29.601390	-2.050000
-26.973709	15.700000
-24.344599	-1.350000
-21.720547	6.550000
-19.092904	21.450000
-16.470316	16.350000
-13.848458	36.900000
-11.227331	79.300000
-8.606935	170.350000
-5.989426	636.650000
-3.370489	2020.050000
-0.754438	4716.450000
1.860886	6705.100000
4.475481	4633.000000
7.087195	444.850000
9.700337	73.350000
12.308445	39.600000
14.920134	20.550000
17.526793	10.500000
20.134881	21.450000
22.742243	-2.250000
25.344581	0.100000
27.950498	4.100000
30.551392	5.000000
33.153714	1.700000
35.751018	10.100000
38.351899	6.400000
40.947764	1.600000
43.545057	-9.000000
46.141632	6.850000
48.733197	-13.850000
51.326190	3.850000
53.916322	-8.000000
56.507881	10.200000
59.096582	2.000000
61.686709	1.050000
64.271837	0.950000
66.858393	1.150000
69.444235	-10.950000
72.027222	3.400000
74.611637	-7.800000
77.188923	13.750000
79.769775	-7.950000
82.347778	3.600000
84.925070	12.100000
87.503790	3.050000
90.077527	-1.450000
92.652691	12.600000
95.225012	-5.850000
97.796626	7.900000
100.365399	-9.650000
102.935599	-4.350000
105.502960	14.100000
108.071748	14.850000
110.637699	3.900000
113.200815	3.150000
115.767487	5.300000
118.324937	10.950000
120.888073	20.600000
123.446250	35.750000
126.007981	39.150000
128.564755	64.850000
131.122955	90.000000
133.676203	127.500000
136.228753	195.700000
138.784853	283.800000
141.336005	386.300000
143.886460	483.800000
146.436217	568.600000
148.983155	617.900000
151.529398	650.150000
154.077066	668.650000
156.624038	691.900000
159.166075	673.200000
161.707418	649.450000
164.248068	657.100000
166.790144	651.100000
169.329408	661.550000
171.865863	650.300000
174.401628	658.750000
176.938818	647.100000
179.475317	664.450000
182.009010	647.150000
184.539899	643.850000
187.070100	643.800000
189.601727	656.750000
192.130552	645.400000
194.656578	649.800000
197.181918	657.750000
199.708683	642.600000
202.232652	629.050000
204.755936	655.500000
207.278534	642.400000
209.798340	653.250000
212.317463	630.750000
214.835903	630.250000
217.355768	651.750000
219.868630	661.700000
222.385024	667.250000
224.900737	685.700000
227.411559	704.750000
229.923806	733.750000
232.433270	738.600000
234.942056	722.250000
237.450164	700.250000
239.959696	714.650000
242.464347	703.200000
244.968322	715.500000
247.473721	719.800000
249.974245	714.500000
252.478292	710.950000
254.975369	707.300000
257.475969	720.700000
259.973797	721.450000
262.470952	736.450000
264.967434	736.900000
267.459053	723.400000
269.954192	731.350000
272.446564	745.250000
274.938266	746.350000
277.427205	735.450000
279.917567	758.750000
282.405168	741.200000
284.890009	762.500000
287.378365	754.150000
289.859781	803.100000
292.344711	789.350000
294.824796	790.750000
297.308393	816.500000
299.787147	841.350000
302.267324	865.200000
304.744750	876.900000
307.221512	827.000000
309.697610	813.400000
312.170960	788.650000
314.643649	770.000000
317.115676	758.200000
319.587041	758.000000
322.055663	771.100000
324.523625	756.100000
326.993010	720.200000
329.457572	699.550000
331.925638	684.350000
334.388883	676.600000
336.851472	655.700000
339.313404	650.750000
341.774679	645.850000
344.233219	638.900000
346.693183	648.000000
349.150413	621.800000
351.606989	599.550000
354.062911	603.400000
356.516103	590.400000
358.970718	588.500000
361.420531	585.900000
363.873840	580.900000
366.322350	561.200000
368.770210	564.400000
371.219492	539.250000
373.663979	553.750000
376.109890	535.550000
378.555150	533.100000
380.997692	522.550000
383.439586	548.450000
385.880832	504.500000
388.319364	522.100000
390.759316	510.100000
393.196555	514.400000
395.631083	490.300000
398.069097	477.600000
400.502336	491.100000
402.936995	507.150000
405.366882	495.800000
407.800254	496.000000
410.228856	496.750000
412.656816	468.250000
415.086198	468.250000
417.510814	471.500000
419.936852	464.550000
422.362249	460.600000
424.787006	451.400000
427.207004	452.650000
429.628424	447.900000
432.047148	431.050000
434.467292	446.750000
436.884741	435.900000
439.303610	419.550000
441.719785	410.450000
444.131214	390.800000
446.546119	375.600000
448.958335	384.950000
451.369916	358.200000
453.780863	351.650000
456.189123	342.350000
458.596752	320.650000
461.003748	321.800000
463.410113	318.450000
465.813795	330.850000
468.216847	309.700000
470.619269	325.150000
473.021061	323.650000
475.420175	338.450000
477.820709	326.750000
480.220614	338.200000
482.615797	345.450000
485.014446	360.350000
487.408374	361.850000
489.801677	414.200000
492.194355	436.850000
494.586407	481.300000
496.979877	534.950000
499.368635	637.450000
501.754727	768.950000
504.142239	1016.800000
506.529128	1395.900000
508.913352	2008.600000
511.298996	2922.300000
513.681978	4210.350000
516.062299	5651.550000
518.444039	6804.300000
520.823120	6760.050000
523.203619	6043.800000
525.581462	4947.950000
527.956648	4065.550000
530.331218	3301.850000
532.707205	2785.150000
535.080540	2378.850000
537.455292	2090.900000
539.825358	1864.600000
542.194810	1697.950000
544.565679	1542.050000
546.931867	1436.950000
549.299474	1349.100000
551.664435	1278.100000
554.028784	1204.100000
556.392519	1117.750000
558.757672	1064.500000
561.118153	1038.950000
563.480052	1013.650000
565.839310	929.550000
568.195930	902.200000
570.555996	873.800000
572.909370	825.650000
575.266189	794.150000
577.620373	776.100000
579.973948	751.200000
582.326916	717.800000
584.677251	714.300000
587.029004	684.250000
589.374080	661.850000
591.724619	660.500000
594.068486	654.300000
596.417814	625.100000
598.762493	638.950000
601.104548	604.600000
603.448020	601.850000
605.788869	589.500000
608.129115	601.250000
610.466741	615.550000
612.807802	662.950000
615.144226	688.950000
617.482066	720.850000
619.817289	696.100000
622.149895	664.750000
624.483919	650.050000
626.815328	614.350000
629.146139	602.650000
631.476352	595.150000
633.805968	571.300000
636.130960	584.900000
638.461394	575.100000
640.787207	594.750000
643.110412	577.450000
645.435034	581.650000
647.757050	550.900000
650.078472	561.050000
652.397291	545.550000
654.717527	559.650000
657.037169	568.800000
659.354210	564.250000
661.670659	564.950000
663.984510	543.650000
666.299777	545.850000
668.612447	559.700000
670.926532	530.200000
673.236017	538.600000
675.546918	532.050000
677.855226	500.950000
680.162946	506.150000
682.472080	512.600000
684.776622	499.300000
687.080578	473.350000
689.383948	467.400000
691.688732	482.250000
693.988929	457.800000
696.290542	441.650000
698.591569	430.500000
700.888015	420.400000
703.185876	410.850000
705.483153	411.750000
707.779847	415.400000
710.071965	410.200000
712.367494	398.350000
714.658449	418.250000
716.950819	408.850000
719.240614	413.750000
721.529828	399.500000
723.818463	405.850000
726.104525	398.200000
728.392002	393.750000
730.676907	402.200000
732.961235	386.550000
735.242994	393.600000
737.526167	387.900000
739.808763	369.150000
742.086803	385.450000
744.366257	384.300000
746.645136	386.950000
748.923440	391.600000
751.197193	392.900000
753.472361	369.350000
755.746955	385.750000
758.018990	382.750000
760.292438	392.550000
762.563328	386.950000
764.831662	375.850000
767.101409	389.500000
769.368601	388.100000
771.635224	376.400000
773.901276	380.100000
776.164777	388.200000
778.429691	382.450000
780.694035	369.600000
782.953850	379.350000
785.215077	394.500000
787.475737	380.700000
789.733851	371.750000
791.989420	385.450000
794.248379	383.850000
796.500840	377.300000
798.758668	386.200000
801.011977	396.000000
803.262746	383.350000
805.514927	385.150000
807.764569	383.000000
810.015623	385.200000
812.262167	392.850000
814.510122	395.800000
816.755543	379.900000
819.002375	382.750000
821.248646	395.300000
823.490412	393.700000
825.735562	381.950000
827.974239	391.050000
830.216298	375.450000
832.453859	387.150000
834.692832	382.000000
836.929278	378.500000
839.167135	370.650000
841.402467	353.250000
843.635276	365.000000
845.869495	360.250000
848.101193	343.800000
850.332336	342.450000
852.562924	323.900000
854.792958	355.950000
857.022438	346.550000
859.247436	340.150000
861.475808	347.350000
863.699702	355.800000
865.925007	342.550000
868.145836	343.100000
870.370037	339.950000
872.589765	341.200000
874.810903	317.150000
877.031491	331.050000
879.249570	327.700000
881.469058	326.300000
883.684080	334.800000
885.898554	329.650000
888.112481	322.950000
890.325861	346.150000
892.538693	322.550000
894.750978	340.100000
896.960762	342.200000
899.170000	334.550000
901.378693	327.400000
903.584886	341.250000
905.792489	338.650000
907.997595	345.150000
910.202157	354.850000
912.404224	353.450000
914.607700	363.750000
916.808682	374.850000
919.009122	368.600000
921.210971	403.050000
923.406429	405.100000
925.605245	430.300000
927.799624	458.350000
929.997360	507.350000
932.190660	582.100000
934.385369	655.050000
936.577591	718.000000
938.769276	776.650000
940.960423	840.450000
943.149087	849.550000
945.337215	857.500000
947.522861	838.800000
949.711861	829.450000
951.896437	844.250000
954.080478	847.050000
956.267869	843.050000
958.446956	839.650000
960.629394	870.700000
962.811298	863.350000
964.990727	882.100000
967.167684	886.000000
969.346049	880.000000
971.525821	871.500000
973.699244	900.500000
975.876013	882.450000
978.048375	894.950000
980.222145	863.550000
982.391511	839.400000
984.564221	812.900000
986.734466	782.650000
988.904181	713.950000
991.073368	645.650000
993.238158	584.300000
995.406290	542.250000
997.570026	495.250000
999.735170	488.950000
1001.897854	435.000000
1004.060013	431.900000
1006.219715	401.150000
1008.378892	411.050000
1010.539476	387.650000
1012.697605	382.250000
1014.855211	358.950000
1017.012293	367.250000
1019.168851	335.250000
1021.321030	347.600000
1023.474616	309.600000
1025.627680	304.350000
1027.778295	311.000000
1029.930316	298.950000
1032.077965	290.000000
1034.228945	277.600000
1036.375554	292.400000
1038.521644	273.250000
1040.667216	258.700000
1042.814193	261.200000
1044.954881	263.750000
1047.098898	268.850000
1049.240476	258.300000
1051.381536	265.650000
1053.524002	278.550000
1055.660187	266.750000
1057.799699	271.000000
1059.934855	261.400000
1062.073336	263.550000
1064.207464	251.200000
1066.341078	265.150000
1068.476096	249.750000
1070.606766	272.900000
1072.738840	267.300000
1074.868485	256.150000
1076.997617	248.750000
1079.126239	263.900000
1081.254349	260.400000
1083.380033	257.100000
1085.505207	274.250000
1087.631785	261.350000
1089.754025	271.600000
1091.877670	263.350000
1093.996980	274.550000
1096.121519	265.850000
1098.239814	264.800000
1100.359512	246.350000
1102.476793	258.350000
1104.593566	256.200000
1106.709833	267.650000
1108.823685	250.850000
1110.938940	262.000000
1113.049873	262.200000
1115.164118	261.000000
1117.274042	266.250000
1119.385370	244.950000
1121.496193	233.850000
1123.602700	250.850000
1125.712516	237.250000
1127.818019	231.250000
1129.924924	235.700000
1132.025614	227.250000
1134.131516	235.300000
1136.233109	228.900000
1138.336105	237.950000
1140.438600	230.100000
1142.534888	222.500000
1144.636383	240.550000
1146.733576	227.750000
1148.830271	226.900000
1150.926467	222.350000
1153.022165	231.200000
1155.117366	235.050000
1157.210170	239.000000
1159.304376	226.200000
1161.392391	239.950000
1163.485604	225.900000
1165.572630	226.850000
1167.662954	231.000000
1169.748990	217.500000
1171.838324	225.850000
1173.921477	225.500000
1176.006033	228.800000
1178.091990	231.400000
1180.173665	230.100000
1182.256741	223.200000
1184.337432	220.750000
1186.417632	242.500000
1188.497340	219.050000
1190.576557	232.200000
1192.653391	218.900000
1194.727845	221.300000
1196.805591	209.750000
1198.879066	205.150000
1200.953943	227.600000
1203.024552	211.450000
1205.096562	221.150000
1207.166196	224.300000
1209.237231	208.950000
1211.307779	221.650000
1213.374065	209.800000
1215.441752	215.800000
1217.507066	218.050000
1219.573781	230.900000
1221.636241	228.550000
1223.701985	209.950000
1225.763475	211.650000
1227.826366	222.700000
1229.886888	205.600000
1231.946928	207.400000
1234.006484	216.800000
1236.063676	221.150000
1238.120385	216.050000
1240.174732	219.950000
1242.232360	217.300000
1244.287624	214.850000
1246.338649	211.750000
1248.391073	216.200000
1250.443017	215.550000
1252.492603	214.300000
1254.541710	227.550000
1256.590338	221.600000
1258.638488	219.350000
1260.686160	225.650000
1262.729601	211.850000
1264.776318	217.500000
1266.820681	209.900000
1268.864568	220.100000
1270.906103	210.300000
1272.945289	199.850000
1274.987748	197.100000
1277.025984	193.350000
1279.065619	207.050000
1281.104778	210.550000
1283.139720	204.700000
1285.176060	209.750000
1287.210056	210.600000
1289.245449	204.600000
1291.276629	197.650000
1293.309208	192.300000
1295.341315	204.850000
1297.371081	201.550000
1299.402244	191.700000
1301.429200	214.650000
1303.457555	194.100000
1305.481704	193.600000
1307.509119	177.200000
1309.532331	188.950000
1311.556941	177.100000
1313.579216	196.150000
1315.602889	185.450000
1317.624229	203.150000
1319.645102	191.350000
1321.665507	187.350000
1323.681719	187.750000
1325.699328	182.750000
1327.714609	184.900000
1329.733149	201.700000
1331.747499	203.800000
1333.759524	218.700000
1335.774807	212.250000
1337.785904	221.100000
1339.798397	211.100000
1341.806708	239.500000
1343.818275	222.550000
1345.823803	226.200000
1347.832586	229.000000
1349.837191	215.900000
1351.845050	216.700000
1353.852447	214.850000
1355.853813	210.950000
1357.856575	203.750000
1359.858878	200.250000
1361.860721	201.350000
1363.862104	192.550000
1365.861173	205.000000
1367.859785	187.050000
1369.857937	195.500000
1371.855632	212.700000
1373.849164	192.650000
1375.844091	188.600000
1377.838562	192.000000
1379.832576	199.500000
1381.824283	185.700000
1383.815534	180.650000
1385.804480	200.250000
1387.794821	186.500000
1389.784708	182.900000
1391.772290	201.550000
1393.759419	189.150000
1395.744246	197.950000
1397.730468	198.750000
1399.714389	181.300000
1401.697858	191.250000
1403.680875	194.550000
1405.661594	205.700000
1407.643707	183.750000
1409.623523	193.550000
1411.602889	185.350000
1413.578116	180.250000
1415.556581	181.150000
1417.532753	190.200000
1419.508475	175.850000
1421.483749	182.600000
1423.456731	179.700000
1425.429265	181.900000
1427.401351	174.000000
1429.372990	194.550000
1431.340500	178.550000
1433.313084	186.950000
1435.277862	174.450000
1437.247713	182.750000
1439.213439	183.600000
1441.180559	188.800000
1443.145395	180.300000
1445.106111	177.700000
1447.071895	169.750000
1449.031724	183.500000
1450.992947	173.050000
1452.955561	179.200000
1454.914061	173.800000
1456.872119	186.800000
1458.829735	166.450000
1460.786908	178.150000
1462.741806	172.050000
1464.698097	176.350000
1466.652113	167.150000
1468.605688	174.950000
1470.556991	164.950000
1472.509686	168.150000
1474.460110	155.200000
1476.410095	162.850000
1478.359641	164.150000
1480.306918	159.300000
1482.251927	167.800000
1484.198329	172.850000
1486.144293	156.900000
1488.089820	167.000000
1490.033081	170.300000
1491.975906	175.600000
1493.916468	154.500000
1495.858422	174.750000
1497.798113	171.450000
1499.737369	179.950000
1501.676191	173.000000
1503.612753	157.350000
1505.550706	159.700000
1507.486400	168.100000
1509.421661	168.050000
1511.354665	174.300000
1513.287237	158.550000
1515.219377	174.000000
1517.151085	168.600000
1519.080540	164.800000
1521.011385	168.650000
1522.941798	169.500000
1524.868139	178.900000
1526.795870	176.200000
1528.721352	165.050000
1530.646404	175.000000
1532.571027	176.500000
1534.495220	171.400000
1536.417167	184.150000
1538.340504	179.350000
1540.261594	176.700000
1542.180440	189.050000
1544.100676	180.900000
1546.018668	188.600000
1547.936234	186.100000
1549.851559	185.700000
1551.768273	192.550000
1553.680932	217.200000
1555.596794	201.100000
1557.510418	214.550000
1559.421803	217.750000
1561.334578	231.250000
1563.243303	228.800000
1565.153417	248.800000
1567.063108	260.450000
1568.972376	290.150000
1570.879409	294.900000
1572.784210	343.200000
1574.690400	394.850000
1576.594359	457.050000
1578.497896	499.700000
1580.401013	597.050000
1582.301900	657.450000
1584.204176	752.600000
1586.104223	781.500000
1588.005659	785.100000
1589.903061	699.500000
1591.800044	595.600000
1593.696609	498.100000
1595.594561	422.500000
1597.486679	366.950000
1599.381991	317.700000
1601.276885	270.600000
1603.169557	239.250000
1605.061812	249.100000
1606.951848	242.450000
1608.841468	217.950000
1610.730673	207.850000
1612.619462	199.450000
1614.506035	218.950000
1616.393995	197.050000
1618.277938	190.150000
1620.163268	186.250000
1622.048185	178.600000
1623.930888	189.050000
1625.814978	188.300000
1627.695056	175.100000
1629.576522	184.050000
1631.455776	163.550000
1633.336418	166.100000
1635.211255	159.350000
1637.091073	149.300000
1638.966887	144.800000
1640.842290	149.100000
1642.719079	157.850000
1644.590071	156.200000
1646.464246	143.850000
1648.334421	154.150000
1650.207777	140.350000
1652.078930	153.950000
1653.947881	147.950000
1655.818218	137.000000
1657.684562	141.450000
1659.552291	145.000000
1661.417821	138.750000
1663.284737	144.550000
1665.147663	124.950000
1667.011976	145.550000
1668.874092	136.450000
1670.735803	134.000000
1672.598899	127.800000
1674.459801	136.100000
1676.318510	134.350000
1678.176815	133.450000
1680.036504	125.850000
1681.890427	124.550000
1683.747523	128.500000
1685.604215	135.900000
1687.456932	116.400000
1689.312820	130.500000
1691.164734	126.700000
1693.016247	117.700000
1694.867359	123.950000
1696.718070	120.650000
1698.568381	123.350000
1700.416508	129.950000
1702.266019	125.200000
1704.109780	122.800000
1705.958492	128.200000
1707.801457	129.800000
1709.647588	121.850000
1711.489758	108.150000
1713.335093	127.700000
1715.174687	130.050000
1717.015665	113.300000
1718.858026	126.250000
1720.696430	131.600000
1722.536218	129.100000
1724.373831	133.600000
1726.211049	137.550000
1728.046093	122.700000
1729.882520	133.900000
1731.716774	121.850000
1733.550635	116.500000
1735.384101	137.000000
1737.213621	127.950000
1739.046301	110.200000
1740.875035	125.900000
1742.706928	123.900000
1744.534878	116.450000
1746.362436	124.800000
1748.189603	124.800000
1750.016378	136.200000
1751.842761	129.550000
1753.665208	123.250000
1755.490810	118.400000
1757.312477	112.300000
1759.135525	112.950000
1760.956413	118.900000
1762.776912	120.300000
1764.598791	129.600000
1766.414971	124.850000
1768.234303	130.250000
1770.049708	119.200000
1771.868264	116.650000
1773.682894	119.700000
1775.497137	111.050000
1777.310994	119.600000
1779.124464	105.150000
1780.935780	131.800000
1782.748478	116.400000
1784.560790	127.350000
1786.369183	112.450000
1788.178958	119.300000
1789.984818	121.100000
1791.793823	125.350000
1793.598915	122.400000
1795.405388	130.400000
1797.211476	128.700000
1799.013655	133.900000
1800.818978	115.750000
1802.620391	132.800000
1804.423186	118.200000
1806.222074	122.950000
1808.022343	114.600000
1809.822230	117.000000
1811.619975	122.150000
1813.417340	126.350000
1815.214324	132.600000
1817.010929	127.350000
1818.805393	116.700000
1820.601238	120.450000
1822.391427	124.550000
1824.186513	117.000000
1825.975946	123.000000
1827.768517	128.700000
1829.558952	123.400000
1831.347252	130.500000
1833.138688	115.950000
1834.924479	119.600000
1836.711649	112.300000
1838.496687	115.800000
1840.284858	116.300000
1842.069145	124.400000
1843.851301	108.750000
1845.634837	138.300000
1847.416244	117.050000
1849.199029	124.400000
1850.977935	109.250000
1852.758219	116.650000
1854.536378	110.950000
1856.315914	115.500000
1858.093326	121.700000
1859.868615	119.250000
1861.645281	108.550000
1863.419825	122.800000
1865.195746	117.600000
1866.966048	123.150000
1868.739477	100.150000
1870.510786	120.500000
1872.281724	99.600000
1874.054040	112.500000
1875.820742	118.350000
1877.590569	113.250000
1879.356533	109.950000
1881.125621	121.100000
1882.890847	124.300000
1884.655705	112.300000
1886.421939	109.600000
1888.184316	122.250000
1889.946324	99.700000
1891.707966	120.300000
1893.469240	126.100000
1895.230148	112.150000
1896.990688	107.800000
1898.749120	104.100000
1900.507185	99.900000
1902.263143	108.100000
1904.020477	101.500000
1905.777446	97.500000
1907.532308	109.300000
1909.285066	119.000000
1911.037459	114.800000
1912.791229	101.150000
1914.542895	107.000000
1916.292458	117.550000
1918.043398	110.100000
1919.793974	110.250000
1921.540712	115.600000
1923.288825	108.450000
1925.034840	108.150000
1926.782229	113.750000
1928.527520	104.350000
1930.270715	119.200000
1932.015284	114.500000
1933.757757	120.850000
1935.499871	102.950000
1937.241624	111.800000
1938.983017	101.000000
1940.722317	106.200000
1942.461258	110.950000
1944.199840	115.600000
1945.936331	102.750000
1947.672463	106.950000
1949.409971	111.150000
1951.143656	111.550000
1952.878716	97.650000
1954.611687	110.050000
1956.344302	121.100000
1958.076560	106.250000
1959.808462	108.300000
1961.538279	118.650000
1963.266010	101.050000
1964.995116	116.650000
1966.723866	101.750000
1968.450533	116.450000
1970.176846	114.400000
1971.904533	114.700000
1973.626683	112.400000
1975.351934	106.500000
1977.073378	111.600000
1978.797922	106.450000
1980.520387	103.600000
1982.239048	108.200000
1983.960809	105.700000
1985.678767	110.350000
1987.398098	107.000000
1989.113630	114.200000
1990.833982	108.700000
1992.550536	105.000000
1994.263293	105.700000
1995.979146	109.300000
1997.692927	113.700000
1999.406358	115.650000
2001.117718	117.650000
2002.830450	112.350000
2004.539392	101.250000
2006.251426	99.900000
2007.957951	101.000000
2009.667569	109.850000
2011.375119	103.800000
2013.082322	119.100000
2014.787459	98.950000
2016.492250	104.550000
2018.198412	93.250000
2019.900791	115.200000
2021.604543	98.100000
2023.306232	105.750000
2025.007575	106.850000
2026.708574	111.100000
2028.407511	95.400000
2030.107820	99.800000
2031.804353	110.850000
2033.502258	104.100000
2035.198105	97.050000
2036.897037	109.750000
2038.590483	108.200000
2040.285300	90.050000
2041.979774	104.850000
2043.670481	100.750000
2045.364270	99.600000
2047.054294	97.800000
2048.745688	101.150000
2050.435028	112.500000
2052.125740	94.650000
2053.812688	96.850000
2055.499296	94.300000
2057.187275	102.350000
2058.871494	98.800000
2060.557083	93.600000
2062.242333	99.400000
2063.925535	98.000000
2065.610107	97.700000
2067.289215	93.950000
2068.973110	97.900000
2070.651543	92.800000
2072.333054	105.200000
2074.010813	101.200000
2075.688236	98.050000
2077.367028	102.300000
2079.043777	84.750000
2080.718485	98.750000
2082.394563	102.800000
2084.068599	98.650000
2085.742301	102.250000
2087.415667	106.300000
2089.086994	97.700000
2090.757987	85.400000
2092.428646	89.950000
2094.098971	97.100000
2095.768962	95.500000
2097.436917	94.900000
2099.104538	88.900000
2100.770126	82.700000
2102.437082	97.550000
2104.102005	90.350000
2105.766596	91.950000
2107.429155	98.200000
2109.093082	89.800000
2110.754978	92.600000
2112.416544	98.200000
2114.077778	90.800000
2115.736983	107.000000
2117.395859	91.100000
2119.054405	93.650000
2120.712620	84.600000
2122.367113	93.050000
2124.024670	92.900000
2125.681897	92.800000
2127.335404	90.950000
2128.990278	90.600000
2130.641433	84.800000
2132.295651	87.050000
2133.946151	93.750000
2135.598019	79.050000
2137.244478	104.600000
2138.895691	94.300000
2140.543192	95.450000
2142.192059	102.700000
2143.838907	92.850000
2145.485430	101.000000
2147.131627	98.050000
2148.774116	99.750000
2150.419662	98.500000
2152.061502	95.750000
2153.706399	95.600000
2155.347591	82.800000
2156.988459	90.200000
2158.629004	82.800000
2160.267536	106.250000
2161.907434	95.450000
2163.543632	107.900000
2165.181196	92.850000
2166.818438	95.200000
2168.453670	89.250000
2170.088580	112.050000
2171.723169	98.700000
2173.357437	98.750000
2174.988011	97.400000
2176.621637	91.400000
2178.251571	90.750000
2179.882870	96.650000
2181.512164	85.400000
2183.141139	93.750000
2184.769794	96.850000
2186.398130	88.800000
2188.024463	86.850000
2189.650478	104.650000
2191.274492	90.450000
2192.899871	93.250000
2194.523249	81.950000
2196.147992	101.050000
2197.769054	84.700000
2199.389799	100.200000
2201.011908	92.150000
2202.632020	96.650000
2204.250136	88.300000
2205.867936	83.000000
2207.485420	86.250000
2209.102590	85.500000
2210.719443	99.400000
2212.335982	94.200000
2213.950528	98.050000
2215.563081	89.650000
2217.176998	92.850000
2218.788924	102.400000
2220.402213	87.550000
2222.013512	94.600000
2223.622821	89.550000
2225.233493	99.700000
2226.842177	92.300000
2228.450549	78.200000
2230.056934	101.750000
2231.664681	102.100000
2233.270443	80.400000
2234.875893	108.750000
2236.479358	82.450000
2238.084186	86.850000
2239.687030	92.550000
2241.287891	92.650000
2242.890115	81.050000
2244.490357	83.800000
2246.091961	87.850000
2247.689912	90.550000
2249.289226	85.900000
2250.886560	101.450000
2252.483586	85.000000
2254.081973	94.050000
2255.676713	91.450000
2257.269475	103.250000
2258.863600	83.500000
2260.459086	82.350000
2262.050927	98.450000
2263.642462	85.550000
2265.235359	86.200000
2266.822946	95.500000
2268.415229	79.850000
2270.002205	84.800000
2271.592210	81.600000
2273.176910	88.150000
2274.766304	93.550000
2276.350395	84.900000
2277.935848	86.850000
2279.519332	92.650000
2281.105841	93.750000
2282.688717	75.700000
2284.271290	91.250000
2285.853559	82.200000
2287.432198	86.400000
2289.013862	82.250000
2290.591897	87.850000
2292.172955	77.450000
2293.750386	78.925000
2295.325854	80.400000
2296.904344	84.550000
2298.479210	86.250000
2300.053775	79.000000
2301.628039	79.550000
2303.202003	87.450000
2304.775667	70.900000
2306.349031	86.050000
2307.918776	82.200000
2309.488222	79.300000
2311.060686	97.800000
2312.627876	84.550000
2314.198083	81.800000
2315.764677	83.200000
2317.332629	93.950000
2318.898627	75.850000
2320.464327	89.550000
2322.029729	84.750000
2323.593178	90.600000
2325.157986	85.300000
2326.719186	102.850000
2328.283399	100.900000
2329.842352	120.050000
2331.404318	103.950000
2332.964334	100.950000
2334.524054	83.150000
2336.081826	85.100000
2337.639302	80.050000
2339.196484	80.900000
2340.751718	86.150000
2342.306659	98.150000
2343.861305	87.050000
2345.415658	87.450000
2346.969717	85.900000
2348.523483	86.500000
2350.075304	83.550000
2351.625182	107.400000
2353.178069	88.800000
2354.725712	87.850000
2356.276364	91.550000
2357.823424	96.250000
2359.371842	77.000000
2360.919969	95.000000
2362.464507	91.550000
2364.010403	82.950000
2365.554361	87.350000
2367.099675	92.950000
2368.641405	76.650000
2370.184493	114.550000
2371.725644	83.850000
2373.266506	92.850000
2374.807079	77.700000
2376.347363	82.100000
2377.887358	91.800000
2379.423774	94.200000
2380.963192	77.200000
2382.499033	88.150000
2384.036231	78.550000
2385.569853	91.900000
2387.106475	78.450000
2388.641167	83.100000
2390.173929	84.000000
2391.706404	84.050000
2393.236951	75.000000
2394.770496	79.850000
2396.298830	86.550000
2397.828520	86.150000
2399.357925	82.300000
2400.887045	92.900000
2402.415879	79.150000
2403.939509	97.400000
2405.467774	75.950000
2406.990837	94.600000
2408.518533	86.100000
2410.039390	83.450000
2411.564879	81.000000
2413.086809	95.800000
2414.610093	85.250000
2416.131457	96.350000
2417.650901	99.800000
2419.171700	90.400000
2420.690580	92.050000
2422.209179	91.250000
2423.725859	86.350000
2425.243895	98.700000
2426.761649	85.050000
2428.275851	102.050000
2429.789774	83.950000
2431.303416	87.050000
2432.818412	94.100000
2434.329861	100.150000
2435.842663	109.450000
2437.353553	117.700000
2438.864164	100.500000
2440.372863	110.750000
2441.884548	92.050000
2443.392690	112.100000
2444.900554	109.350000
2446.408139	107.400000
2447.912185	117.450000
2449.419215	123.250000
2450.924337	124.350000
2452.429182	128.550000
2453.932120	119.150000
2455.434782	110.150000
2456.937167	113.900000
2458.437647	118.150000
2459.939480	118.450000
2461.439408	126.900000
2462.939061	120.400000
2464.438439	109.300000
2465.935914	104.700000
2467.431487	122.400000
2468.930040	115.050000
2470.425065	105.900000
2471.921442	111.700000
2473.414293	103.100000
2474.908497	99.400000
2476.402427	110.400000
2477.892833	96.350000
2479.386217	101.350000
2480.877703	93.400000
2482.367292	102.600000
2483.856609	102.800000
2485.344030	99.400000
2486.834427	99.050000
2488.321306	101.500000
2489.809536	86.700000
2491.294249	89.100000
2492.778692	80.750000
2494.264487	77.600000
2495.748390	94.900000
2497.233643	92.850000
2498.713763	80.250000
2500.196856	94.700000
2501.678058	82.200000
2503.158991	79.600000
2504.638035	78.550000
2506.116810	81.250000
2507.595317	85.050000
2509.073555	86.000000
2510.551526	94.800000
2512.025991	91.450000
2513.503426	82.550000
2514.977356	97.150000
2516.452638	100.900000
2517.927652	88.600000
2519.399165	78.400000
2520.872029	85.600000
2522.343010	78.050000
2523.815341	72.650000
2525.282558	88.600000
2526.752742	78.800000
2528.221045	82.450000
2529.689083	96.300000
2531.156855	83.500000
2532.624363	95.200000
2534.091607	95.500000
2535.555358	77.250000
2537.020459	83.000000
2538.483683	85.650000
2539.948256	87.200000
2541.409341	83.750000
2542.871775	80.600000
2544.333946	77.800000
2545.792630	88.600000
2547.255887	91.150000
2548.714047	85.300000
2550.173557	84.550000
2551.627972	69.500000
2553.086958	91.300000
2554.544072	87.300000
2555.999314	95.250000
2557.454296	79.750000
2558.907408	95.350000
2560.361869	97.450000
2561.814461	87.200000
2563.266793	73.950000
2564.717257	80.650000
2566.170678	88.950000
2567.619016	84.150000
2569.070309	89.150000
2570.519737	90.350000
2571.965692	97.800000
2573.414602	89.750000
2574.860042	78.500000
2576.306829	94.600000
2577.751753	89.400000
2579.196420	82.550000
2580.642434	98.050000
2582.084982	88.150000
2583.528876	91.000000
2584.969306	94.900000
2586.411084	96.100000
2587.851002	85.850000
2589.292267	91.600000
2590.730070	96.150000
2592.170823	76.450000
2593.606514	91.250000
2595.045153	91.650000
2596.481936	97.400000
2597.916863	73.800000
2599.354737	111.100000
2600.787554	93.650000
2602.221718	90.200000
2603.654028	92.400000
2605.087684	91.900000
2606.519487	85.900000
2607.951036	103.400000
2609.382332	96.000000
2610.811777	111.150000
2612.240969	96.400000
2613.668310	101.750000
2615.096998	106.700000
2616.525433	103.750000
2617.950422	102.600000
2619.376756	98.450000
2620.801243	110.550000
2622.227075	114.150000
2623.649463	107.450000
2625.073196	109.750000
2626.495084	120.550000
2627.916721	106.650000
2629.336514	117.300000
2630.757652	114.950000
2632.178540	115.800000
2633.595989	128.500000
2635.016378	128.150000
2636.433330	135.650000
2637.850034	130.750000
2639.266489	150.300000
2640.682696	160.850000
2642.098655	151.850000
2643.512773	169.050000
2644.926643	180.750000
2646.338674	183.800000
2647.752050	201.150000
2649.161996	200.000000
2650.574878	219.250000
2651.984331	238.250000
2653.393538	261.550000
2654.800909	274.450000
2656.211214	292.100000
2657.619683	326.050000
2659.026318	349.000000
2660.432707	373.500000
2661.837262	405.400000
2663.243161	441.700000
2664.647227	507.700000
2666.051048	551.250000
2667.454625	570.250000
2668.856371	632.000000
2670.259460	683.950000
2671.659131	726.950000
2673.060146	767.400000
2674.457745	802.400000
2675.858273	849.300000
2677.255387	870.900000
2678.653844	885.000000
2680.050474	903.200000
2681.446861	902.450000
2682.843006	912.950000
2684.237325	871.850000
2685.632987	873.950000
2687.025240	831.450000
2688.418835	804.850000
2689.810606	770.350000
2691.203720	713.250000
2692.595010	679.750000
2693.984477	620.050000
2695.373704	579.300000
2696.762692	512.800000
2698.153021	476.150000
2699.538367	439.050000
2700.926636	415.600000
2702.313085	369.350000
2703.699295	352.200000
2705.085266	308.300000
2706.467839	293.950000
2707.851754	277.450000
2709.235430	254.100000
2710.618869	251.150000
2711.998912	225.850000
2713.380297	207.300000
2714.759867	187.850000
2716.140777	177.150000
2717.519873	176.600000
2718.897155	158.450000
2720.275778	148.700000
2721.652587	148.950000
2723.029161	136.500000
2724.405499	134.550000
2725.780025	134.750000
2727.155892	127.900000
2728.528373	128.200000
2729.903769	124.200000
2731.274205	120.700000
2732.645981	110.150000
2734.017524	127.850000
2735.387258	107.350000
2736.758332	101.300000
2738.127599	108.500000
2739.496632	102.900000
2740.863859	94.950000
2742.230852	104.200000
2743.597613	106.150000
2744.964141	96.700000
2746.328865	97.450000
2747.693356	77.400000
2749.057616	99.550000
2750.421643	98.550000
2751.785438	88.300000
2753.145861	100.250000
2754.509193	91.600000
2755.867583	96.700000
2757.228883	89.450000
2758.586813	89.250000
2759.947651	77.600000
2761.306689	86.800000
2762.662360	80.800000
2764.020938	93.950000
2765.376149	71.000000
2766.731131	95.250000
2768.084316	81.800000
2769.440408	79.950000
2770.793136	81.300000
2772.145636	81.200000
2773.497907	68.300000
2774.851516	74.750000
2776.201765	74.100000
2777.550219	66.050000
2778.901578	81.600000
2780.249579	71.200000
2781.598917	81.350000
2782.946463	74.000000
2784.293783	80.200000
2785.640875	73.600000
2786.986177	67.550000
2788.331253	72.550000
2789.676103	76.250000
2791.020727	77.750000
2792.361999	91.300000
2793.704608	69.850000
2795.046993	84.050000
2796.389152	80.450000
2797.727962	74.000000
2799.069672	83.550000
2800.408033	61.500000
2801.747732	81.100000
2803.085646	72.900000
2804.421774	83.450000
2805.757680	71.450000
2807.094923	76.250000
2808.430382	72.200000
2809.765617	71.300000
2811.099071	70.550000
2812.433861	79.900000
2813.765311	77.950000
2815.099656	79.350000
2816.429102	82.200000
2817.759886	72.750000
2819.090449	71.700000
2820.419232	63.300000
2821.749351	76.600000
2823.077692	78.300000
2824.405812	69.950000
2825.732154	67.950000
2827.059832	60.500000
2828.384178	67.200000
2829.709860	70.400000
2831.033766	75.900000
2832.357452	58.900000
2833.682474	75.450000
2835.004167	55.300000
2836.325641	77.450000
2837.646895	68.800000
2838.967932	76.450000
2840.287195	70.150000
2841.607794	58.000000
2842.926621	67.300000
2844.245231	75.900000
2845.562069	60.850000
2846.878690	84.900000
2848.195094	70.300000
2849.509728	65.600000
2850.825697	54.200000
2852.138347	76.400000
2853.452331	73.700000
2854.766099	75.450000
2856.079650	65.150000
2857.391435	58.950000
2858.701453	67.500000
2860.012806	69.600000
2861.320844	61.350000
2862.630216	68.450000
2863.939373	66.050000
2865.248316	59.350000
2866.555494	57.900000
2867.860910	61.050000
2869.167659	55.850000
2870.472647	58.600000
2871.777420	73.100000
2873.080433	59.950000
2874.386326	62.000000
2875.687365	66.300000
2876.989737	65.950000
2878.290351	68.650000
2879.592297	57.550000
2880.894031	64.700000
2882.192461	55.050000
2883.492224	70.350000
2884.790230	62.500000
2886.088024	64.050000
2887.384062	69.900000
2888.681432	69.650000
2889.977048	70.250000
2891.272452	65.650000
2892.567645	62.600000
2893.859541	73.100000
2895.154312	70.100000
2896.445788	65.700000
2897.738596	77.450000
2899.031194	73.300000
2900.320497	61.500000
2901.611134	75.800000
2902.900019	60.250000
2904.190236	60.500000
2905.477162	58.050000
2906.765420	68.750000
2908.051929	59.800000
2909.338229	58.250000
2910.624321	60.750000
2911.908665	64.700000
2913.195881	67.950000
2914.478270	61.000000
2915.761991	56.100000
2917.043965	63.350000
2918.325733	51.350000
2919.605755	74.850000
2920.888648	43.100000
2922.169794	64.250000
2923.447659	62.700000
2924.728393	59.800000
2926.005847	58.500000
2927.283094	75.600000
2928.558599	65.950000
2929.836972	61.550000
2931.110531	55.100000
2932.386957	57.000000
2933.661642	56.600000
2934.934586	49.300000
2936.208862	49.250000
2937.481398	48.600000
2938.753729	48.750000
2940.022788	65.300000
2941.294712	56.850000
2942.564898	48.950000
2943.834880	51.450000
2945.104659	55.100000
2946.372702	54.700000
2947.639008	72.050000
2948.905112	58.600000
2950.172547	64.600000
2951.438246	67.300000
2952.703744	74.400000
2953.969039	67.600000
2955.231069	60.300000
2956.494429	52.300000
2957.757588	73.850000
2959.019015	67.950000
2960.281771	59.850000
2961.542795	50.500000
2962.802089	56.600000
2964.061182	45.800000
2965.320076	64.900000
2966.578769	52.000000
2967.837261	59.350000
2969.094025	60.700000
2970.350590	56.300000
2971.605426	48.000000
2972.861592	62.050000
2974.114503	53.900000
2975.368742	54.300000
2976.622783	54.650000
2977.875098	62.000000
2979.127215	60.700000
2980.377607	66.700000
2981.630854	63.250000
2982.879324	57.100000
2984.130649	57.250000
2985.378724	67.350000
2986.626602	59.000000
2987.874284	48.050000
2989.121768	41.300000
2990.367531	51.450000
2991.613098	43.100000
2992.859992	53.200000
2994.103642	53.350000
2995.348619	63.750000
2996.590354	59.250000
2997.834940	46.100000
2999.077807	36.400000
3000.317433	52.050000
3001.559909	59.150000
3002.799145	57.500000
3004.039709	43.650000
3005.278556	59.300000
3006.517209	52.250000
3007.754146	61.950000
3008.992411	58.500000
3010.228960	55.200000
3011.465316	48.300000
3012.701478	56.200000
3013.935926	55.850000
3015.170181	64.900000
3016.404244	56.000000
3017.636593	60.850000
3018.867231	50.500000
3020.100715	54.600000
3021.332488	52.250000
3022.562549	43.950000
3023.792419	52.200000
3025.020579	55.350000
3026.250066	60.700000
3027.477843	53.200000
3028.705429	46.900000
3029.934341	60.400000
3031.158511	46.750000
3032.385524	49.650000
3033.609314	46.500000
3034.834429	52.800000
3036.057839	48.650000
3037.281058	48.650000
3038.502572	35.800000
3039.726927	53.800000
3040.946547	45.700000
3042.167493	55.900000
3043.388249	42.450000
3044.607303	64.300000
3045.827681	45.150000
3047.044843	45.400000
3048.263330	47.050000
3049.480116	51.450000
3050.696713	54.050000
3051.913123	48.300000
3053.126319	52.600000
3054.342353	53.000000
3055.555175	49.200000
3056.770834	44.900000
3057.981771	51.600000
3059.194032	48.750000
3060.406106	50.550000
3061.617994	53.750000
3062.828185	41.150000
3064.038189	55.950000
3065.248007	58.250000
3066.456129	47.150000
3067.664066	38.500000
3068.870307	60.900000
3070.077873	48.200000
3071.283744	46.500000
3072.489430	44.800000
3073.694932	45.650000
3074.898740	42.400000
3076.103872	52.800000
3077.307311	37.900000
3078.509059	52.150000
3079.710622	51.400000
3080.912002	50.050000
3082.113198	37.950000
3083.312704	47.900000
3084.512027	51.450000
3085.712673	59.650000
3086.911629	36.900000
3088.107391	38.150000
3089.305981	36.050000
3090.501378	51.100000
3091.698099	40.150000
3092.891627	50.100000
3094.087983	49.700000
3095.282652	51.350000
3096.474131	39.600000
3097.669942	42.200000
3098.861058	35.950000
3100.053498	47.250000
3101.242749	36.550000
3102.434827	55.100000
3103.625221	33.300000
3104.812429	55.650000
3106.000959	33.950000
3107.190812	48.150000
3108.377480	43.950000
3109.563969	51.200000
3110.750279	39.550000
3111.937910	54.200000
3113.122359	49.750000
3114.305129	52.900000
3115.490721	44.150000
3116.674634	34.900000
3117.856867	42.850000
3119.038923	58.450000
3120.220800	60.750000
3121.402499	55.300000
3122.582521	53.250000
3123.760866	40.700000
3124.942031	40.250000
3126.120021	51.950000
3127.297834	45.700000
3128.475470	46.650000
3129.651431	48.500000
3130.827216	41.800000
3132.004321	38.600000
3133.179753	48.150000
3134.353511	38.850000
3135.525596	39.350000
3136.699003	44.350000
3137.872233	47.150000
3139.043792	47.000000
3140.216671	43.950000
3141.386383	37.000000
3142.557416	43.950000
3143.726778	46.300000
3144.894471	36.200000
3146.064979	34.200000
3147.230829	46.950000
3148.400987	45.150000
3149.566488	50.750000
3150.731816	41.300000
3151.896970	40.900000
3153.061951	35.050000
3154.228251	48.500000
3155.389898	32.300000
3156.552866	54.100000
3157.715661	39.000000
3158.878283	34.550000
3160.039239	39.600000
3161.200024	52.950000
3162.360636	33.950000
3163.519584	40.900000
3164.678361	32.200000
3165.836965	31.400000
3166.995398	41.400000
3168.153660	33.850000
3169.310259	43.300000
3170.465197	43.600000
3171.621454	21.700000
3172.776050	46.850000
3173.930476	30.000000
3175.083242	49.850000
3176.235837	39.900000
3177.388263	43.850000
3178.540518	54.850000
3179.692604	41.300000
3180.841543	38.050000
3181.993289	48.250000
3183.143378	40.450000
3184.291810	33.050000
3185.440072	40.450000
3186.588166	37.850000
3187.736091	38.150000
3188.882360	45.300000
3190.028461	41.900000
3191.172908	43.050000
3192.317187	45.750000
3193.461297	50.550000
3194.606726	39.050000
3195.749016	36.100000
3196.891139	40.500000
3198.033094	52.450000
3199.174882	32.950000
3200.316503	42.850000
3201.454989	43.400000
3202.594792	41.450000
3203.735912	37.050000
3204.873899	41.700000
3206.010235	37.550000
3207.146407	41.400000
3208.283895	37.200000
3209.419735	45.600000
3210.556892	32.550000
3211.689436	34.800000
3212.826261	23.150000
3213.958476	33.350000
3215.092007	41.700000
3216.225373	54.100000
3217.355613	36.400000
3218.488650	37.250000
3219.618561	35.650000
3220.749788	52.550000
3221.877891	40.300000
3223.008790	47.500000
3224.138045	46.500000
3225.265657	41.150000
3226.390146	40.600000
3227.518911	46.800000
3228.644554	35.450000
3229.770034	52.700000
3230.893873	39.350000
3232.020507	57.950000
3233.142543	44.550000
3234.265895	57.250000
3235.389085	59.900000
3236.512112	51.800000
3237.633501	46.300000
3238.754727	56.200000
3239.874315	63.750000
3240.993742	62.550000
3242.111532	58.100000
3243.232113	68.750000
3244.349581	63.900000
3245.466888	73.850000
3246.584035	71.800000
3247.699545	85.450000
3248.816371	70.200000
3249.930087	82.450000
3251.046592	71.550000
3252.161462	63.900000
3253.273224	60.150000
3254.384827	60.400000
3255.497745	59.600000
3256.610503	67.500000
3257.720155	46.500000
3258.831122	57.200000
3259.941930	42.400000
3261.051106	40.350000
3262.158651	45.400000
3263.267511	49.300000
3264.376212	31.900000
3265.481811	49.050000
3266.588725	49.350000
3267.694009	41.300000
3268.800607	31.900000
3269.904105	36.250000
3271.008917	40.000000
3272.113572	47.450000
3273.215129	35.900000
3274.316529	49.150000
3275.419243	52.950000
3276.521801	36.400000
3277.621262	36.350000
3278.723507	30.350000
3279.822656	33.950000
3280.920180	34.450000
3282.017550	32.850000
3283.117701	34.500000
3284.214760	24.950000
3285.311663	44.050000
3286.408411	36.250000
3287.500600	30.900000
3288.597039	30.200000
3289.691855	41.650000
3290.786517	25.800000
3291.879556	37.700000
3292.972442	27.700000
3294.063707	46.000000
3295.156285	39.750000
3296.247243	39.250000
3297.336581	21.700000
3298.425766	37.250000
3299.516263	36.950000
3300.603677	37.000000
3301.690937	36.550000
3302.779510	36.300000
3303.867930	31.000000
3304.951804	30.200000
3306.039919	29.750000
3307.124952	26.850000
3308.208370	30.450000
3309.293100	40.400000
3310.376214	30.200000
3311.460641	42.550000
3312.541989	48.100000
3313.624649	35.000000
3314.705694	37.850000
3315.786589	40.800000
3316.865871	33.200000
3317.945002	31.600000
3319.025445	29.100000
3320.102813	32.950000
3321.181493	33.150000
3322.258561	42.800000
3323.335479	30.550000
3324.410787	28.300000
3325.485945	36.050000
3326.562414	53.450000
3327.635813	42.250000
3328.709062	36.150000
3329.783623	37.000000
3330.856575	36.350000
3331.927918	30.700000
3333.000572	25.750000
3334.070159	35.900000
3335.141058	33.200000
3336.210349	18.250000
3337.280950	35.500000
3338.349946	30.250000
3339.417335	36.900000
3340.483119	27.250000
3341.553129	29.750000
3342.620076	35.150000
3343.683961	28.950000
3344.750613	39.400000
3345.815662	34.200000
3346.879107	19.850000
3347.942406	35.550000
3349.005558	31.900000
3350.068564	22.800000
3351.131424	31.700000
3352.192681	37.400000
3353.250882	38.900000
3354.313304	31.700000
3355.372670	39.500000
3356.431890	20.150000
3357.492419	40.200000
3358.548440	44.900000
3359.607224	29.950000
3360.661501	47.600000
3361.718542	25.100000
3362.773984	37.850000
3363.830736	24.200000
3364.885889	37.000000
3365.939445	38.100000
3366.991404	35.500000
3368.046126	34.800000
3369.097798	49.050000
3370.149327	32.950000
3371.202164	43.250000
3372.251954	40.150000
3373.303053	47.050000
3374.351105	34.400000
3375.401918	37.600000
3376.449685	32.850000
3377.497310	40.000000
3378.544793	29.250000
3379.590683	45.750000
3380.637881	39.150000
3381.682037	40.600000
3382.728951	31.750000
3383.774273	29.900000
3384.816554	24.250000
3385.858694	49.500000
3386.902143	36.650000
3387.945450	35.700000
3388.987167	28.400000
3390.028744	43.000000
3391.070179	35.350000
3392.110026	34.250000
3393.148284	30.700000
3394.187850	44.650000
3395.227276	31.450000
3396.265114	25.400000
3397.301365	30.900000
3398.337477	31.150000
3399.374895	32.250000
3400.409281	38.200000
3401.444975	22.200000
3402.480529	35.700000
3403.513052	33.100000
3404.548327	34.650000
3405.580573	32.750000
3406.612680	30.450000
3407.643203	31.400000
3408.675033	25.250000
3409.706725	12.900000
3410.735389	40.650000
3411.763916	30.750000
3412.793749	27.350000
3413.823445	36.100000
3414.850115	26.950000
3415.878091	32.050000
3416.903044	28.000000
3417.930746	29.850000
3418.955424	32.800000
3419.981409	30.900000
3421.005815	36.600000
3422.030084	32.500000
3423.052774	34.800000
3424.075328	34.000000
3425.099188	31.550000
3426.120028	24.150000
3427.140732	33.850000
3428.162742	33.400000
3429.181734	32.450000
3430.200591	21.600000
3431.220754	30.900000
3432.237900	26.800000
