-117.018713	-3.550000
-114.349113	3.450000
-111.682448	1.150000
-109.016535	1.250000
-106.353555	4.350000
-103.689144	5.550000
-101.027664	0.900000
-98.364755	5.600000
-95.706952	-3.500000
-93.047720	-4.400000
-90.389236	-7.100000
-87.733677	-6.500000
-85.076688	-2.400000
-82.424798	-13.450000
-79.771478	7.100000
-77.121077	8.950000
-74.469248	5.400000
-71.822509	2.100000
-69.174340	-2.350000
-66.526914	-17.150000
-63.882403	4.100000
-61.236462	8.700000
-58.595603	-6.050000
-55.953315	8.050000
-53.313936	-3.850000
-50.673128	3.000000
-48.033059	-5.900000
-45.398064	8.600000
-42.761639	-1.150000
-40.128117	5.050000
-37.493167	3.250000
-34.863283	5.000000
-32.229805	15.900000
-29.601390	2.700000
-26.973709	15.200000
-24.344599	4.450000
-21.720547	6.300000
-19.092904	19.050000
-16.470316	13.850000
-13.848458	40.100000
-11.227331	64.600000
-8.606935	128.750000
-5.989426	461.000000
-3.370489	1457.550000
-0.754438	4728.000000
1.860886	6467.450000
4.475481	3711.350000
7.087195	427.050000
9.700337	76.150000
12.308445	44.750000
14.920134	19.350000
17.526793	18.450000
20.134881	20.150000
22.742243	2.750000
25.344581	6.150000
27.950498	5.850000
30.551392	7.300000
33.153714	-1.250000
35.751018	11.500000
38.351899	10.450000
40.947764	-3.700000
43.545057	-9.900000
46.141632	-0.550000
48.733197	-2.100000
51.326190	-0.300000
53.916322	-3.750000
56.507881	10.450000
59.096582	-3.050000
61.686709	-4.400000
64.271837	0.450000
66.858393	-0.400000
69.444235	-6.700000
72.027222	0.000000
74.611637	-6.700000
77.188923	4.300000
79.769775	7.800000
82.347778	-4.000000
84.925070	3.800000
87.503790	3.250000
90.077527	5.100000
92.652691	9.350000
95.225012	2.750000
97.796626	5.350000
100.365399	-0.200000
102.935599	6.700000
105.502960	12.800000
108.071748	11.600000
110.637699	2.300000
113.200815	3.250000
115.767487	6.650000
118.324937	24.850000
120.888073	24.200000
123.446250	33.250000
126.007981	40.200000
128.564755	61.850000
131.122955	85.900000
133.676203	120.300000
136.228753	180.100000
138.784853	264.300000
141.336005	346.100000
143.886460	450.050000
146.436217	526.000000
148.983155	570.150000
151.529398	602.600000
154.077066	627.450000
156.624038	632.450000
159.166075	656.850000
161.707418	638.950000
164.248068	637.000000
166.790144	635.100000
169.329408	618.950000
171.865863	626.950000
174.401628	632.450000
176.938818	638.950000
179.475317	607.400000
182.009010	624.250000
184.539899	615.450000
187.070100	611.550000
189.601727	606.600000
192.130552	599.350000
194.656578	614.300000
197.181918	595.200000
199.708683	605.350000
202.232652	611.000000
204.755936	607.150000
207.278534	612.950000
209.798340	598.250000
212.317463	590.000000
214.835903	607.050000
217.355768	613.500000
219.868630	619.250000
222.385024	632.150000
224.900737	652.700000
227.411559	665.950000
229.923806	680.850000
232.433270	700.400000
234.942056	679.450000
237.450164	663.400000
239.959696	671.800000
242.464347	668.850000
244.968322	673.150000
247.473721	671.900000
249.974245	683.850000
252.478292	677.100000
254.975369	667.700000
257.475969	679.000000
259.973797	675.250000
262.470952	682.000000
264.967434	676.550000
267.459053	680.150000
269.954192	672.800000
272.446564	685.450000
274.938266	674.650000
277.427205	717.300000
279.917567	717.300000
282.405168	691.800000
284.890009	725.500000
287.378365	707.100000
289.859781	723.900000
292.344711	706.450000
294.824796	758.400000
297.308393	756.500000
299.787147	779.950000
302.267324	799.700000
304.744750	799.000000
307.221512	771.450000
309.697610	747.800000
312.170960	734.050000
314.643649	714.050000
317.115676	710.500000
319.587041	720.850000
322.055663	729.600000
324.523625	722.000000
326.993010	681.500000
329.457572	646.600000
331.925638	641.100000
334.388883	636.550000
336.851472	636.450000
339.313404	627.200000
341.774679	623.600000
344.233219	609.400000
346.693183	588.850000
349.150413	574.500000
351.606989	595.000000
354.062911	579.900000
356.516103	571.400000
358.970718	563.800000
361.420531	546.100000
363.873840	549.300000
366.322350	539.550000
368.770210	533.100000
371.219492	534.700000
373.663979	524.500000
376.109890	518.350000
378.555150	504.800000
380.997692	500.850000
383.439586	534.500000
385.880832	479.300000
388.319364	489.150000
390.759316	487.950000
393.196555	478.500000
395.631083	468.150000
398.069097	476.750000
400.502336	495.050000
402.936995	473.800000
405.366882	457.600000
407.800254	466.450000
410.228856	458.700000
412.656816	449.200000
415.086198	454.000000
417.510814	454.900000
419.936852	434.750000
422.362249	423.300000
424.787006	433.000000
427.207004	430.150000
429.628424	429.450000
432.047148	424.800000
434.467292	419.050000
436.884741	419.850000
439.303610	392.600000
441.719785	387.600000
444.131214	373.150000
446.546119	379.500000
448.958335	343.700000
451.369916	339.300000
453.780863	334.050000
456.189123	328.450000
458.596752	309.450000
461.003748	304.400000
463.410113	308.400000
465.813795	307.700000
468.216847	301.950000
470.619269	306.100000
473.021061	307.550000
475.420175	319.400000
477.820709	316.300000
480.220614	321.300000
482.615797	311.650000
485.014446	334.000000
487.408374	359.700000
489.801677	376.500000
492.194355	405.400000
494.586407	437.350000
496.979877	491.500000
499.368635	570.800000
501.754727	723.600000
504.142239	911.750000
506.529128	1245.150000
508.913352	1821.050000
511.298996	2658.550000
513.681978	3843.250000
516.062299	5234.150000
518.444039	6339.150000
520.823120	6435.950000
523.203619	5800.300000
525.581462	4754.850000
527.956648	3863.350000
530.331218	3179.600000
532.707205	2666.550000
535.080540	2237.550000
537.455292	2019.000000
539.825358	1784.600000
542.194810	1631.450000
544.565679	1470.600000
546.931867	1399.350000
549.299474	1275.400000
551.664435	1174.900000
554.028784	1122.550000
556.392519	1047.250000
558.757672	1004.250000
561.118153	971.950000
563.480052	926.700000
565.839310	883.300000
568.195930	848.400000
570.555996	810.700000
572.909370	768.600000
575.266189	760.450000
577.620373	732.100000
579.973948	706.300000
582.326916	674.000000
584.677251	679.100000
587.029004	651.000000
589.374080	636.000000
591.724619	628.550000
594.068486	634.800000
596.417814	593.700000
598.762493	600.250000
601.104548	583.050000
603.448020	561.000000
605.788869	573.400000
608.129115	557.650000
610.466741	580.050000
612.807802	614.200000
615.144226	648.850000
617.482066	678.150000
619.817289	673.850000
622.149895	644.700000
624.483919	612.500000
626.815328	589.350000
629.146139	586.400000
631.476352	560.700000
633.805968	556.950000
636.130960	555.800000
638.461394	570.700000
640.787207	582.400000
643.110412	567.150000
645.435034	563.900000
647.757050	536.600000
650.078472	550.400000
652.397291	532.950000
654.717527	534.500000
657.037169	527.750000
659.354210	522.700000
661.670659	538.950000
663.984510	517.800000
666.299777	499.100000
668.612447	507.800000
670.926532	507.150000
673.236017	511.050000
675.546918	500.150000
677.855226	486.600000
680.162946	487.000000
682.472080	477.800000
684.776622	459.700000
687.080578	448.300000
689.383948	433.000000
691.688732	429.850000
693.988929	413.450000
696.290542	428.700000
698.591569	425.100000
700.888015	405.650000
703.185876	408.650000
705.483153	398.000000
707.779847	386.850000
710.071965	396.450000
712.367494	382.750000
714.658449	391.750000
716.950819	379.800000
719.240614	391.050000
721.529828	372.450000
723.818463	392.050000
726.104525	399.550000
728.392002	388.350000
730.676907	369.850000
732.961235	375.250000
735.242994	377.200000
737.526167	370.600000
739.808763	368.800000
742.086803	372.350000
744.366257	378.050000
746.645136	364.700000
748.923440	384.250000
751.197193	372.500000
753.472361	380.250000
755.746955	381.900000
758.018990	381.500000
760.292438	377.900000
762.563328	382.150000
764.831662	367.200000
767.101409	385.350000
769.368601	384.700000
771.635224	369.100000
773.901276	379.950000
776.164777	381.900000
778.429691	375.100000
780.694035	371.300000
782.953850	379.400000
785.215077	392.850000
787.475737	380.250000
789.733851	366.150000
791.989420	373.650000
794.248379	379.750000
796.500840	385.300000
798.758668	362.500000
801.011977	377.150000
803.262746	375.350000
805.514927	383.650000
807.764569	374.500000
810.015623	378.350000
812.262167	383.150000
814.510122	388.800000
816.755543	381.050000
819.002375	361.950000
821.248646	367.500000
823.490412	377.900000
825.735562	360.200000
827.974239	380.100000
830.216298	350.950000
832.453859	364.200000
834.692832	344.950000
836.929278	359.550000
839.167135	354.050000
841.402467	357.600000
843.635276	356.000000
845.869495	356.750000
848.101193	334.350000
850.332336	336.500000
852.562924	325.950000
854.792958	340.050000
857.022438	332.750000
859.247436	343.900000
861.475808	345.500000
863.699702	335.700000
865.925007	336.100000
868.145836	325.100000
870.370037	327.100000
872.589765	343.250000
874.810903	314.850000
877.031491	328.500000
879.249570	332.250000
881.469058	343.600000
883.684080	326.150000
885.898554	324.300000
888.112481	322.350000
890.325861	325.250000
892.538693	318.150000
894.750978	338.600000
896.960762	327.350000
899.170000	326.700000
901.378693	319.700000
903.584886	322.800000
905.792489	322.750000
907.997595	332.150000
910.202157	350.150000
912.404224	339.250000
914.607700	360.400000
916.808682	363.600000
919.009122	355.200000
921.210971	370.750000
923.406429	370.850000
925.605245	400.400000
927.799624	424.100000
929.997360	475.150000
932.190660	544.550000
934.385369	610.150000
936.577591	661.250000
938.769276	714.500000
940.960423	771.550000
943.149087	789.850000
945.337215	794.300000
947.522861	784.450000
949.711861	771.300000
951.896437	780.850000
954.080478	786.250000
956.267869	792.650000
958.446956	799.050000
960.629394	812.400000
962.811298	817.150000
964.990727	812.850000
967.167684	831.250000
969.346049	840.750000
971.525821	823.650000
973.699244	825.400000
975.876013	834.750000
978.048375	838.600000
980.222145	813.250000
982.391511	783.650000
984.564221	774.700000
986.734466	739.950000
988.904181	680.200000
991.073368	602.600000
993.238158	556.300000
995.406290	511.900000
997.570026	464.950000
999.735170	463.150000
1001.897854	417.900000
1004.060013	397.750000
1006.219715	388.600000
1008.378892	395.850000
1010.539476	363.900000
1012.697605	379.300000
1014.855211	341.150000
1017.012293	341.300000
1019.168851	313.200000
1021.321030	331.250000
1023.474616	303.800000
1025.627680	287.450000
1027.778295	296.050000
1029.930316	275.800000
1032.077965	279.700000
1034.228945	277.000000
1036.375554	273.350000
1038.521644	250.300000
1040.667216	263.450000
1042.814193	254.700000
1044.954881	246.950000
1047.098898	247.250000
1049.240476	240.900000
1051.381536	253.000000
1053.524002	258.850000
1055.660187	254.350000
1057.799699	242.450000
1059.934855	258.900000
1062.073336	256.400000
1064.207464	254.700000
1066.341078	260.600000
1068.476096	252.800000
1070.606766	251.900000
1072.738840	258.150000
1074.868485	252.600000
1076.997617	259.600000
1079.126239	260.150000
1081.254349	252.550000
1083.380033	254.250000
1085.505207	256.800000
1087.631785	247.450000
1089.754025	264.050000
1091.877670	246.250000
1093.996980	257.800000
1096.121519	261.900000
1098.239814	249.650000
1100.359512	249.800000
1102.476793	254.350000
1104.593566	249.850000
1106.709833	259.150000
1108.823685	243.050000
1110.938940	255.850000
1113.049873	246.100000
1115.164118	242.400000
1117.274042	250.900000
1119.385370	231.650000
1121.496193	238.300000
1123.602700	241.900000
1125.712516	231.600000
1127.818019	232.850000
1129.924924	233.250000
1132.025614	229.050000
1134.131516	227.800000
1136.233109	223.100000
1138.336105	231.050000
1140.438600	220.650000
1142.534888	235.850000
1144.636383	231.200000
1146.733576	241.900000
1148.830271	239.950000
1150.926467	212.800000
1153.022165	240.950000
1155.117366	232.500000
1157.210170	232.000000
1159.304376	221.850000
1161.392391	238.150000
1163.485604	228.050000
1165.572630	230.650000
1167.662954	230.200000
1169.748990	225.500000
1171.838324	216.050000
1173.921477	226.950000
1176.006033	229.550000
1178.091990	227.450000
1180.173665	220.650000
1182.256741	209.250000
1184.337432	221.100000
1186.417632	239.250000
1188.497340	218.150000
1190.576557	218.550000
1192.653391	218.850000
1194.727845	214.500000
1196.805591	217.000000
1198.879066	199.450000
1200.953943	224.950000
1203.024552	219.900000
1205.096562	231.200000
1207.166196	212.950000
1209.237231	211.750000
1211.307779	216.300000
1213.374065	213.150000
1215.441752	212.750000
1217.507066	215.900000
1219.573781	223.350000
1221.636241	218.850000
1223.701985	222.600000
1225.763475	203.900000
1227.826366	228.000000
1229.886888	212.650000
1231.946928	220.200000
1234.006484	218.500000
1236.063676	221.650000
1238.120385	216.000000
1240.174732	224.850000
1242.232360	212.150000
1244.287624	214.400000
1246.338649	214.450000
1248.391073	216.400000
1250.443017	216.150000
1252.492603	205.700000
1254.541710	221.150000
1256.590338	231.600000
1258.638488	223.000000
1260.686160	228.000000
1262.729601	209.600000
1264.776318	213.600000
1266.820681	213.400000
1268.864568	209.000000
1270.906103	203.650000
1272.945289	209.050000
1274.987748	205.950000
1277.025984	212.400000
1279.065619	209.800000
1281.104778	214.200000
1283.139720	222.000000
1285.176060	211.450000
1287.210056	204.100000
1289.245449	201.500000
1291.276629	215.400000
1293.309208	212.450000
1295.341315	216.150000
1297.371081	206.350000
1299.402244	202.950000
1301.429200	217.450000
1303.457555	199.900000
1305.481704	196.750000
1307.509119	192.800000
1309.532331	199.000000
1311.556941	196.600000
1313.579216	197.100000
1315.602889	204.750000
1317.624229	214.750000
1319.645102	198.850000
1321.665507	203.150000
1323.681719	207.750000
1325.699328	199.050000
1327.714609	217.000000
1329.733149	188.050000
1331.747499	219.200000
1333.759524	220.700000
1335.774807	236.650000
1337.785904	236.950000
1339.798397	245.450000
1341.806708	254.050000
1343.818275	245.900000
1345.823803	252.200000
1347.832586	252.550000
1349.837191	231.900000
1351.845050	231.250000
1353.852447	234.500000
1355.853813	210.850000
1357.856575	208.600000
1359.858878	216.650000
1361.860721	199.950000
1363.862104	201.350000
1365.861173	211.900000
1367.859785	205.000000
1369.857937	195.300000
1371.855632	192.250000
1373.849164	192.600000
1375.844091	199.350000
1377.838562	200.700000
1379.832576	202.200000
1381.824283	192.150000
1383.815534	185.950000
1385.804480	202.000000
1387.794821	204.950000
1389.784708	193.350000
1391.772290	205.300000
1393.759419	201.300000
1395.744246	188.250000
1397.730468	201.050000
1399.714389	195.050000
1401.697858	203.950000
1403.680875	194.150000
1405.661594	191.600000
1407.643707	195.350000
1409.623523	188.250000
1411.602889	184.950000
1413.578116	197.950000
1415.556581	175.450000
1417.532753	185.200000
1419.508475	192.550000
1421.483749	178.050000
1423.456731	170.400000
1425.429265	180.800000
1427.401351	187.850000
1429.372990	177.800000
1431.340500	185.700000
1433.313084	184.400000
1435.277862	188.800000
1437.247713	180.750000
1439.213439	186.200000
1441.180559	182.850000
1443.145395	184.050000
1445.106111	182.100000
1447.071895	180.700000
1449.031724	177.650000
1450.992947	172.500000
1452.955561	179.900000
1454.914061	175.850000
1456.872119	186.500000
1458.829735	189.300000
1460.786908	178.950000
1462.741806	171.600000
1464.698097	178.200000
1466.652113	168.700000
1468.605688	172.850000
1470.556991	162.000000
1472.509686	166.600000
1474.460110	163.900000
1476.410095	166.350000
1478.359641	171.600000
1480.306918	160.650000
1482.251927	165.700000
1484.198329	166.050000
1486.144293	165.900000
1488.089820	162.600000
1490.033081	179.350000
1491.975906	177.000000
1493.916468	163.400000
1495.858422	171.900000
1497.798113	167.200000
1499.737369	161.600000
1501.676191	177.900000
1503.612753	150.200000
1505.550706	147.600000
1507.486400	172.200000
1509.421661	178.450000
1511.354665	166.350000
1513.287237	164.200000
1515.219377	173.700000
1517.151085	166.050000
1519.080540	178.950000
1521.011385	175.200000
1522.941798	167.550000
1524.868139	175.750000
1526.795870	186.750000
1528.721352	160.350000
1530.646404	170.900000
1532.571027	177.300000
1534.495220	168.700000
1536.417167	198.000000
1538.340504	178.150000
1540.261594	179.000000
1542.180440	197.900000
1544.100676	181.800000
1546.018668	178.800000
1547.936234	185.300000
1549.851559	187.200000
1551.768273	189.250000
1553.680932	225.050000
1555.596794	216.600000
1557.510418	214.850000
1559.421803	228.200000
1561.334578	234.350000
1563.243303	230.700000
1565.153417	250.000000
1567.063108	263.400000
1568.972376	283.850000
1570.879409	304.000000
1572.784210	342.350000
1574.690400	378.250000
1576.594359	422.050000
1578.497896	482.200000
1580.401013	565.350000
1582.301900	622.100000
1584.204176	681.200000
1586.104223	703.950000
1588.005659	689.800000
1589.903061	647.400000
1591.800044	563.700000
1593.696609	472.050000
1595.594561	390.150000
1597.486679	350.600000
1599.381991	296.000000
1601.276885	266.750000
1603.169557	247.650000
1605.061812	223.950000
1606.951848	240.700000
1608.841468	207.150000
1610.730673	194.850000
1612.619462	202.200000
1614.506035	199.050000
1616.393995	192.600000
1618.277938	183.050000
1620.163268	190.150000
1622.048185	186.800000
1623.930888	188.650000
1625.814978	171.600000
1627.695056	183.300000
1629.576522	191.500000
1631.455776	161.200000
1633.336418	167.450000
1635.211255	167.550000
1637.091073	149.750000
1638.966887	140.600000
1640.842290	154.650000
1642.719079	160.000000
1644.590071	159.150000
1646.464246	147.950000
1648.334421	154.050000
1650.207777	136.100000
1652.078930	154.400000
1653.947881	145.500000
1655.818218	134.100000
1657.684562	133.550000
1659.552291	128.450000
1661.417821	130.600000
1663.284737	128.900000
1665.147663	139.600000
1667.011976	144.050000
1668.874092	127.500000
1670.735803	129.050000
1672.598899	129.500000
1674.459801	132.150000
1676.318510	132.250000
1678.176815	129.850000
1680.036504	134.350000
1681.890427	119.400000
1683.747523	132.850000
1685.604215	145.750000
1687.456932	120.500000
1689.312820	130.750000
1691.164734	132.250000
1693.016247	125.350000
1694.867359	118.750000
1696.718070	129.600000
1698.568381	117.650000
1700.416508	126.950000
1702.266019	115.600000
1704.109780	129.550000
1705.958492	126.250000
1707.801457	128.450000
1709.647588	131.300000
1711.489758	115.750000
1713.335093	118.950000
1715.174687	118.050000
1717.015665	134.900000
1718.858026	120.750000
1720.696430	134.700000
1722.536218	128.050000
1724.373831	135.500000
1726.211049	128.800000
1728.046093	133.400000
1729.882520	126.500000
1731.716774	129.400000
1733.550635	114.850000
1735.384101	137.500000
1737.213621	126.850000
1739.046301	113.700000
1740.875035	131.600000
1742.706928	123.200000
1744.534878	125.400000
1746.362436	114.900000
1748.189603	124.450000
1750.016378	125.550000
1751.842761	121.200000
1753.665208	123.700000
1755.490810	115.850000
1757.312477	110.350000
1759.135525	125.400000
1760.956413	112.450000
1762.776912	115.650000
1764.598791	121.350000
1766.414971	125.500000
1768.234303	118.450000
1770.049708	123.700000
1771.868264	122.100000
1773.682894	126.750000
1775.497137	112.800000
1777.310994	119.450000
1779.124464	104.350000
1780.935780	116.800000
1782.748478	128.650000
1784.560790	130.900000
1786.369183	112.500000
1788.178958	117.850000
1789.984818	124.650000
1791.793823	124.700000
1793.598915	128.750000
1795.405388	131.200000
1797.211476	117.150000
1799.013655	121.500000
1800.818978	118.300000
1802.620391	129.200000
1804.423186	125.250000
1806.222074	126.550000
1808.022343	112.400000
1809.822230	113.150000
1811.619975	125.500000
1813.417340	119.400000
1815.214324	120.900000
1817.010929	126.550000
1818.805393	118.100000
1820.601238	124.600000
1822.391427	120.900000
1824.186513	130.050000
1825.975946	126.200000
1827.768517	114.700000
1829.558952	109.550000
1831.347252	124.100000
1833.138688	112.500000
1834.924479	122.850000
1836.711649	106.550000
1838.496687	122.350000
1840.284858	117.200000
1842.069145	127.550000
1843.851301	117.450000
1845.634837	105.750000
1847.416244	119.300000
1849.199029	115.700000
1850.977935	118.850000
1852.758219	113.500000
1854.536378	114.950000
1856.315914	118.250000
1858.093326	124.000000
1859.868615	110.200000
1861.645281	107.550000
1863.419825	122.050000
1865.195746	109.800000
1866.966048	119.900000
1868.739477	112.900000
1870.510786	118.500000
1872.281724	103.800000
1874.054040	127.900000
1875.820742	129.150000
1877.590569	124.150000
1879.356533	124.550000
1881.125621	114.800000
1882.890847	117.800000
1884.655705	119.350000
1886.421939	119.650000
1888.184316	117.350000
1889.946324	110.400000
1891.707966	119.400000
1893.469240	108.650000
1895.230148	109.800000
1896.990688	117.300000
1898.749120	119.550000
1900.507185	104.300000
1902.263143	104.550000
1904.020477	107.900000
1905.777446	109.750000
1907.532308	108.850000
1909.285066	111.800000
1911.037459	124.600000
1912.791229	103.200000
1914.542895	108.450000
1916.292458	116.750000
1918.043398	110.750000
1919.793974	104.550000
1921.540712	111.850000
1923.288825	107.300000
1925.034840	106.650000
1926.782229	116.050000
1928.527520	113.150000
1930.270715	115.750000
1932.015284	112.100000
1933.757757	114.000000
1935.499871	116.600000
1937.241624	112.600000
1938.983017	104.900000
1940.722317	101.050000
1942.461258	109.850000
1944.199840	115.850000
1945.936331	113.400000
1947.672463	109.275000
1949.409971	105.150000
1951.143656	103.450000
1952.878716	105.250000
1954.611687	108.950000
1956.344302	114.450000
1958.076560	114.100000
1959.808462	117.400000
1961.538279	114.550000
1963.266010	115.500000
1964.995116	117.600000
1966.723866	105.850000
1968.450533	120.000000
1970.176846	119.950000
1971.904533	111.050000
1973.626683	99.850000
1975.351934	112.500000
1977.073378	109.900000
1978.797922	108.050000
1980.520387	113.850000
1982.239048	108.650000
1983.960809	114.850000
1985.678767	107.450000
1987.398098	104.800000
1989.113630	123.550000
1990.833982	111.750000
1992.550536	114.800000
1994.263293	117.200000
1995.979146	109.850000
1997.692927	111.850000
1999.406358	108.500000
2001.117718	121.300000
2002.830450	114.300000
2004.539392	99.300000
2006.251426	109.900000
2007.957951	118.450000
2009.667569	107.200000
2011.375119	98.650000
2013.082322	123.350000
2014.787459	97.850000
2016.492250	119.300000
2018.198412	113.050000
2019.900791	104.350000
2021.604543	99.300000
2023.306232	103.100000
2025.007575	109.650000
2026.708574	100.400000
2028.407511	107.500000
2030.107820	105.700000
2031.804353	108.750000
2033.502258	100.500000
2035.198105	95.850000
2036.897037	110.800000
2038.590483	99.050000
2040.285300	97.450000
2041.979774	107.400000
2043.670481	93.600000
2045.364270	100.150000
2047.054294	95.900000
2048.745688	98.250000
2050.435028	105.600000
2052.125740	99.850000
2053.812688	99.250000
2055.499296	96.400000
2057.187275	111.900000
2058.871494	104.700000
2060.557083	104.950000
2062.242333	100.100000
2063.925535	102.100000
2065.610107	98.100000
2067.289215	92.850000
2068.973110	99.150000
2070.651543	104.800000
2072.333054	89.850000
2074.010813	105.750000
2075.688236	89.150000
2077.367028	97.300000
2079.043777	85.000000
2080.718485	116.050000
2082.394563	99.200000
2084.068599	90.600000
2085.742301	100.450000
2087.415667	99.350000
2089.086994	97.150000
2090.757987	87.600000
2092.428646	97.600000
2094.098971	95.450000
2095.768962	102.150000
2097.436917	98.950000
2099.104538	87.900000
2100.770126	94.100000
2102.437082	97.950000
2104.102005	103.550000
2105.766596	89.550000
2107.429155	98.800000
2109.093082	91.900000
2110.754978	99.300000
2112.416544	110.950000
2114.077778	96.650000
2115.736983	102.150000
2117.395859	93.100000
2119.054405	98.700000
2120.712620	90.900000
2122.367113	87.000000
2124.024670	100.950000
2125.681897	99.650000
2127.335404	100.050000
2128.990278	89.350000
2130.641433	95.000000
2132.295651	96.550000
2133.946151	87.150000
2135.598019	95.650000
2137.244478	86.550000
2138.895691	107.700000
2140.543192	100.150000
2142.192059	101.150000
2143.838907	95.150000
2145.485430	97.550000
2147.131627	100.550000
2148.774116	102.150000
2150.419662	103.950000
2152.061502	92.350000
2153.706399	94.750000
2155.347591	89.250000
2156.988459	93.650000
2158.629004	87.400000
2160.267536	103.150000
2161.907434	102.550000
2163.543632	105.150000
2165.181196	97.100000
2166.818438	90.850000
2168.453670	90.900000
2170.088580	96.500000
2171.723169	93.650000
2173.357437	87.300000
2174.988011	101.350000
2176.621637	94.300000
2178.251571	90.600000
2179.882870	102.650000
2181.512164	92.600000
2183.141139	100.600000
2184.769794	85.100000
2186.398130	97.500000
2188.024463	89.900000
2189.650478	97.500000
2191.274492	87.700000
2192.899871	87.200000
2194.523249	85.350000
2196.147992	94.600000
2197.769054	97.500000
2199.389799	96.550000
2201.011908	94.050000
2202.632020	104.000000
2204.250136	101.050000
2205.867936	91.100000
2207.485420	84.600000
2209.102590	97.000000
2210.719443	100.150000
2212.335982	101.850000
2213.950528	102.500000
2215.563081	91.500000
2217.176998	104.500000
2218.788924	94.900000
2220.402213	83.650000
2222.013512	100.900000
2223.622821	84.900000
2225.233493	96.000000
2226.842177	93.300000
2228.450549	71.200000
2230.056934	88.950000
2231.664681	105.000000
2233.270443	92.300000
2234.875893	105.800000
2236.479358	90.050000
2238.084186	97.200000
2239.687030	89.200000
2241.287891	98.650000
2242.890115	91.400000
2244.490357	86.050000
2246.091961	97.850000
2247.689912	97.850000
2249.289226	103.800000
2250.886560	88.550000
2252.483586	96.450000
2254.081973	90.000000
2255.676713	92.050000
2257.269475	108.500000
2258.863600	83.600000
2260.459086	91.450000
2262.050927	88.100000
2263.642462	79.900000
2265.235359	88.550000
2266.822946	91.200000
2268.415229	84.600000
2270.002205	77.350000
2271.592210	87.950000
2273.176910	92.800000
2274.766304	81.100000
2276.350395	85.700000
2277.935848	88.300000
2279.519332	93.850000
2281.105841	94.600000
2282.688717	76.050000
2284.271290	90.350000
2285.853559	78.100000
2287.432198	81.800000
2289.013862	90.200000
2290.591897	88.800000
2292.172955	78.150000
2293.750386	83.125000
2295.325854	88.100000
2296.904344	95.800000
2298.479210	91.100000
2300.053775	82.100000
2301.628039	89.400000
2303.202003	89.300000
2304.775667	85.500000
2306.349031	80.250000
2307.918776	83.900000
2309.488222	89.850000
2311.060686	93.550000
2312.627876	89.300000
2314.198083	84.150000
2315.764677	83.200000
2317.332629	96.350000
2318.898627	78.000000
2320.464327	90.300000
2322.029729	85.750000
2323.593178	98.950000
2325.157986	89.600000
2326.719186	99.050000
2328.283399	108.700000
2329.842352	126.200000
2331.404318	103.850000
2332.964334	104.300000
2334.524054	85.200000
2336.081826	85.300000
2337.639302	95.900000
2339.196484	88.900000
2340.751718	95.450000
2342.306659	85.300000
2343.861305	84.250000
2345.415658	87.300000
2346.969717	78.500000
2348.523483	80.000000
2350.075304	96.950000
2351.625182	89.550000
2353.178069	86.050000
2354.725712	89.000000
2356.276364	96.100000
2357.823424	89.250000
2359.371842	87.800000
2360.919969	98.900000
2362.464507	84.250000
2364.010403	71.700000
2365.554361	99.000000
2367.099675	79.900000
2368.641405	88.500000
2370.184493	100.850000
2371.725644	84.800000
2373.266506	86.400000
2374.807079	87.850000
2376.347363	98.000000
2377.887358	87.150000
2379.423774	93.950000
2380.963192	94.400000
2382.499033	90.350000
2384.036231	92.350000
2385.569853	82.750000
2387.106475	72.650000
2388.641167	88.150000
2390.173929	89.150000
2391.706404	77.800000
2393.236951	74.200000
2394.770496	87.600000
2396.298830	91.000000
2397.828520	81.400000
2399.357925	93.000000
2400.887045	79.250000
2402.415879	89.100000
2403.939509	103.250000
2405.467774	80.000000
2406.990837	109.600000
2408.518533	99.300000
2410.039390	80.100000
2411.564879	90.050000
2413.086809	78.800000
2414.610093	90.700000
2416.131457	101.000000
2417.650901	90.000000
2419.171700	93.550000
2420.690580	94.300000
2422.209179	86.700000
2423.725859	95.100000
2425.243895	90.650000
2426.761649	82.050000
2428.275851	100.750000
2429.789774	95.500000
2431.303416	100.800000
2432.818412	103.500000
2434.329861	102.550000
2435.842663	111.600000
2437.353553	114.950000
2438.864164	111.150000
2440.372863	106.300000
2441.884548	102.150000
2443.392690	117.400000
2444.900554	113.650000
2446.408139	113.100000
2447.912185	110.900000
2449.419215	121.750000
2450.924337	128.800000
2452.429182	128.450000
2453.932120	129.300000
2455.434782	119.800000
2456.937167	110.650000
2458.437647	116.650000
2459.939480	123.550000
2461.439408	124.550000
2462.939061	120.350000
2464.438439	118.950000
2465.935914	110.750000
2467.431487	119.850000
2468.930040	113.000000
2470.425065	111.450000
2471.921442	107.800000
2473.414293	105.700000
2474.908497	107.900000
2476.402427	109.950000
2477.892833	108.550000
2479.386217	109.550000
2480.877703	102.300000
2482.367292	104.800000
2483.856609	99.800000
2485.344030	90.250000
2486.834427	89.150000
2488.321306	98.500000
2489.809536	90.900000
2491.294249	102.850000
2492.778692	94.050000
2494.264487	97.800000
2495.748390	99.700000
2497.233643	93.800000
2498.713763	101.800000
2500.196856	98.800000
2501.678058	86.450000
2503.158991	97.500000
2504.638035	75.150000
2506.116810	88.800000
2507.595317	87.550000
2509.073555	81.650000
2510.551526	91.050000
2512.025991	99.350000
2513.503426	80.650000
2514.977356	91.650000
2516.452638	103.850000
2517.927652	94.350000
2519.399165	92.450000
2520.872029	80.100000
2522.343010	81.050000
2523.815341	83.100000
2525.282558	86.250000
2526.752742	77.500000
2528.221045	93.750000
2529.689083	95.850000
2531.156855	96.000000
2532.624363	86.100000
2534.091607	94.650000
2535.555358	92.100000
2537.020459	100.450000
2538.483683	93.250000
2539.948256	86.050000
2541.409341	87.800000
2542.871775	76.150000
2544.333946	84.300000
2545.792630	89.200000
2547.255887	85.300000
2548.714047	83.300000
2550.173557	83.000000
2551.627972	95.900000
2553.086958	85.850000
2554.544072	85.800000
2555.999314	87.650000
2557.454296	88.550000
2558.907408	86.250000
2560.361869	97.950000
2561.814461	84.500000
2563.266793	92.400000
2564.717257	91.850000
2566.170678	99.600000
2567.619016	91.700000
2569.070309	92.250000
2570.519737	87.100000
2571.965692	95.050000
2573.414602	90.050000
2574.860042	76.300000
2576.306829	94.650000
2577.751753	97.600000
2579.196420	78.050000
2580.642434	94.000000
2582.084982	91.600000
2583.528876	86.000000
2584.969306	90.350000
2586.411084	92.200000
2587.851002	92.150000
2589.292267	96.300000
2590.730070	99.950000
2592.170823	81.300000
2593.606514	93.250000
2595.045153	103.250000
2596.481936	93.700000
2597.916863	87.600000
2599.354737	116.500000
2600.787554	100.200000
2602.221718	85.700000
2603.654028	89.650000
2605.087684	98.600000
2606.519487	98.500000
2607.951036	100.800000
2609.382332	106.750000
2610.811777	112.850000
2612.240969	103.150000
2613.668310	102.800000
2615.096998	101.350000
2616.525433	109.850000
2617.950422	103.700000
2619.376756	95.050000
2620.801243	113.850000
2622.227075	117.350000
2623.649463	118.750000
2625.073196	111.250000
2626.495084	118.200000
2627.916721	109.900000
2629.336514	114.250000
2630.757652	123.550000
2632.178540	118.500000
2633.595989	131.000000
2635.016378	126.150000
2636.433330	129.500000
2637.850034	143.000000
2639.266489	150.450000
2640.682696	164.250000
2642.098655	159.850000
2643.512773	186.250000
2644.926643	190.550000
2646.338674	180.800000
2647.752050	209.000000
2649.161996	214.100000
2650.574878	238.400000
2651.984331	253.700000
2653.393538	268.450000
2654.800909	284.900000
2656.211214	309.400000
2657.619683	344.850000
2659.026318	371.450000
2660.432707	391.600000
2661.837262	422.450000
2663.243161	471.000000
2664.647227	506.250000
2666.051048	558.100000
2667.454625	588.600000
2668.856371	655.000000
2670.259460	683.400000
2671.659131	730.250000
2673.060146	782.050000
2674.457745	815.100000
2675.858273	859.800000
2677.255387	876.550000
2678.653844	904.850000
2680.050474	904.550000
2681.446861	911.400000
2682.843006	920.100000
2684.237325	907.750000
2685.632987	877.700000
2687.025240	869.000000
2688.418835	827.200000
2689.810606	798.550000
2691.203720	739.800000
2692.595010	699.800000
2693.984477	639.850000
2695.373704	601.850000
2696.762692	549.450000
2698.153021	511.100000
2699.538367	477.150000
2700.926636	436.600000
2702.313085	382.850000
2703.699295	355.750000
2705.085266	319.800000
2706.467839	309.350000
2707.851754	285.400000
2709.235430	272.650000
2710.618869	248.850000
2711.998912	243.650000
2713.380297	210.750000
2714.759867	210.300000
2716.140777	193.000000
2717.519873	175.600000
2718.897155	169.850000
2720.275778	160.850000
2721.652587	163.400000
2723.029161	145.800000
2724.405499	146.900000
2725.780025	141.550000
2727.155892	137.950000
2728.528373	130.350000
2729.903769	130.700000
2731.274205	122.150000
2732.645981	122.250000
2734.017524	119.900000
2735.387258	108.700000
2736.758332	99.100000
2738.127599	113.850000
2739.496632	100.550000
2740.863859	93.900000
2742.230852	109.650000
2743.597613	112.000000
2744.964141	96.450000
2746.328865	84.350000
2747.693356	93.950000
2749.057616	99.350000
2750.421643	101.150000
2751.785438	101.000000
2753.145861	93.450000
2754.509193	98.850000
2755.867583	97.950000
2757.228883	81.150000
2758.586813	79.650000
2759.947651	80.750000
2761.306689	80.800000
2762.662360	88.600000
2764.020938	90.100000
2765.376149	91.950000
2766.731131	87.250000
2768.084316	77.850000
2769.440408	77.750000
2770.793136	91.800000
2772.145636	80.800000
2773.497907	68.950000
2774.851516	84.850000
2776.201765	66.300000
2777.550219	75.550000
2778.901578	74.200000
2780.249579	74.400000
2781.598917	76.150000
2782.946463	76.100000
2784.293783	72.600000
2785.640875	85.650000
2786.986177	71.000000
2788.331253	74.500000
2789.676103	73.400000
2791.020727	74.250000
2792.361999	85.550000
2793.704608	73.450000
2795.046993	70.150000
2796.389152	71.750000
2797.727962	76.050000
2799.069672	78.600000
2800.408033	75.650000
2801.747732	73.650000
2803.085646	80.400000
2804.421774	76.850000
2805.757680	76.600000
2807.094923	70.400000
2808.430382	83.050000
2809.765617	75.500000
2811.099071	79.700000
2812.433861	80.500000
2813.765311	68.500000
2815.099656	67.700000
2816.429102	61.700000
2817.759886	69.200000
2819.090449	75.350000
2820.419232	71.150000
2821.749351	66.550000
2823.077692	72.150000
2824.405812	65.300000
2825.732154	67.200000
2827.059832	65.600000
2828.384178	70.250000
2829.709860	81.500000
2831.033766	74.600000
2832.357452	67.400000
2833.682474	75.600000
2835.004167	62.750000
2836.325641	78.300000
2837.646895	70.100000
2838.967932	80.500000
2840.287195	69.700000
2841.607794	57.850000
2842.926621	64.100000
2844.245231	72.300000
2845.562069	67.200000
2846.878690	78.000000
2848.195094	77.850000
2849.509728	67.850000
2850.825697	64.550000
2852.138347	73.400000
2853.452331	70.350000
2854.766099	75.550000
2856.079650	69.950000
2857.391435	64.450000
2858.701453	67.900000
2860.012806	73.500000
2861.320844	74.150000
2862.630216	73.300000
2863.939373	71.450000
2865.248316	67.000000
2866.555494	61.200000
2867.860910	66.250000
2869.167659	61.700000
2870.472647	64.450000
2871.777420	64.100000
2873.080433	65.300000
2874.386326	61.150000
2875.687365	68.700000
2876.989737	61.350000
2878.290351	69.150000
2879.592297	66.650000
2880.894031	64.050000
2882.192461	60.800000
2883.492224	58.000000
2884.790230	66.350000
2886.088024	68.400000
2887.384062	65.350000
2888.681432	80.350000
2889.977048	66.600000
2891.272452	65.200000
2892.567645	70.750000
2893.859541	61.450000
2895.154312	75.100000
2896.445788	77.500000
2897.738596	74.500000
2899.031194	65.850000
2900.320497	70.850000
2901.611134	74.400000
2902.900019	69.300000
2904.190236	63.500000
2905.477162	71.150000
2906.765420	73.100000
2908.051929	70.750000
2909.338229	62.600000
2910.624321	61.350000
2911.908665	58.650000
2913.195881	62.200000
2914.478270	54.000000
2915.761991	59.650000
2917.043965	57.200000
2918.325733	66.000000
2919.605755	76.150000
2920.888648	54.800000
2922.169794	69.850000
2923.447659	61.600000
2924.728393	62.950000
2926.005847	61.650000
2927.283094	71.450000
2928.558599	67.250000
2929.836972	74.500000
2931.110531	60.150000
2932.386957	65.950000
2933.661642	53.650000
2934.934586	67.100000
2936.208862	47.950000
2937.481398	60.150000
2938.753729	59.950000
2940.022788	69.000000
2941.294712	58.300000
2942.564898	53.650000
2943.834880	56.500000
2945.104659	60.400000
2946.372702	63.100000
2947.639008	70.500000
2948.905112	66.100000
2950.172547	61.850000
2951.438246	68.450000
2952.703744	70.550000
2953.969039	55.200000
2955.231069	65.550000
2956.494429	58.100000
2957.757588	72.350000
2959.019015	58.900000
2960.281771	52.300000
2961.542795	62.950000
2962.802089	52.450000
2964.061182	53.800000
2965.320076	56.700000
2966.578769	60.750000
2967.837261	61.950000
2969.094025	74.150000
2970.350590	55.100000
2971.605426	52.900000
2972.861592	65.100000
2974.114503	61.050000
2975.368742	51.300000
2976.622783	49.800000
2977.875098	71.550000
2979.127215	53.250000
2980.377607	51.050000
2981.630854	49.950000
2982.879324	45.300000
2984.130649	52.150000
2985.378724	54.150000
2986.626602	48.850000
2987.874284	53.300000
2989.121768	50.300000
2990.367531	49.250000
2991.613098	56.500000
2992.859992	59.350000
2994.103642	51.600000
2995.348619	68.250000
2996.590354	62.350000
2997.834940	58.750000
2999.077807	52.750000
3000.317433	52.650000
3001.559909	52.850000
3002.799145	62.000000
3004.039709	60.000000
3005.278556	64.100000
3006.517209	52.250000
3007.754146	55.750000
3008.992411	68.700000
3010.228960	56.650000
3011.465316	43.100000
3012.701478	54.400000
3013.935926	58.850000
3015.170181	49.550000
3016.404244	52.350000
3017.636593	55.100000
3018.867231	59.100000
3020.100715	56.650000
3021.332488	53.750000
3022.562549	43.950000
3023.792419	59.800000
3025.020579	46.550000
3026.250066	59.700000
3027.477843	52.200000
3028.705429	50.200000
3029.934341	55.050000
3031.158511	50.250000
3032.385524	52.750000
3033.609314	56.850000
3034.834429	46.950000
3036.057839	50.400000
3037.281058	56.200000
3038.502572	42.950000
3039.726927	48.000000
3040.946547	46.800000
3042.167493	50.350000
3043.388249	48.350000
3044.607303	59.650000
3045.827681	39.850000
3047.044843	51.000000
3048.263330	63.250000
3049.480116	62.250000
3050.696713	57.750000
3051.913123	48.400000
3053.126319	67.850000
3054.342353	67.900000
3055.555175	44.650000
3056.770834	43.950000
3057.981771	50.550000
3059.194032	53.950000
3060.406106	40.700000
3061.617994	58.400000
3062.828185	46.550000
3064.038189	55.950000
3065.248007	56.500000
3066.456129	47.700000
3067.664066	37.300000
3068.870307	48.800000
3070.077873	49.250000
3071.283744	50.425000
3072.489430	51.600000
3073.694932	42.350000
3074.898740	61.700000
3076.103872	48.300000
3077.307311	47.450000
3078.509059	48.450000
3079.710622	48.200000
3080.912002	52.850000
3082.113198	44.150000
3083.312704	51.300000
3084.512027	51.050000
3085.712673	59.900000
3086.911629	39.050000
3088.107391	46.250000
3089.305981	38.500000
3090.501378	42.750000
3091.698099	43.300000
3092.891627	51.550000
3094.087983	50.550000
3095.282652	56.000000
3096.474131	41.850000
3097.669942	36.550000
3098.861058	44.400000
3100.053498	60.000000
3101.242749	44.750000
3102.434827	53.800000
3103.625221	38.600000
3104.812429	55.150000
3106.000959	42.000000
3107.190812	47.200000
3108.377480	36.000000
3109.563969	41.900000
3110.750279	37.900000
3111.937910	48.450000
3113.122359	38.950000
3114.305129	39.600000
3115.490721	41.500000
3116.674634	35.500000
3117.856867	42.750000
3119.038923	43.650000
3120.220800	55.300000
3121.402499	44.300000
3122.582521	51.300000
3123.760866	38.900000
3124.942031	44.600000
3126.120021	49.950000
3127.297834	37.400000
3128.475470	48.100000
3129.651431	52.700000
3130.827216	37.800000
3132.004321	38.400000
3133.179753	41.100000
3134.353511	44.750000
3135.525596	28.400000
3136.699003	37.900000
3137.872233	43.850000
3139.043792	47.650000
3140.216671	41.000000
3141.386383	41.750000
3142.557416	43.350000
3143.726778	40.850000
3144.894471	41.050000
3146.064979	34.800000
3147.230829	45.050000
3148.400987	52.850000
3149.566488	41.400000
3150.731816	46.000000
3151.896970	41.050000
3153.061951	48.800000
3154.228251	45.500000
3155.389898	42.450000
3156.552866	60.200000
3157.715661	47.900000
3158.878283	36.800000
3160.039239	43.750000
3161.200024	59.700000
3162.360636	38.100000
3163.519584	45.000000
3164.678361	36.550000
3165.836965	38.900000
3166.995398	45.500000
3168.153660	38.500000
3169.310259	36.650000
3170.465197	43.200000
3171.621454	30.550000
3172.776050	38.600000
3173.930476	33.900000
3175.083242	45.100000
3176.235837	40.450000
3177.388263	39.300000
3178.540518	52.200000
3179.692604	44.700000
3180.841543	46.500000
3181.993289	44.200000
3183.143378	46.900000
3184.291810	39.350000
3185.440072	39.650000
3186.588166	49.100000
3187.736091	55.800000
3188.882360	46.750000
3190.028461	49.350000
3191.172908	38.500000
3192.317187	41.000000
3193.461297	35.450000
3194.606726	31.050000
3195.749016	33.600000
3196.891139	42.850000
3198.033094	49.550000
3199.174882	41.600000
3200.316503	42.550000
3201.454989	30.550000
3202.594792	27.800000
3203.735912	37.000000
3204.873899	28.850000
3206.010235	47.400000
3207.146407	33.800000
3208.283895	38.500000
3209.419735	47.950000
3210.556892	31.850000
3211.689436	38.100000
3212.826261	37.750000
3213.958476	41.200000
3215.092007	44.050000
3216.225373	52.700000
3217.355613	34.250000
3218.488650	39.700000
3219.618561	39.450000
3220.749788	43.300000
3221.877891	42.600000
3223.008790	57.600000
3224.138045	49.200000
3225.265657	43.300000
3226.390146	36.000000
3227.518911	35.100000
3228.644554	41.750000
3229.770034	42.400000
3230.893873	55.000000
3232.020507	53.700000
3233.142543	41.250000
3234.265895	49.050000
3235.389085	45.550000
3236.512112	53.100000
3237.633501	45.500000
3238.754727	62.350000
3239.874315	53.850000
3240.993742	61.850000
3242.111532	70.550000
3243.232113	76.450000
3244.349581	69.650000
3245.466888	67.850000
3246.584035	79.300000
3247.699545	80.450000
3248.816371	67.700000
3249.930087	76.400000
3251.046592	72.600000
3252.161462	69.000000
3253.273224	64.650000
3254.384827	66.100000
3255.497745	59.400000
3256.610503	70.150000
3257.720155	69.350000
3258.831122	57.150000
3259.941930	49.250000
3261.051106	49.650000
3262.158651	41.850000
3263.267511	47.000000
3264.376212	33.050000
3265.481811	43.550000
3266.588725	48.400000
3267.694009	33.700000
3268.800607	39.600000
3269.904105	48.700000
3271.008917	45.350000
3272.113572	46.700000
3273.215129	43.150000
3274.316529	36.200000
3275.419243	50.850000
3276.521801	48.000000
3277.621262	28.550000
3278.723507	38.500000
3279.822656	28.000000
3280.920180	35.700000
3282.017550	34.550000
3283.117701	34.050000
3284.214760	27.500000
3285.311663	35.600000
3286.408411	30.700000
3287.500600	41.950000
3288.597039	26.800000
3289.691855	28.700000
3290.786517	38.300000
3291.879556	31.150000
3292.972442	38.250000
3294.063707	48.800000
3295.156285	33.750000
3296.247243	45.200000
3297.336581	31.250000
3298.425766	34.150000
3299.516263	46.950000
3300.603677	31.050000
3301.690937	37.950000
3302.779510	45.550000
3303.867930	34.000000
3304.951804	28.150000
3306.039919	39.950000
3307.124952	38.150000
3308.208370	31.700000
3309.293100	42.150000
3310.376214	35.450000
3311.460641	43.150000
3312.541989	47.100000
3313.624649	35.300000
3314.705694	38.950000
3315.786589	43.750000
3316.865871	40.550000
3317.945002	34.200000
3319.025445	37.700000
3320.102813	31.950000
3321.181493	34.350000
3322.258561	38.700000
3323.335479	32.050000
3324.410787	24.200000
3325.485945	35.900000
3326.562414	47.300000
3327.635813	34.650000
3328.709062	32.000000
3329.783623	38.300000
3330.856575	35.650000
3331.927918	28.650000
3333.000572	26.300000
3334.070159	46.100000
3335.141058	31.950000
3336.210349	35.250000
3337.280950	31.850000
3338.349946	39.600000
3339.417335	29.850000
3340.483119	26.250000
3341.553129	27.050000
3342.620076	26.950000
3343.683961	35.100000
3344.750613	33.450000
3345.815662	28.600000
3346.879107	31.000000
3347.942406	35.650000
3349.005558	52.700000
3350.068564	35.650000
3351.131424	32.550000
3352.192681	39.200000
3353.250882	37.000000
3354.313304	25.600000
3355.372670	38.350000
3356.431890	31.800000
3357.492419	38.050000
3358.548440	38.800000
3359.607224	42.450000
3360.661501	38.950000
3361.718542	31.350000
3362.773984	28.100000
3363.830736	27.300000
3364.885889	41.850000
3365.939445	34.300000
3366.991404	34.350000
3368.046126	40.900000
3369.097798	39.750000
3370.149327	42.700000
3371.202164	45.400000
3372.251954	38.400000
3373.303053	49.250000
3374.351105	41.000000
3375.401918	39.700000
3376.449685	45.050000
3377.497310	37.350000
3378.544793	23.950000
3379.590683	44.300000
3380.637881	42.350000
3381.682037	40.550000
3382.728951	32.750000
3383.774273	32.500000
3384.816554	38.950000
3385.858694	46.150000
3386.902143	35.550000
3387.945450	26.500000
3388.987167	33.800000
3390.028744	42.850000
3391.070179	35.150000
3392.110026	23.950000
3393.148284	32.450000
3394.187850	26.000000
3395.227276	28.150000
3396.265114	31.350000
3397.301365	36.600000
3398.337477	40.000000
3399.374895	36.600000
3400.409281	37.250000
3401.444975	31.950000
3402.480529	26.650000
3403.513052	33.700000
3404.548327	42.600000
3405.580573	31.450000
3406.612680	41.950000
3407.643203	32.500000
3408.675033	20.700000
3409.706725	28.950000
3410.735389	34.750000
3411.763916	26.750000
3412.793749	27.500000
3413.823445	29.150000
3414.850115	29.850000
3415.878091	36.800000
3416.903044	33.250000
3417.930746	25.500000
3418.955424	39.700000
3419.981409	38.500000
3421.005815	37.650000
3422.030084	41.850000
3423.052774	32.250000
3424.075328	28.650000
3425.099188	38.250000
3426.120028	24.250000
3427.140732	37.150000
3428.162742	37.000000
3429.181734	32.150000
3430.200591	34.200000
3431.220754	25.450000
3432.237900	32.200000
