-116.475622	17.950000
-113.806022	2.950000
-111.139357	6.250000
-108.473444	2.600000
-105.810463	-3.550000
-103.146053	8.400000
-100.484573	4.600000
-97.821664	3.200000
-95.163861	21.200000
-92.504629	17.750000
-89.846145	5.100000
-87.190585	2.250000
-84.533597	8.250000
-81.881707	-9.200000
-79.228387	8.400000
-76.577986	4.450000
-73.926156	-0.450000
-71.279417	1.100000
-68.631249	2.200000
-65.983823	-2.900000
-63.339311	3.900000
-60.693371	14.700000
-58.052512	18.400000
-55.410224	3.650000
-52.770845	7.700000
-50.130036	3.150000
-47.489968	9.500000
-44.854972	5.350000
-42.218548	6.800000
-39.585026	9.150000
-36.950076	0.200000
-34.320191	-7.650000
-31.686714	24.400000
-29.058299	-3.750000
-26.430618	6.500000
-23.801508	10.600000
-21.177455	16.450000
-18.549813	10.000000
-15.927224	15.550000
-13.305367	12.300000
-10.684240	28.350000
-8.063843	63.550000
-5.446335	215.700000
-2.827398	628.800000
-0.211346	1385.400000
2.403977	1468.350000
5.018573	990.100000
7.630286	105.950000
10.243428	16.650000
12.851536	24.650000
15.463226	13.050000
18.069885	25.850000
20.677972	19.150000
23.285335	5.050000
25.887673	11.550000
28.493589	9.750000
31.094483	15.450000
33.696805	3.200000
36.294110	13.800000
38.894990	1.200000
41.490855	15.450000
44.088149	7.750000
46.684723	9.750000
49.276288	13.600000
51.869281	11.900000
54.459413	7.650000
57.050973	23.150000
59.639673	-3.350000
62.229800	7.700000
64.814928	1.250000
67.401484	8.500000
69.987326	1.650000
72.570314	7.500000
75.154728	6.900000
77.732014	7.300000
80.312866	15.100000
82.890869	7.300000
85.468162	11.200000
88.046881	9.500000
90.620618	24.550000
93.195783	14.050000
95.768104	13.750000
98.339717	20.950000
100.908490	8.550000
103.478690	12.250000
106.046052	18.250000
108.614839	21.050000
111.180790	15.300000
113.743906	15.550000
116.310578	21.550000
118.868029	34.450000
121.431165	30.700000
123.989341	77.850000
126.551072	169.450000
129.107846	269.950000
131.666047	290.100000
134.219294	279.350000
136.771844	287.600000
139.327944	405.000000
141.879096	522.500000
144.429551	676.800000
146.979308	809.050000
149.526246	855.850000
152.072489	878.650000
154.620157	845.800000
157.167129	814.600000
159.709166	762.000000
162.250509	779.000000
164.791159	859.600000
167.333235	919.450000
169.872499	1030.100000
172.408955	1157.700000
174.944719	1274.750000
177.481909	1441.850000
180.018408	1626.100000
182.552101	1956.200000
185.082990	2259.750000
187.613192	2704.050000
190.144818	3338.600000
192.673643	4140.450000
195.199669	5139.600000
197.725009	6352.250000
200.251774	7799.900000
202.775743	9140.650000
205.299027	10189.250000
207.821626	10643.150000
210.341432	10356.050000
212.860555	9436.350000
215.378995	8181.050000
217.898859	6839.000000
220.411722	5565.400000
222.928116	4566.650000
225.443828	3810.600000
227.954650	3162.000000
230.466897	2698.300000
232.976362	2317.250000
235.485148	1989.900000
237.993255	1765.950000
240.502787	1584.600000
243.007438	1407.650000
245.511413	1298.100000
248.016812	1221.200000
250.517336	1153.550000
253.021384	1129.850000
255.518460	1085.650000
258.019060	1135.250000
260.516888	1333.300000
263.014043	1666.550000
265.510525	1992.800000
268.002144	1850.500000
270.497283	1286.800000
272.989655	821.850000
275.481357	619.250000
277.970296	519.500000
280.460659	482.500000
282.948259	430.200000
285.433100	403.950000
287.921456	387.950000
290.402872	355.900000
292.887802	333.950000
295.367887	330.550000
297.851484	295.550000
300.330238	301.650000
302.810416	293.900000
305.287841	295.100000
307.764603	267.850000
310.240702	282.950000
312.714052	264.600000
315.186740	274.150000
317.658767	288.900000
320.130133	309.850000
322.598754	305.200000
325.066717	308.550000
327.536101	270.150000
330.000663	281.150000
332.468729	251.800000
334.931975	269.650000
337.394563	258.150000
339.856495	269.750000
342.317770	271.150000
344.776311	314.500000
347.236274	369.600000
349.693504	606.000000
352.150080	1140.450000
354.606002	2108.500000
357.059194	2698.450000
359.513809	2129.850000
361.963622	1141.600000
364.416931	681.650000
366.865442	513.400000
369.313301	430.700000
371.762583	408.350000
374.207071	370.150000
376.652981	338.350000
379.098241	328.350000
381.540783	330.900000
383.982677	315.450000
386.423924	325.050000
388.862455	344.200000
391.302408	363.800000
393.739647	428.250000
396.174174	437.000000
398.612189	449.450000
401.045427	511.350000
403.480086	600.950000
405.909973	571.050000
408.343345	471.000000
410.771947	395.450000
413.199907	389.200000
415.629289	388.500000
418.053905	407.400000
420.479943	440.550000
422.905340	456.100000
425.330097	473.700000
427.750096	513.050000
430.171516	544.050000
432.590239	581.600000
435.010383	667.850000
437.427832	743.100000
439.846701	871.300000
442.262877	1053.300000
444.674305	1317.050000
447.089211	1732.400000
449.501426	2289.000000
451.913007	3161.350000
454.323954	4644.300000
456.732215	7341.450000
459.139843	12477.800000
461.546839	21442.150000
463.953204	32307.600000
466.356886	37554.750000
468.759938	31651.500000
471.162360	20414.050000
473.564152	12072.550000
475.963267	7630.100000
478.363801	5314.200000
480.763706	3988.700000
483.158888	3180.750000
485.557537	2635.900000
487.951466	2243.000000
490.344769	1967.550000
492.737446	1746.700000
495.129498	1560.450000
497.522968	1372.950000
499.911726	1218.200000
502.297818	1124.200000
504.685330	1078.900000
507.072219	1118.800000
509.456444	1260.750000
511.842087	1316.350000
514.225069	1196.450000
516.605390	945.650000
518.987130	785.750000
521.366211	675.950000
523.746711	635.850000
526.124553	579.600000
528.499740	553.100000
530.874309	540.950000
533.250296	502.750000
535.623631	505.150000
537.998383	484.300000
540.368450	464.700000
542.737901	449.700000
545.108770	427.200000
547.474959	425.450000
549.842566	400.600000
552.207527	402.900000
554.571875	375.150000
556.935610	364.950000
559.300763	333.800000
561.661244	334.250000
564.023143	306.650000
566.382401	320.150000
568.739022	284.400000
571.099087	314.800000
573.452461	285.100000
575.809280	297.500000
578.163464	284.150000
580.517039	270.250000
582.870007	268.900000
585.220342	281.550000
587.572095	289.450000
589.917171	292.850000
592.267711	284.650000
594.611577	293.850000
596.960905	276.400000
599.305584	277.850000
601.647639	264.800000
603.991111	279.300000
606.331960	246.300000
608.672207	241.950000
611.009833	235.100000
613.350894	236.200000
615.687317	215.700000
618.025157	217.350000
620.360380	220.850000
622.692987	217.450000
625.027010	229.950000
627.358419	219.600000
629.689230	210.250000
632.019444	203.850000
634.349059	190.800000
636.674051	214.200000
639.004485	194.200000
641.330298	209.350000
643.653503	204.800000
645.978125	196.900000
648.300141	195.550000
650.621563	198.900000
652.940383	190.650000
655.260618	181.500000
657.580260	181.650000
659.897301	180.050000
662.213750	163.400000
664.527601	162.000000
666.842868	156.250000
669.155538	175.950000
671.469623	153.850000
673.779108	170.450000
676.090009	184.900000
678.398317	182.650000
680.706037	183.400000
683.015171	185.200000
685.319713	185.800000
687.623669	202.750000
689.927039	202.150000
692.231823	217.050000
694.532021	256.200000
696.833633	268.200000
699.134661	266.600000
701.431106	248.800000
703.728967	216.250000
706.026244	198.150000
708.322938	187.050000
710.615056	176.000000
712.910585	167.700000
715.201540	168.050000
717.493910	166.500000
719.783705	161.250000
722.072919	155.350000
724.361554	163.200000
726.647616	160.750000
728.935093	166.800000
731.219998	161.850000
733.504326	171.200000
735.786085	159.050000
738.069258	170.350000
740.351854	160.350000
742.629894	165.250000
744.909349	149.150000
747.188227	161.250000
749.466531	157.450000
751.740285	166.900000
754.015452	169.150000
756.290046	163.550000
758.562081	171.950000
760.835529	164.550000
763.106419	164.750000
765.374753	169.300000
767.644500	177.700000
769.911693	189.050000
772.178315	178.400000
774.444367	193.700000
776.707868	201.900000
778.972782	202.250000
781.237126	194.550000
783.496941	221.150000
785.758168	220.550000
788.018828	247.100000
790.276942	258.950000
792.532511	277.700000
794.791471	317.800000
797.043932	357.700000
799.301759	409.900000
801.555068	474.850000
803.805837	581.800000
806.058018	802.200000
808.307660	1059.550000
810.558715	1137.400000
812.805258	977.800000
815.053213	696.150000
817.298634	491.550000
819.545466	394.900000
821.791737	319.700000
824.033503	310.200000
826.278653	273.750000
828.517330	251.650000
830.759389	248.250000
832.996950	239.750000
835.235923	240.600000
837.472369	245.650000
839.710226	226.700000
841.945558	234.950000
844.178367	220.500000
846.412587	238.150000
848.644284	230.600000
850.875427	240.150000
853.106015	215.400000
855.336049	236.500000
857.565529	224.100000
859.790527	201.900000
862.018900	204.700000
864.242793	203.900000
866.468098	200.050000
868.688927	196.400000
870.913128	181.550000
873.132856	190.750000
875.353994	190.350000
877.574582	197.850000
879.792661	186.750000
882.012149	201.700000
884.227171	203.850000
886.441645	219.600000
888.655572	208.550000
890.868952	211.950000
893.081784	193.650000
895.294070	225.550000
897.503853	211.750000
899.713091	224.250000
901.921784	201.550000
904.127978	201.100000
906.335581	188.650000
908.540686	192.100000
910.745248	180.400000
912.947315	195.200000
915.150791	190.750000
917.351773	192.800000
919.552213	185.750000
921.754062	201.300000
923.949520	196.750000
926.148337	201.700000
928.342715	194.900000
930.540451	186.350000
932.733751	177.500000
934.928460	167.650000
937.120683	159.050000
939.312367	170.700000
941.503514	168.250000
943.692178	158.500000
945.880306	159.900000
948.065953	175.300000
950.254952	152.100000
952.439528	176.850000
954.623569	149.700000
956.810960	175.250000
958.990047	153.700000
961.172485	163.150000
963.354389	153.850000
965.533818	149.400000
967.710775	153.450000
969.889140	150.150000
972.068912	149.650000
974.242335	153.750000
976.419104	141.000000
978.591466	150.400000
980.765236	145.200000
982.934602	141.650000
985.107312	149.400000
987.277557	143.400000
989.447273	143.000000
991.616460	141.350000
993.781250	143.000000
995.949381	153.650000
998.113118	142.600000
1000.278261	156.450000
1002.440945	141.800000
1004.603104	142.750000
1006.762806	145.950000
1008.921983	153.450000
1011.082567	131.000000
1013.240697	152.600000
1015.398302	136.800000
1017.555384	140.800000
1019.711942	138.250000
1021.864121	141.100000
1024.017707	150.750000
1026.170771	148.950000
1028.321386	159.550000
1030.473408	145.350000
1032.621056	149.700000
1034.772036	155.700000
1036.918645	161.250000
1039.064735	164.350000
1041.210307	164.600000
1043.357284	173.750000
1045.497972	162.650000
1047.641990	170.950000
1049.783567	163.550000
1051.924628	182.850000
1054.067093	183.900000
1056.203279	181.750000
1058.342790	193.250000
1060.477947	217.350000
1062.616428	213.150000
1064.750555	235.700000
1066.884169	254.850000
1069.019188	266.500000
1071.149857	282.750000
1073.281931	333.100000
1075.411576	434.450000
1077.540709	576.200000
1079.669330	810.950000
1081.797440	1119.850000
1083.923124	1175.700000
1086.048298	936.250000
1088.174876	642.900000
1090.297116	421.500000
1092.420761	315.300000
1094.540071	257.950000
1096.664611	221.000000
1098.782905	214.600000
1100.902604	192.950000
1103.019884	180.700000
1105.136658	159.100000
1107.252925	173.550000
1109.366776	175.300000
1111.482032	164.950000
1113.592964	147.000000
1115.707209	153.850000
1117.817133	139.650000
1119.928461	151.650000
1122.039284	136.550000
1124.145791	151.250000
1126.255608	141.650000
1128.361110	143.500000
1130.468015	144.800000
1132.568705	136.800000
1134.674607	130.450000
1136.776200	138.500000
1138.879196	129.650000
1140.981691	137.250000
1143.077979	131.900000
1145.179475	151.800000
1147.276667	145.800000
1149.373362	153.000000
1151.469558	169.700000
1153.565257	208.600000
1155.660457	234.600000
1157.753261	280.350000
1159.847468	302.350000
1161.935483	304.950000
1164.028696	267.900000
1166.115721	203.950000
1168.206045	178.800000
1170.292082	157.200000
1172.381416	138.200000
1174.464569	129.750000
1176.549124	130.550000
1178.635081	123.950000
1180.716756	122.050000
1182.799833	131.100000
1184.880524	108.850000
1186.960723	131.200000
1189.040431	127.600000
1191.119648	134.950000
1193.196483	118.550000
1195.270937	128.000000
1197.348682	126.000000
1199.422158	111.900000
1201.497034	114.400000
1203.567643	129.750000
1205.639653	122.950000
1207.709288	126.150000
1209.780323	124.750000
1211.850870	131.900000
1213.917156	138.450000
1215.984843	133.100000
1218.050158	133.750000
1220.116873	154.550000
1222.179332	153.450000
1224.245076	158.150000
1226.306566	157.700000
1228.369457	170.650000
1230.429980	188.800000
1232.490019	178.050000
1234.549576	179.600000
1236.606767	166.500000
1238.663477	166.450000
1240.717823	146.500000
1242.775451	140.050000
1244.830716	142.050000
1246.881740	133.000000
1248.934164	122.250000
1250.986108	120.950000
1253.035694	129.950000
1255.084801	133.100000
1257.133430	119.550000
1259.181580	114.900000
1261.229251	141.250000
1263.272692	112.050000
1265.319409	128.400000
1267.363772	124.050000
1269.407659	117.100000
1271.449194	117.250000
1273.488380	108.900000
1275.530839	112.150000
1277.569075	111.550000
1279.608710	109.450000
1281.647870	106.100000
1283.682811	108.800000
1285.719151	102.200000
1287.753147	105.850000
1289.788540	111.800000
1291.819721	103.400000
1293.852299	101.700000
1295.884406	100.700000
1297.914172	104.550000
1299.945336	105.050000
1301.972292	99.900000
1304.000646	96.650000
1306.024795	105.050000
1308.052210	100.100000
1310.075422	108.600000
1312.100032	97.800000
1314.122308	107.550000
1316.145981	94.050000
1318.167321	100.550000
1320.188193	96.350000
1322.208598	103.300000
1324.224810	94.550000
1326.242419	106.150000
1328.257700	93.250000
1330.276240	86.150000
1332.290591	90.450000
1334.302616	98.500000
1336.317898	89.200000
1338.328995	93.450000
1340.341489	84.500000
1342.349800	86.450000
1344.361366	90.850000
1346.366894	89.200000
1348.375677	89.500000
1350.380282	98.000000
1352.388141	90.800000
1354.395538	97.350000
1356.396904	92.950000
1358.399666	93.650000
1360.401969	94.250000
1362.403812	104.350000
1364.405195	87.300000
1366.404265	94.150000
1368.402876	95.700000
1370.401029	94.600000
1372.398723	85.450000
1374.392255	88.900000
1376.387182	95.100000
1378.381653	92.150000
1380.375667	91.950000
1382.367374	95.300000
1384.358626	97.100000
1386.347572	76.950000
1388.337913	92.100000
1390.327799	91.300000
1392.315381	97.850000
1394.302510	98.250000
1396.287337	81.900000
1398.273559	101.250000
1400.257481	91.850000
1402.240950	92.650000
1404.223966	100.200000
1406.204685	106.600000
1408.186798	85.450000
1410.166615	107.400000
1412.145980	102.550000
1414.121207	93.300000
1416.099672	78.800000
1418.075844	102.300000
1420.051567	102.100000
1422.026840	107.200000
1423.999822	94.750000
1425.972356	92.500000
1427.944442	94.050000
1429.916081	92.300000
1431.883591	88.600000
1433.856175	102.400000
1435.820953	109.700000
1437.790804	103.350000
1439.756531	107.900000
1441.723650	98.400000
1443.688486	100.500000
1445.649202	113.350000
1447.614986	95.050000
1449.574815	88.950000
1451.536038	98.100000
1453.498653	116.100000
1455.457153	93.950000
1457.415210	101.850000
1459.372826	97.600000
1461.329999	113.550000
1463.284897	91.200000
1465.241188	105.800000
1467.195204	91.550000
1469.148779	104.100000
1471.100082	99.550000
1473.052778	105.450000
1475.003201	106.900000
1476.953186	104.750000
1478.902732	88.700000
1480.850009	103.850000
1482.795018	102.900000
1484.741420	96.800000
1486.687384	99.250000
1488.632911	93.850000
1490.576172	86.150000
1492.518998	103.450000
1494.459560	90.350000
1496.401513	98.150000
1498.341204	89.300000
1500.280461	97.750000
1502.219282	92.400000
1504.155844	92.700000
1506.093797	91.550000
1508.029491	90.300000
1509.964752	91.300000
1511.897757	100.100000
1513.830329	102.350000
1515.762469	115.800000
1517.694177	88.700000
1519.623631	93.600000
1521.554476	107.550000
1523.484889	102.450000
1525.411230	99.150000
1527.338962	105.800000
1529.264443	86.400000
1531.189495	96.150000
1533.114118	108.950000
1535.038312	110.400000
1536.960258	98.800000
1538.883595	103.500000
1540.804685	98.250000
1542.723531	102.400000
1544.643767	108.650000
1546.561760	94.700000
1548.479326	111.200000
1550.394650	101.900000
1552.311364	104.000000
1554.224023	107.950000
1556.139886	107.950000
1558.053509	105.200000
1559.964894	124.300000
1561.877669	104.250000
1563.786394	94.850000
1565.696508	102.050000
1567.606199	103.050000
1569.515467	109.250000
1571.422501	113.050000
1573.327302	107.500000
1575.233492	101.950000
1577.137450	104.300000
1579.040987	110.050000
1580.944104	115.150000
1582.844991	108.050000
1584.747267	124.900000
1586.647315	119.250000
1588.548750	115.950000
1590.446152	107.800000
1592.343135	106.550000
1594.239700	113.100000
1596.137653	108.950000
1598.029771	107.050000
1599.925082	107.600000
1601.819976	104.050000
1603.712648	114.000000
1605.604903	115.350000
1607.494939	114.350000
1609.384559	111.500000
1611.273764	116.900000
1613.162554	103.200000
1615.049126	107.150000
1616.937086	119.700000
1618.821029	109.750000
1620.706359	108.450000
1622.591276	116.600000
1624.473979	112.950000
1626.358069	94.850000
1628.238147	107.000000
1630.119613	98.600000
1631.998868	110.400000
1633.879509	110.400000
1635.754346	92.850000
1637.634164	117.750000
1639.509978	101.300000
1641.385381	102.300000
1643.262170	104.200000
1645.133163	117.850000
1647.007337	101.650000
1648.877512	111.700000
1650.750869	104.100000
1652.622022	107.450000
1654.490973	102.550000
1656.361309	111.050000
1658.227653	110.100000
1660.095382	96.350000
1661.960912	106.500000
1663.827828	106.700000
1665.690755	104.300000
1667.555067	105.300000
1669.417183	99.800000
1671.278894	107.250000
1673.141991	90.550000
1675.002892	104.200000
1676.861601	89.750000
1678.719906	100.150000
1680.579596	92.700000
1682.433518	95.150000
1684.290614	101.650000
1686.147307	98.050000
1688.000023	92.150000
1689.855911	103.400000
1691.707825	81.050000
1693.559338	96.300000
1695.410450	103.950000
1697.261162	87.850000
1699.111473	88.750000
1700.959599	98.000000
1702.809110	82.850000
1704.652872	95.700000
1706.501583	93.750000
1708.344548	95.600000
1710.190680	94.500000
1712.032849	87.450000
1713.878184	92.350000
1715.717778	89.400000
1717.558756	92.100000
1719.401117	84.000000
1721.239522	89.400000
1723.079310	95.400000
1724.916923	82.000000
1726.754140	76.150000
1728.589184	88.700000
1730.425611	71.950000
1732.259866	89.900000
1734.093726	92.850000
1735.927192	79.250000
1737.756713	79.100000
1739.589392	79.850000
1741.418127	80.850000
1743.250019	81.700000
1745.077969	88.450000
1746.905528	70.750000
1748.732694	94.150000
1750.559469	83.200000
1752.385852	87.400000
1754.208299	82.650000
1756.033901	91.700000
1757.855568	88.850000
1759.678617	82.150000
1761.499504	82.900000
1763.320003	68.000000
1765.141882	81.200000
1766.958063	85.750000
1768.777395	85.200000
1770.592800	92.750000
1772.411355	78.750000
1774.225985	94.750000
1776.040228	78.500000
1777.854085	93.700000
1779.667555	75.200000
1781.478872	83.900000
1783.291569	74.000000
1785.103881	71.900000
1786.912275	81.500000
1788.722049	87.850000
1790.527909	87.550000
1792.336914	91.950000
1794.142006	75.200000
1795.948479	92.100000
1797.754568	87.050000
1799.556746	90.400000
1801.362069	71.000000
1803.163483	78.350000
1804.966277	88.250000
1806.765165	78.950000
1808.565434	81.300000
1810.365321	100.150000
1812.163066	74.900000
1813.960431	77.950000
1815.757416	85.150000
1817.554020	91.550000
1819.348485	87.650000
1821.144329	84.600000
1822.934518	74.800000
1824.729604	72.900000
1826.519038	80.600000
1828.311608	79.250000
1830.102043	90.350000
1831.890344	92.450000
1833.681780	72.050000
1835.467570	93.150000
1837.254740	87.400000
1839.039778	88.700000
1840.827950	86.200000
1842.612236	78.800000
1844.394392	76.850000
1846.177928	87.450000
1847.959335	77.750000
1849.742121	84.400000
1851.521026	75.050000
1853.301311	85.950000
1855.079469	72.600000
1856.859006	86.650000
1858.636418	70.900000
1860.411706	77.750000
1862.188372	81.950000
1863.962916	82.650000
1865.738838	90.700000
1867.509139	89.350000
1869.282568	82.250000
1871.053877	95.250000
1872.824815	77.900000
1874.597131	78.900000
1876.363833	75.750000
1878.133661	86.350000
1879.899625	81.450000
1881.668712	78.800000
1883.433938	79.550000
1885.198796	74.050000
1886.965031	90.450000
1888.727407	75.350000
1890.489416	68.700000
1892.251057	81.600000
1894.012332	87.900000
1895.773239	71.700000
1897.533780	86.450000
1899.292211	89.250000
1901.050276	83.200000
1902.806234	85.150000
1904.563568	74.950000
1906.320537	85.600000
1908.075399	86.200000
1909.828157	88.650000
1911.580550	75.450000
1913.334320	74.350000
1915.085986	85.400000
1916.835550	86.250000
1918.586489	77.950000
1920.337066	82.250000
1922.083803	75.200000
1923.831917	71.500000
1925.577931	73.550000
1927.325320	86.200000
1929.070612	80.350000
1930.813806	80.050000
1932.558375	75.450000
1934.300849	87.000000
1936.042962	80.650000
1937.784715	80.050000
1939.526108	80.800000
1941.265408	83.100000
1943.004349	80.500000
1944.742931	91.000000
1946.479422	67.450000
1948.215555	74.200000
1949.953062	80.950000
1951.686747	81.550000
1953.421807	81.550000
1955.154778	87.200000
1956.887393	83.400000
1958.619652	84.150000
1960.351554	77.750000
1962.081370	89.950000
1963.809101	60.200000
1965.538207	69.900000
1967.266958	75.450000
1968.993625	84.300000
1970.719938	79.450000
1972.447624	77.950000
1974.169774	80.100000
1975.895025	75.700000
1977.616469	80.900000
1979.341014	81.250000
1981.063478	85.150000
1982.782140	73.700000
1984.503900	84.650000
1986.221858	85.800000
1987.941189	66.550000
1989.656721	92.500000
1991.377073	94.450000
1993.093627	98.950000
1994.806384	83.050000
1996.522237	97.000000
1998.236018	73.050000
1999.949449	89.750000
2001.660809	83.450000
2003.373541	91.450000
2005.082483	75.000000
2006.794517	84.000000
2008.501043	95.550000
2010.210660	87.800000
2011.918211	88.500000
2013.625413	102.650000
2015.330550	81.950000
2017.035341	94.550000
2018.741503	91.950000
2020.443883	88.900000
2022.147634	75.900000
2023.849323	98.150000
2025.550667	77.450000
2027.251665	87.450000
2028.950602	73.050000
2030.650911	88.300000
2032.347445	79.050000
2034.045350	77.650000
2035.741196	85.900000
2037.440128	76.400000
2039.133574	76.050000
2040.828391	84.700000
2042.522866	78.550000
2044.213572	85.750000
2045.907362	76.400000
2047.597385	80.600000
2049.288779	75.300000
2050.978120	78.100000
2052.668831	82.650000
2054.355779	74.850000
2056.042388	78.900000
2057.730366	76.050000
2059.414585	82.850000
2061.100175	87.400000
2062.785425	75.750000
2064.468626	82.350000
2066.153198	71.300000
2067.832307	83.750000
2069.516201	79.200000
2071.194634	79.300000
2072.876145	75.100000
2074.553904	78.150000
2076.231327	79.900000
2077.910119	79.500000
2079.586869	87.450000
2081.261577	82.200000
2082.937654	76.700000
2084.611691	85.650000
2086.285392	84.650000
2087.958758	89.700000
2089.630085	70.950000
2091.301078	80.750000
2092.971737	69.200000
2094.642062	79.800000
2096.312053	82.600000
2097.980008	75.800000
2099.647630	80.000000
2101.313217	85.000000
2102.980173	81.200000
2104.645096	88.100000
2106.309687	75.450000
2107.972246	85.600000
2109.636173	71.950000
2111.298069	85.750000
2112.959635	90.100000
2114.620869	97.500000
2116.280075	70.600000
2117.938950	88.000000
2119.597496	86.500000
2121.255711	88.800000
2122.910204	85.850000
2124.567761	91.200000
2126.224989	91.100000
2127.878495	92.100000
2129.533369	80.000000
2131.184524	92.650000
2132.838742	81.450000
2134.489243	97.300000
2136.141110	80.300000
2137.787569	84.800000
2139.438783	94.200000
2141.086283	94.100000
2142.735150	86.850000
2144.381998	94.800000
2146.028521	85.350000
2147.674718	103.700000
2149.317207	91.600000
2150.962754	83.850000
2152.604594	79.450000
2154.249491	79.800000
2155.890682	79.200000
2157.531551	87.500000
2159.172095	77.050000
2160.810627	88.800000
2162.450525	76.200000
2164.086723	80.650000
2165.724287	82.800000
2167.361529	87.050000
2168.996761	80.050000
2170.631672	81.700000
2172.266260	61.450000
2173.900528	81.950000
2175.531102	62.600000
2177.164728	71.000000
2178.794662	75.850000
2180.425961	84.600000
2182.055255	66.650000
2183.684230	79.350000
2185.312885	83.500000
2186.941221	88.500000
2188.567555	78.650000
2190.193570	78.200000
2191.817583	81.050000
2193.442962	71.950000
2195.066340	64.750000
2196.691083	65.900000
2198.312145	73.600000
2199.932890	85.100000
2201.555000	71.700000
2203.175112	79.350000
2204.793227	78.900000
2206.411027	68.100000
2208.028512	75.000000
2209.645681	87.100000
2211.262535	75.600000
2212.879073	78.650000
2214.493619	72.900000
2216.106172	76.500000
2217.720089	77.950000
2219.332015	72.900000
2220.945304	77.300000
2222.556603	68.050000
2224.165912	60.500000
2225.776585	77.200000
2227.385269	90.250000
2228.993640	75.100000
2230.600025	78.850000
2232.207773	66.750000
2233.813534	79.950000
2235.418984	78.950000
2237.022449	72.100000
2238.627277	80.050000
2240.230121	82.800000
2241.830982	89.000000
2243.433206	68.950000
2245.033448	77.000000
2246.635052	67.400000
2248.233003	81.750000
2249.832317	81.500000
2251.429651	72.700000
2253.026677	71.600000
2254.625065	67.700000
2256.219804	79.400000
2257.812566	79.800000
2259.406691	71.400000
2261.002177	84.300000
2262.594018	72.900000
2264.185553	74.700000
2265.778450	73.750000
2267.366037	72.200000
2268.958320	78.550000
2270.545297	78.600000
2272.135301	68.550000
2273.720001	60.700000
2275.309395	74.950000
2276.893487	75.000000
2278.478939	67.300000
2280.062423	74.000000
2281.648932	69.800000
2283.231808	71.200000
2284.814381	73.000000
2286.396650	67.700000
2287.975289	76.950000
2289.556953	84.000000
2291.134988	81.500000
2292.716046	74.500000
2294.293477	77.250000
2295.868945	80.000000
2297.447435	68.200000
2299.022301	80.600000
2300.596866	69.650000
2302.171131	72.800000
2303.745095	70.250000
2305.318758	81.750000
2306.892122	75.750000
2308.461867	85.150000
2310.031313	71.650000
2311.603777	83.250000
2313.170967	75.900000
2314.741175	76.750000
2316.307768	74.500000
2317.875721	86.300000
2319.441718	80.400000
2321.007418	70.100000
2322.572820	81.650000
2324.136269	72.800000
2325.701077	76.700000
2327.262277	82.550000
2328.826491	84.500000
2330.385443	87.900000
2331.947410	86.300000
2333.507425	80.800000
2335.067146	77.350000
2336.624917	65.900000
2338.182393	72.650000
2339.739575	70.000000
2341.294809	71.850000
2342.849750	69.200000
2344.404396	77.300000
2345.958749	73.300000
2347.512809	64.850000
2349.066574	64.300000
2350.618395	69.550000
2352.168274	72.200000
2353.721160	70.150000
2355.268803	82.100000
2356.819455	58.150000
2358.366515	68.100000
2359.914933	69.500000
2361.463060	88.600000
2363.007598	72.500000
2364.553494	63.300000
2366.097452	73.950000
2367.642767	78.100000
2369.184497	62.150000
2370.727584	62.800000
2372.268735	68.950000
2373.809597	76.550000
2375.350170	84.350000
2376.890454	74.850000
2378.430449	59.700000
2379.966866	74.250000
2381.506284	72.150000
2383.042124	75.400000
2384.579322	66.050000
2386.112944	74.050000
2387.649566	66.750000
2389.184258	80.250000
2390.717020	69.350000
2392.249495	74.050000
2393.780042	65.100000
2395.313587	64.250000
2396.841921	67.700000
2398.371612	66.000000
2399.901016	53.150000
2401.430136	66.600000
2402.958971	64.350000
2404.482600	75.350000
2406.010865	72.750000
2407.533928	75.200000
2409.061624	73.350000
2410.582481	72.500000
2412.107971	79.750000
2413.629900	77.000000
2415.153185	79.000000
2416.674548	75.600000
2418.193992	83.300000
2419.714791	64.100000
2421.233672	67.950000
2422.752270	80.400000
2424.268951	66.700000
2425.786986	82.300000
2427.304740	77.950000
2428.818943	77.800000
2430.332865	74.750000
2431.846507	78.800000
2433.361504	70.300000
2434.872952	80.000000
2436.385755	74.250000
2437.896644	63.100000
2439.407255	63.250000
2440.915954	72.650000
2442.427639	69.600000
2443.935781	80.250000
2445.443645	66.950000
2446.951231	74.350000
2448.455276	74.300000
2449.962306	78.750000
2451.467428	70.200000
2452.972273	91.200000
2454.475211	64.850000
2455.977873	72.500000
2457.480258	67.000000
2458.980738	69.350000
2460.482571	70.750000
2461.982499	75.100000
2463.482152	57.850000
2464.981530	71.150000
2466.479005	62.000000
2467.974578	72.550000
2469.473131	69.650000
2470.968156	65.500000
2472.464533	61.750000
2473.957384	69.600000
2475.451588	65.400000
2476.945518	63.400000
2478.435924	68.700000
2479.929308	70.250000
2481.420794	69.950000
2482.910383	59.900000
2484.399700	73.450000
2485.887121	74.100000
2487.377518	72.900000
2488.864397	74.000000
2490.352627	71.800000
2491.837340	59.800000
2493.321784	64.350000
2494.807578	65.800000
2496.291481	68.900000
2497.776734	75.500000
2499.256854	76.200000
2500.739947	63.100000
2502.221149	57.100000
2503.702082	72.000000
2505.181126	67.400000
2506.659901	93.150000
2508.138408	55.700000
2509.616647	69.350000
2511.094617	64.200000
2512.569082	67.350000
2514.046517	67.050000
2515.520448	73.000000
2516.995729	71.100000
2518.470743	69.350000
2519.942256	61.500000
2521.415120	76.650000
2522.886101	61.000000
2524.358432	78.400000
2525.825649	75.050000
2527.295833	73.800000
2528.764136	56.400000
2530.232174	72.650000
2531.699947	60.200000
2533.167455	60.600000
2534.634698	68.800000
2536.098449	66.800000
2537.563550	66.000000
2539.026774	73.250000
2540.491347	62.800000
2541.952432	84.050000
2543.414866	73.250000
2544.877037	74.650000
2546.335722	64.600000
2547.798978	80.500000
2549.257139	69.350000
2550.716648	77.500000
2552.171063	57.100000
2553.630049	69.850000
2555.087163	58.950000
2556.542406	79.200000
2557.997387	76.600000
2559.450500	81.700000
2560.904961	67.400000
2562.357552	66.500000
2563.809884	62.400000
2565.260349	76.600000
2566.713769	63.650000
2568.162107	73.100000
2569.613400	61.900000
2571.062828	67.650000
2572.508783	62.000000
2573.957693	73.450000
2575.403133	69.400000
2576.849920	69.850000
2578.294845	55.150000
2579.739511	66.650000
2581.185525	62.300000
2582.628073	78.600000
2584.071968	50.400000
2585.512398	62.800000
2586.954175	65.150000
2588.394093	70.600000
2589.835358	55.750000
2591.273161	60.850000
2592.713914	53.000000
2594.149605	56.800000
2595.588245	63.300000
2597.025027	73.600000
2598.459954	72.250000
2599.897828	74.300000
2601.330645	64.600000
2602.764809	76.800000
2604.197119	60.600000
2605.630775	73.150000
2607.062578	66.050000
2608.494127	73.150000
2609.925424	62.900000
2611.354868	64.050000
2612.784060	63.050000
2614.211402	69.350000
2615.640089	56.550000
2617.068525	67.300000
2618.493513	70.750000
2619.919848	57.500000
2621.344334	60.150000
2622.770166	67.600000
2624.192554	60.000000
2625.616288	66.650000
2627.038175	62.850000
2628.459813	62.600000
2629.879605	50.650000
2631.300743	66.000000
2632.721631	61.100000
2634.139081	72.250000
2635.559470	68.200000
2636.976422	74.150000
2638.393125	69.350000
2639.809580	67.050000
2641.225787	67.350000
2642.641746	71.800000
2644.055864	61.700000
2645.469734	71.050000
2646.881766	64.100000
2648.295141	62.350000
2649.705087	60.000000
2651.117969	60.050000
2652.527422	54.650000
2653.936629	50.950000
2655.344000	59.100000
2656.754305	71.200000
2658.162775	58.850000
2659.569409	67.600000
2660.975798	67.800000
2662.380353	76.950000
2663.786252	58.500000
2665.190318	71.200000
2666.594139	62.000000
2667.997716	77.350000
2669.399462	69.900000
2670.802551	74.650000
2672.202222	58.600000
2673.603237	76.950000
2675.000836	67.250000
2676.401365	62.000000
2677.798478	54.200000
2679.196935	66.650000
2680.593565	59.150000
2681.989952	63.350000
2683.386097	61.200000
2684.780416	68.950000
2686.176078	56.550000
2687.568331	71.150000
2688.961926	62.600000
2690.353697	67.400000
2691.746811	56.200000
2693.138101	54.500000
2694.527568	67.400000
2695.916795	61.700000
2697.305783	56.150000
2698.696112	65.250000
2700.081458	51.500000
2701.469727	65.850000
2702.856176	52.550000
2704.242386	58.750000
2705.628357	50.200000
2707.010930	60.100000
2708.394845	52.550000
2709.778522	53.600000
2711.161960	67.850000
2712.542004	68.350000
2713.923388	65.050000
2715.302958	65.300000
2716.683868	65.900000
2718.062964	64.550000
2719.440246	46.350000
2720.818869	58.450000
2722.195679	56.450000
2723.572252	61.900000
2724.948590	64.100000
2726.323117	68.200000
2727.698984	61.750000
2729.071464	50.150000
2730.446860	54.300000
2731.817296	67.600000
2733.189073	71.400000
2734.560615	70.350000
2735.930349	53.050000
2737.301424	65.050000
2738.670690	58.800000
2740.039723	67.200000
2741.406950	64.150000
2742.773943	76.600000
2744.140704	62.050000
2745.507233	59.250000
2746.871956	56.250000
2748.236447	58.000000
2749.600707	59.750000
2750.964734	64.350000
2752.328530	70.300000
2753.688952	79.150000
2755.052284	43.850000
2756.410674	68.450000
2757.771974	54.750000
2759.129904	60.350000
2760.490742	59.100000
2761.849781	68.050000
2763.205451	52.950000
2764.564029	59.850000
2765.919240	47.450000
2767.274222	50.950000
2768.627408	46.050000
2769.983500	56.650000
2771.336227	48.400000
2772.688727	63.500000
2774.040998	56.050000
2775.394607	65.300000
2776.744856	54.650000
2778.093310	67.250000
2779.444670	51.300000
2780.792670	51.600000
2782.142008	59.400000
2783.489554	61.700000
2784.836874	49.400000
2786.183967	57.650000
2787.529269	40.600000
2788.874344	55.100000
2790.219194	59.550000
2791.563818	64.900000
2792.905090	51.600000
2794.247700	67.550000
2795.590084	56.500000
2796.932243	63.100000
2798.271053	64.200000
2799.612763	55.800000
2800.951125	52.050000
2802.290823	57.250000
2803.628737	50.000000
2804.964866	68.700000
2806.300771	54.950000
2807.638014	52.800000
2808.973473	55.100000
2810.308709	55.550000
2811.642162	52.150000
2812.976952	69.600000
2814.308402	60.600000
2815.642747	74.550000
2816.972194	65.200000
2818.302978	54.200000
2819.633540	55.900000
2820.962323	58.900000
2822.292442	51.600000
2823.620783	65.500000
2824.948903	41.400000
2826.275245	66.800000
2827.602924	62.850000
2828.927269	52.700000
2830.252951	65.650000
2831.576857	59.150000
2832.900544	48.200000
2834.225566	67.950000
2835.547258	64.900000
2836.868732	69.200000
2838.189987	56.500000
2839.511023	73.100000
2840.830286	65.850000
2842.150885	61.400000
2843.469713	58.450000
2844.788322	65.800000
2846.105160	52.800000
2847.421781	67.100000
2848.738185	67.850000
2850.052819	55.400000
2851.368789	53.400000
2852.681438	50.100000
2853.995422	51.500000
2855.309190	48.600000
2856.622741	59.450000
2857.934526	54.000000
2859.244544	51.750000
2860.555897	61.900000
2861.863935	53.100000
2863.173307	63.200000
2864.482465	57.250000
2865.791407	67.000000
2867.098585	49.550000
2868.404001	66.800000
2869.710750	47.950000
2871.015738	51.600000
2872.320512	53.550000
2873.623524	47.950000
2874.929417	52.600000
2876.230456	61.150000
2877.532829	52.550000
2878.833442	65.100000
2880.135389	54.200000
2881.437122	49.950000
2882.735552	63.400000
2884.035315	58.000000
2885.333321	50.650000
2886.631115	57.900000
2887.927153	48.350000
2889.224524	56.750000
2890.520139	57.700000
2891.815543	58.450000
2893.110736	52.250000
2894.402632	54.300000
2895.697404	58.150000
2896.988879	58.850000
2898.281687	56.550000
2899.574285	64.450000
2900.863589	52.750000
2902.154225	48.100000
2903.443110	51.800000
2904.733327	47.300000
2906.020253	53.800000
2907.308511	47.400000
2908.595020	56.650000
2909.881320	65.200000
2911.167413	60.200000
2912.451757	56.200000
2913.738972	61.000000
2915.021361	55.000000
2916.305082	51.250000
2917.587057	60.400000
2918.868824	41.100000
2920.148847	47.600000
2921.431739	50.400000
2922.712886	62.500000
2923.990751	44.100000
2925.271485	55.600000
2926.548938	52.950000
2927.826185	57.200000
2929.101690	56.700000
2930.380063	57.150000
2931.653622	44.550000
2932.930048	53.150000
2934.204733	66.200000
2935.477677	41.300000
2936.751953	46.450000
2938.024489	65.100000
2939.296820	58.300000
2940.565879	60.450000
2941.837803	52.400000
2943.107989	41.600000
2944.377971	66.550000
2945.647750	53.600000
2946.915793	66.900000
2948.182099	39.750000
2949.448204	50.400000
2950.715638	54.300000
2951.981338	56.900000
2953.246835	60.800000
2954.512130	49.950000
2955.774160	43.500000
2957.037520	49.100000
2958.300679	59.800000
2959.562106	52.850000
2960.824862	62.950000
2962.085886	45.150000
2963.345180	59.250000
2964.604274	43.700000
2965.863167	60.000000
2967.121860	49.300000
2968.380353	65.300000
2969.637117	47.300000
2970.893681	56.800000
2972.148518	47.400000
2973.404683	49.000000
2974.657594	39.900000
2975.911834	56.800000
2977.165875	56.400000
2978.418190	59.600000
2979.670306	66.750000
2980.920698	57.200000
2982.173945	56.550000
2983.422415	54.700000
2984.673740	43.700000
2985.921815	42.050000
2987.169694	47.950000
2988.417375	55.550000
2989.664859	43.250000
2990.910622	48.000000
2992.156189	49.950000
2993.403083	54.850000
2994.646733	52.950000
2995.891711	51.600000
2997.133445	53.000000
2998.378031	51.200000
2999.620898	52.800000
3000.860524	42.400000
3002.103000	49.100000
3003.342236	57.100000
3004.582800	47.000000
3005.821648	57.400000
3007.060300	56.850000
3008.297237	52.900000
3009.535502	49.950000
3010.772051	71.650000
3012.008407	47.900000
3013.244569	46.100000
3014.479017	50.150000
3015.713273	56.650000
3016.947335	51.700000
3018.179685	52.750000
3019.410323	42.300000
3020.643807	56.100000
3021.875579	43.350000
3023.105641	45.750000
3024.335510	51.950000
3025.563671	52.350000
3026.793157	53.900000
3028.020934	48.200000
3029.248520	47.100000
3030.477433	52.100000
3031.701603	37.300000
3032.928616	50.100000
3034.152405	37.950000
3035.377521	56.000000
3036.600930	51.650000
3037.824149	58.000000
3039.045663	50.800000
3040.270018	51.450000
3041.489638	45.100000
3042.710584	47.650000
3043.931341	52.300000
3045.150394	48.400000
3046.370772	51.250000
3047.587934	50.700000
3048.806422	54.300000
3050.023207	59.250000
3051.239805	51.350000
3052.456214	59.200000
3053.669411	50.450000
3054.885445	53.150000
3056.098267	56.750000
3057.313926	52.600000
3058.524862	47.100000
3059.737123	49.200000
3060.949198	56.450000
3062.161085	63.300000
3063.371276	58.450000
3064.581280	52.750000
3065.791098	48.100000
3066.999220	48.300000
3068.207157	45.900000
3069.413398	55.950000
3070.620964	40.950000
3071.826835	45.025000
3073.032522	49.100000
3074.238023	42.600000
3075.441831	37.200000
3076.646963	53.300000
3077.850402	43.850000
3079.052150	45.700000
3080.253713	39.200000
3081.455093	49.000000
3082.656289	54.850000
3083.855795	41.550000
3085.055118	49.550000
3086.255764	55.350000
3087.454720	37.650000
3088.650482	43.500000
3089.849073	50.350000
3091.044470	59.600000
3092.241190	50.800000
3093.434718	51.150000
3094.631074	53.650000
3095.825744	44.450000
3097.017223	54.850000
3098.213033	59.200000
3099.404149	46.850000
3100.596589	58.950000
3101.785841	38.400000
3102.977918	52.400000
3104.168312	47.850000
3105.355520	58.000000
3106.544051	43.100000
3107.733903	46.650000
3108.920572	40.350000
3110.107060	47.650000
3111.293370	44.050000
3112.481001	46.800000
3113.665450	37.400000
3114.848220	41.150000
3116.033812	40.100000
3117.217725	66.850000
3118.399959	55.900000
3119.582014	57.500000
3120.763891	51.650000
3121.945590	57.350000
3123.125612	53.500000
3124.303957	46.950000
3125.485122	56.700000
3126.663112	64.200000
3127.840926	42.000000
3129.018562	46.650000
3130.194523	41.800000
3131.370307	43.600000
3132.547413	30.200000
3133.722844	52.000000
3134.896602	43.550000
3136.068687	60.750000
3137.242094	35.100000
3138.415324	50.850000
3139.586883	47.350000
3140.759762	57.700000
3141.929474	43.000000
3143.100507	49.150000
3144.269870	35.550000
3145.437562	53.200000
3146.608070	47.800000
3147.773920	54.150000
3148.944078	27.800000
3150.109580	52.200000
3151.274907	49.050000
3152.440061	39.800000
3153.605042	62.550000
3154.771342	52.950000
3155.932990	44.600000
3157.095957	42.000000
3158.258752	50.550000
3159.421374	46.400000
3160.582331	46.850000
3161.743115	53.650000
3162.903727	41.700000
3164.062675	39.100000
3165.221452	42.200000
3166.380057	38.100000
3167.538489	43.950000
3168.696751	53.600000
3169.853350	44.450000
3171.008288	52.000000
3172.164545	54.350000
3173.319141	51.300000
3174.473567	34.700000
3175.626333	57.300000
3176.778928	54.600000
3177.931354	47.900000
3179.083610	42.650000
3180.235695	32.000000
3181.384635	46.400000
3182.536381	49.850000
3183.686469	46.400000
3184.834901	57.100000
3185.983163	42.450000
3187.131257	53.300000
3188.279182	31.600000
3189.425451	45.250000
3190.571552	42.150000
3191.715999	35.100000
3192.860278	58.250000
3194.004389	50.100000
3195.149817	50.750000
3196.292107	50.650000
3197.434230	41.950000
3198.576185	44.850000
3199.717973	48.400000
3200.859594	45.050000
3201.998080	40.700000
3203.137883	45.900000
3204.279004	45.150000
3205.416990	40.000000
3206.553327	30.700000
3207.689498	37.800000
3208.826986	39.300000
3209.962826	50.900000
3211.099983	46.600000
3212.232527	49.600000
3213.369353	63.100000
3214.501567	42.300000
3215.635098	46.650000
3216.768465	27.700000
3217.898704	44.900000
3219.031741	49.850000
3220.161652	44.050000
3221.292879	45.100000
3222.420982	36.350000
3223.551881	36.100000
3224.681136	48.850000
3225.808748	31.900000
3226.933237	37.150000
3228.062002	41.400000
3229.187645	47.500000
3230.313126	41.700000
3231.436965	38.900000
3232.563598	42.350000
3233.685634	39.600000
3234.808986	48.100000
3235.932176	33.600000
3237.055203	41.400000
3238.176592	39.700000
3239.297818	48.000000
3240.417407	41.150000
3241.536834	51.600000
3242.654623	50.600000
3243.775204	48.400000
3244.892672	47.050000
3246.009979	36.700000
3247.127126	37.300000
3248.242637	45.350000
3249.359462	37.350000
3250.473178	59.250000
3251.589683	42.550000
3252.704554	48.450000
3253.816316	43.000000
3254.927918	48.050000
3256.040836	43.900000
3257.153594	53.050000
3258.263246	35.700000
3259.374213	38.600000
3260.485021	36.550000
3261.594197	40.900000
3262.701743	39.800000
3263.810602	41.500000
3264.919304	36.550000
3266.024903	42.200000
3267.131816	51.200000
3268.237100	41.350000
3269.343698	43.350000
3270.447196	44.700000
3271.552009	40.600000
3272.656664	58.600000
3273.758220	40.050000
3274.859620	35.350000
3275.962334	38.500000
3277.064892	52.100000
3278.164353	41.550000
3279.266598	39.900000
3280.365747	46.750000
3281.463272	37.950000
3282.560641	37.850000
3283.660792	36.800000
3284.757851	42.100000
3285.854754	38.400000
3286.951502	47.900000
3288.043692	40.850000
3289.140130	38.950000
3290.234946	38.000000
3291.329608	29.700000
3292.422648	43.100000
3293.515533	34.150000
3294.606799	39.400000
3295.699376	30.350000
3296.790334	42.850000
3297.879672	42.550000
3298.968857	36.550000
3300.059355	39.800000
3301.146768	39.950000
3302.234028	38.800000
3303.322601	49.600000
3304.411022	44.150000
3305.494895	53.200000
3306.583010	32.450000
3307.668043	36.550000
3308.751461	38.350000
3309.836191	44.750000
3310.919305	28.900000
3312.003732	47.350000
3313.085080	31.950000
3314.167740	47.900000
3315.248786	41.050000
3316.329681	38.250000
3317.408962	41.250000
3318.488093	43.400000
3319.568536	50.150000
3320.645904	50.200000
3321.724584	32.650000
3322.801652	40.200000
3323.878571	44.550000
3324.953878	47.400000
3326.029036	46.050000
3327.105505	33.700000
3328.178904	31.700000
3329.252154	49.900000
3330.326714	41.950000
3331.399666	45.400000
3332.471009	44.250000
3333.543663	43.500000
3334.613251	40.050000
3335.684149	39.200000
3336.753440	44.700000
3337.824042	38.600000
3338.893037	37.900000
3339.960426	44.000000
3341.026210	32.650000
3342.096220	35.650000
3343.163167	38.200000
3344.227052	43.850000
3345.293705	32.750000
3346.358753	37.350000
3347.422198	35.050000
3348.485497	39.150000
3349.548649	42.450000
3350.611655	51.450000
3351.674515	42.900000
3352.735773	34.450000
3353.793974	30.150000
3354.856395	47.200000
3355.915761	30.650000
3356.974981	37.950000
3358.035511	41.650000
3359.091531	49.350000
3360.150315	44.000000
3361.204592	30.350000
3362.261633	42.900000
3363.317075	46.000000
3364.373827	31.550000
3365.428980	45.450000
3366.482536	37.300000
3367.534496	36.600000
3368.589217	39.700000
3369.640889	34.650000
3370.692418	47.800000
3371.745255	36.400000
3372.795045	29.000000
3373.846144	39.500000
3374.894197	30.150000
3375.945009	49.600000
3376.992777	41.400000
3378.040402	46.400000
3379.087884	37.800000
3380.133774	48.800000
3381.180972	25.850000
3382.225128	34.600000
3383.272042	34.950000
3384.317364	40.100000
3385.359645	45.350000
3386.401786	37.300000
3387.445234	42.400000
3388.488541	48.350000
3389.530259	36.500000
3390.571835	44.150000
3391.613270	51.650000
3392.653117	34.850000
3393.691375	35.300000
3394.730941	43.700000
3395.770367	31.350000
3396.808205	33.400000
3397.844456	27.350000
3398.880568	41.500000
3399.917987	23.800000
3400.952373	43.350000
3401.988066	33.300000
3403.023620	39.300000
3404.056143	53.450000
3405.091419	49.200000
3406.123664	35.350000
3407.155771	48.250000
3408.186294	47.750000
3409.218124	44.950000
3410.249816	48.500000
3411.278480	43.100000
3412.307007	49.100000
3413.336840	25.550000
3414.366536	42.700000
3415.393206	36.450000
3416.421183	38.050000
3417.446135	38.750000
3418.473837	44.600000
3419.498516	41.900000
3420.524501	42.050000
3421.548906	51.850000
3422.573175	37.800000
3423.595865	41.000000
3424.618419	38.300000
3425.642279	37.600000
3426.663119	30.100000
3427.683823	34.200000
3428.705834	39.050000
3429.724826	43.100000
3430.743682	35.650000
3431.763845	56.700000
3432.780991	39.850000
