-116.475622	-11.150000
-113.806022	4.150000
-111.139357	-6.000000
-108.473444	-12.750000
-105.810463	-7.400000
-103.146053	6.600000
-100.484573	-2.250000
-97.821664	-4.650000
-95.163861	-9.300000
-92.504629	-0.100000
-89.846145	-8.200000
-87.190585	-11.500000
-84.533597	-17.800000
-81.881707	-0.700000
-79.228387	-13.300000
-76.577986	6.200000
-73.926156	-4.200000
-71.279417	-8.100000
-68.631249	-2.250000
-65.983823	-7.950000
-63.339311	-5.650000
-60.693371	3.700000
-58.052512	-0.250000
-55.410224	8.450000
-52.770845	-8.350000
-50.130036	-10.300000
-47.489968	-4.750000
-44.854972	-2.400000
-42.218548	-8.800000
-39.585026	0.450000
-36.950076	-9.800000
-34.320191	-0.750000
-31.686714	-13.650000
-29.058299	-7.700000
-26.430618	2.300000
-23.801508	1.700000
-21.177455	6.500000
-18.549813	10.100000
-15.927224	2.800000
-13.305367	11.400000
-10.684240	29.950000
-8.063843	81.250000
-5.446335	243.950000
-2.827398	828.550000
-0.211346	1961.200000
2.403977	2119.000000
5.018573	1168.350000
7.630286	121.350000
10.243428	13.300000
12.851536	4.950000
15.463226	9.700000
18.069885	7.800000
20.677972	0.900000
23.285335	-2.850000
25.887673	-4.900000
28.493589	4.600000
31.094483	4.150000
33.696805	-9.150000
36.294110	5.500000
38.894990	1.700000
41.490855	0.900000
44.088149	-3.500000
46.684723	8.650000
49.276288	9.650000
51.869281	1.950000
54.459413	-1.800000
57.050973	2.050000
59.639673	-6.550000
62.229800	10.300000
64.814928	0.150000
67.401484	-3.500000
69.987326	-11.100000
72.570314	9.150000
75.154728	0.400000
77.732014	-2.250000
80.312866	4.650000
82.890869	6.300000
85.468162	-11.200000
88.046881	2.500000
90.620618	3.150000
93.195783	-4.600000
95.768104	2.650000
98.339717	1.650000
100.908490	2.300000
103.478690	0.150000
106.046052	2.250000
108.614839	6.250000
111.180790	-1.750000
113.743906	14.100000
116.310578	10.700000
118.868029	23.600000
121.431165	28.400000
123.989341	63.450000
126.551072	127.000000
129.107846	239.700000
131.666047	267.100000
134.219294	241.150000
136.771844	239.800000
139.327944	296.000000
141.879096	380.950000
144.429551	477.950000
146.979308	531.250000
149.526246	561.400000
152.072489	565.450000
154.620157	547.400000
157.167129	517.300000
159.709166	497.600000
162.250509	516.800000
164.791159	555.350000
167.333235	587.200000
169.872499	631.050000
172.408955	706.050000
174.944719	784.750000
177.481909	888.700000
180.018408	1008.650000
182.552101	1154.800000
185.082990	1356.100000
187.613192	1643.650000
190.144818	1962.050000
192.673643	2398.800000
195.199669	2972.000000
197.725009	3603.800000
200.251774	4337.650000
202.775743	5020.950000
205.299027	5528.050000
207.821626	5675.200000
210.341432	5463.750000
212.860555	4948.900000
215.378995	4290.950000
217.898859	3608.300000
220.411722	2933.750000
222.928116	2439.300000
225.443828	2029.150000
227.954650	1702.100000
230.466897	1499.450000
232.976362	1269.950000
235.485148	1120.500000
237.993255	1016.750000
240.502787	910.100000
243.007438	831.100000
245.511413	758.650000
248.016812	729.800000
250.517336	676.950000
253.021384	666.150000
255.518460	650.950000
258.019060	709.350000
260.516888	812.750000
263.014043	1058.950000
265.510525	1289.100000
268.002144	1204.750000
270.497283	815.550000
272.989655	526.450000
275.481357	412.650000
277.970296	354.750000
280.460659	324.150000
282.948259	303.450000
285.433100	270.650000
287.921456	268.200000
290.402872	252.100000
292.887802	233.900000
295.367887	233.850000
297.851484	227.500000
300.330238	229.300000
302.810416	215.800000
305.287841	219.450000
307.764603	224.000000
310.240702	202.750000
312.714052	233.200000
315.186740	229.200000
317.658767	220.300000
320.130133	258.950000
322.598754	256.900000
325.066717	261.200000
327.536101	241.050000
330.000663	232.600000
332.468729	233.300000
334.931975	222.500000
337.394563	231.100000
339.856495	230.400000
342.317770	239.950000
344.776311	251.750000
347.236274	319.350000
349.693504	447.150000
352.150080	745.600000
354.606002	1285.400000
357.059194	1516.150000
359.513809	1178.250000
361.963622	647.300000
364.416931	392.950000
366.865442	310.150000
369.313301	288.200000
371.762583	248.650000
374.207071	251.650000
376.652981	252.300000
379.098241	241.300000
381.540783	241.200000
383.982677	238.800000
386.423924	257.800000
388.862455	300.650000
391.302408	396.100000
393.739647	533.200000
396.174174	579.550000
398.612189	472.050000
401.045427	415.150000
403.480086	467.900000
405.909973	441.950000
408.343345	357.550000
410.771947	302.800000
413.199907	274.550000
415.629289	275.200000
418.053905	281.700000
420.479943	294.300000
422.905340	316.100000
425.330097	322.700000
427.750096	332.400000
430.171516	357.300000
432.590239	402.050000
435.010383	427.250000
437.427832	492.500000
439.846701	558.300000
442.262877	645.850000
444.674305	796.700000
447.089211	995.500000
449.501426	1301.400000
451.913007	1795.150000
454.323954	2615.350000
456.732215	4123.250000
459.139843	6877.400000
461.546839	11810.900000
463.953204	17316.400000
466.356886	19727.300000
468.759938	16442.450000
471.162360	10644.300000
473.564152	6369.250000
475.963267	4156.800000
478.363801	2935.300000
480.763706	2250.200000
483.158888	1796.200000
485.557537	1495.250000
487.951466	1281.650000
490.344769	1128.300000
492.737446	1016.850000
495.129498	919.700000
497.522968	805.600000
499.911726	745.300000
502.297818	695.750000
504.685330	686.950000
507.072219	770.050000
509.456444	888.750000
511.842087	895.450000
514.225069	749.050000
516.605390	568.150000
518.987130	468.400000
521.366211	419.550000
523.746711	398.400000
526.124553	370.850000
528.499740	358.750000
530.874309	327.100000
533.250296	333.650000
535.623631	315.400000
537.998383	311.950000
540.368450	295.750000
542.737901	282.900000
545.108770	287.700000
547.474959	255.450000
549.842566	263.000000
552.207527	255.350000
554.571875	236.750000
556.935610	230.550000
559.300763	234.250000
561.661244	209.700000
564.023143	216.400000
566.382401	204.500000
568.739022	201.200000
571.099087	197.450000
573.452461	202.500000
575.809280	197.950000
578.163464	184.750000
580.517039	189.500000
582.870007	198.500000
585.220342	181.100000
587.572095	190.550000
589.917171	199.150000
592.267711	194.100000
594.611577	202.300000
596.960905	181.950000
599.305584	173.100000
601.647639	182.200000
603.991111	181.350000
606.331960	170.800000
608.672207	157.350000
611.009833	167.000000
613.350894	151.750000
615.687317	152.150000
618.025157	153.950000
620.360380	150.000000
622.692987	149.850000
625.027010	149.700000
627.358419	148.950000
629.689230	140.800000
632.019444	140.700000
634.349059	143.450000
636.674051	148.250000
639.004485	150.350000
641.330298	137.850000
643.653503	142.100000
645.978125	135.350000
648.300141	133.000000
650.621563	141.400000
652.940383	130.800000
655.260618	132.300000
657.580260	122.900000
659.897301	129.150000
662.213750	131.950000
664.527601	124.450000
666.842868	113.900000
669.155538	117.150000
671.469623	124.850000
673.779108	127.300000
676.090009	123.350000
678.398317	120.250000
680.706037	142.250000
683.015171	140.800000
685.319713	144.700000
687.623669	165.550000
689.927039	168.550000
692.231823	199.600000
694.532021	228.750000
696.833633	259.300000
699.134661	252.550000
701.431106	207.300000
703.728967	176.050000
706.026244	149.600000
708.322938	127.500000
710.615056	128.450000
712.910585	126.950000
715.201540	131.050000
717.493910	129.450000
719.783705	123.800000
722.072919	117.400000
724.361554	108.900000
726.647616	126.800000
728.935093	115.500000
731.219998	126.550000
733.504326	116.050000
735.786085	118.550000
738.069258	108.000000
740.351854	108.950000
742.629894	123.800000
744.909349	122.800000
747.188227	117.850000
749.466531	131.550000
751.740285	122.950000
754.015452	120.450000
756.290046	103.050000
758.562081	124.600000
760.835529	122.200000
763.106419	118.750000
765.374753	123.950000
767.644500	127.000000
769.911693	121.250000
772.178315	123.250000
774.444367	137.750000
776.707868	147.300000
778.972782	129.300000
781.237126	149.250000
783.496941	144.450000
785.758168	148.750000
788.018828	171.650000
790.276942	160.500000
792.532511	190.650000
794.791471	199.600000
797.043932	225.800000
799.301759	250.050000
801.555068	302.650000
803.805837	393.000000
806.058018	530.000000
808.307660	696.150000
810.558715	734.250000
812.805258	645.300000
815.053213	453.750000
817.298634	330.900000
819.545466	244.200000
821.791737	214.800000
824.033503	192.650000
826.278653	179.250000
828.517330	151.550000
830.759389	159.100000
832.996950	154.250000
835.235923	156.450000
837.472369	155.500000
839.710226	152.050000
841.945558	135.000000
844.178367	147.250000
846.412587	145.000000
848.644284	164.100000
850.875427	147.850000
853.106015	139.300000
855.336049	149.850000
857.565529	132.600000
859.790527	136.350000
862.018900	138.400000
864.242793	129.700000
866.468098	135.950000
868.688927	125.800000
870.913128	126.050000
873.132856	125.250000
875.353994	121.150000
877.574582	133.350000
879.792661	127.450000
882.012149	129.400000
884.227171	143.300000
886.441645	148.700000
888.655572	154.800000
890.868952	147.650000
893.081784	150.950000
895.294070	144.050000
897.503853	142.900000
899.713091	133.600000
901.921784	137.700000
904.127978	114.550000
906.335581	134.550000
908.540686	125.450000
910.745248	130.750000
912.947315	133.300000
915.150791	139.900000
917.351773	144.500000
919.552213	131.550000
921.754062	145.600000
923.949520	147.950000
926.148337	142.800000
928.342715	130.900000
930.540451	121.350000
932.733751	128.750000
934.928460	130.850000
937.120683	119.500000
939.312367	127.350000
941.503514	119.450000
943.692178	120.350000
945.880306	123.250000
948.065953	113.950000
950.254952	129.150000
952.439528	113.150000
954.623569	117.850000
956.810960	115.550000
958.990047	111.400000
961.172485	111.450000
963.354389	121.850000
965.533818	121.850000
967.710775	102.050000
969.889140	125.900000
972.068912	107.950000
974.242335	115.850000
976.419104	113.600000
978.591466	108.800000
980.765236	106.650000
982.934602	117.950000
985.107312	111.950000
987.277557	113.600000
989.447273	112.400000
991.616460	111.950000
993.781250	105.000000
995.949381	110.400000
998.113118	111.700000
1000.278261	120.300000
1002.440945	121.000000
1004.603104	105.800000
1006.762806	118.750000
1008.921983	113.700000
1011.082567	114.900000
1013.240697	131.250000
1015.398302	114.200000
1017.555384	119.450000
1019.711942	109.000000
1021.864121	118.300000
1024.017707	117.600000
1026.170771	119.250000
1028.321386	112.300000
1030.473408	115.350000
1032.621056	134.550000
1034.772036	136.150000
1036.918645	124.750000
1039.064735	134.300000
1041.210307	130.300000
1043.357284	128.000000
1045.497972	142.850000
1047.641990	127.900000
1049.783567	139.200000
1051.924628	145.100000
1054.067093	147.450000
1056.203279	131.000000
1058.342790	144.200000
1060.477947	157.100000
1062.616428	162.100000
1064.750555	173.850000
1066.884169	180.250000
1069.019188	189.400000
1071.149857	200.750000
1073.281931	209.350000
1075.411576	237.400000
1077.540709	293.850000
1079.669330	389.400000
1081.797440	484.650000
1083.923124	508.000000
1086.048298	405.150000
1088.174876	298.850000
1090.297116	216.550000
1092.420761	185.150000
1094.540071	157.200000
1096.664611	144.000000
1098.782905	139.450000
1100.902604	130.650000
1103.019884	136.000000
1105.136658	137.700000
1107.252925	127.350000
1109.366776	129.400000
1111.482032	122.450000
1113.592964	116.150000
1115.707209	125.300000
1117.817133	125.400000
1119.928461	110.600000
1122.039284	112.900000
1124.145791	117.300000
1126.255608	120.550000
1128.361110	117.350000
1130.468015	98.450000
1132.568705	118.550000
1134.674607	112.800000
1136.776200	130.250000
1138.879196	113.400000
1140.981691	115.650000
1143.077979	120.750000
1145.179475	131.300000
1147.276667	136.250000
1149.373362	135.400000
1151.469558	178.450000
1153.565257	196.600000
1155.660457	241.700000
1157.753261	306.850000
1159.847468	362.200000
1161.935483	383.900000
1164.028696	351.550000
1166.115721	280.950000
1168.206045	207.500000
1170.292082	165.200000
1172.381416	138.550000
1174.464569	126.550000
1176.549124	115.650000
1178.635081	110.600000
1180.716756	108.950000
1182.799833	106.900000
1184.880524	121.650000
1186.960723	102.450000
1189.040431	107.300000
1191.119648	116.600000
1193.196483	98.000000
1195.270937	106.650000
1197.348682	103.550000
1199.422158	103.550000
1201.497034	100.600000
1203.567643	104.700000
1205.639653	101.000000
1207.709288	104.700000
1209.780323	107.400000
1211.850870	95.150000
1213.917156	108.700000
1215.984843	95.550000
1218.050158	116.400000
1220.116873	111.650000
1222.179332	125.950000
1224.245076	125.750000
1226.306566	142.800000
1228.369457	142.350000
1230.429980	142.950000
1232.490019	140.500000
1234.549576	151.700000
1236.606767	132.950000
1238.663477	122.150000
1240.717823	123.250000
1242.775451	102.650000
1244.830716	109.650000
1246.881740	114.250000
1248.934164	110.550000
1250.986108	109.550000
1253.035694	99.700000
1255.084801	106.600000
1257.133430	102.050000
1259.181580	108.400000
1261.229251	107.850000
1263.272692	103.550000
1265.319409	107.150000
1267.363772	102.600000
1269.407659	99.250000
1271.449194	106.150000
1273.488380	113.800000
1275.530839	111.500000
1277.569075	108.700000
1279.608710	97.750000
1281.647870	117.300000
1283.682811	91.550000
1285.719151	100.750000
1287.753147	103.600000
1289.788540	107.300000
1291.819721	102.300000
1293.852299	100.800000
1295.884406	103.400000
1297.914172	112.150000
1299.945336	104.050000
1301.972292	99.100000
1304.000646	94.600000
1306.024795	99.050000
1308.052210	96.600000
1310.075422	111.950000
1312.100032	116.850000
1314.122308	112.700000
1316.145981	125.800000
1318.167321	111.500000
1320.188193	118.750000
1322.208598	116.250000
1324.224810	115.750000
1326.242419	120.700000
1328.257700	119.650000
1330.276240	118.500000
1332.290591	123.100000
1334.302616	107.550000
1336.317898	129.450000
1338.328995	119.300000
1340.341489	117.700000
1342.349800	119.250000
1344.361366	119.050000
1346.366894	127.700000
1348.375677	122.750000
1350.380282	126.100000
1352.388141	120.100000
1354.395538	118.450000
1356.396904	111.000000
1358.399666	107.500000
1360.401969	120.750000
1362.403812	112.050000
1364.405195	95.450000
1366.404265	118.850000
1368.402876	104.850000
1370.401029	99.450000
1372.398723	94.100000
1374.392255	102.650000
1376.387182	96.800000
1378.381653	89.300000
1380.375667	102.950000
1382.367374	102.800000
1384.358626	94.150000
1386.347572	92.800000
1388.337913	93.050000
1390.327799	94.900000
1392.315381	103.400000
1394.302510	104.450000
1396.287337	90.100000
1398.273559	100.400000
1400.257481	91.200000
1402.240950	78.000000
1404.223966	98.800000
1406.204685	81.650000
1408.186798	87.950000
1410.166615	84.400000
1412.145980	96.500000
1414.121207	84.000000
1416.099672	90.950000
1418.075844	96.100000
1420.051567	86.450000
1422.026840	85.900000
1423.999822	103.200000
1425.972356	96.000000
1427.944442	90.650000
1429.916081	101.150000
1431.883591	91.750000
1433.856175	97.950000
1435.820953	89.500000
1437.790804	93.200000
1439.756531	89.700000
1441.723650	92.000000
1443.688486	102.350000
1445.649202	96.100000
1447.614986	92.700000
1449.574815	89.150000
1451.536038	92.650000
1453.498653	93.100000
1455.457153	94.150000
1457.415210	107.450000
1459.372826	101.950000
1461.329999	90.200000
1463.284897	92.050000
1465.241188	93.150000
1467.195204	88.000000
1469.148779	88.750000
1471.100082	101.150000
1473.052778	103.650000
1475.003201	90.450000
1476.953186	89.400000
1478.902732	96.150000
1480.850009	86.950000
1482.795018	95.450000
1484.741420	88.400000
1486.687384	84.050000
1488.632911	88.700000
1490.576172	90.400000
1492.518998	88.300000
1494.459560	95.150000
1496.401513	91.800000
1498.341204	101.700000
1500.280461	107.000000
1502.219282	80.950000
1504.155844	95.550000
1506.093797	100.900000
1508.029491	83.500000
1509.964752	106.000000
1511.897757	82.200000
1513.830329	96.800000
1515.762469	98.650000
1517.694177	86.300000
1519.623631	94.750000
1521.554476	96.400000
1523.484889	101.900000
1525.411230	107.450000
1527.338962	107.850000
1529.264443	92.000000
1531.189495	99.850000
1533.114118	100.600000
1535.038312	107.550000
1536.960258	125.850000
1538.883595	122.300000
1540.804685	127.400000
1542.723531	132.950000
1544.643767	122.850000
1546.561760	140.250000
1548.479326	132.000000
1550.394650	152.050000
1552.311364	163.750000
1554.224023	169.300000
1556.139886	187.200000
1558.053509	221.950000
1559.964894	222.700000
1561.877669	237.950000
1563.786394	260.650000
1565.696508	262.500000
1567.606199	271.600000
1569.515467	270.350000
1571.422501	252.200000
1573.327302	241.200000
1575.233492	227.050000
1577.137450	181.450000
1579.040987	193.600000
1580.944104	184.400000
1582.844991	176.150000
1584.747267	162.100000
1586.647315	164.950000
1588.548750	145.250000
1590.446152	140.450000
1592.343135	133.700000
1594.239700	148.100000
1596.137653	129.500000
1598.029771	136.350000
1599.925082	133.200000
1601.819976	137.300000
1603.712648	131.650000
1605.604903	131.600000
1607.494939	127.600000
1609.384559	113.950000
1611.273764	125.100000
1613.162554	117.300000
1615.049126	106.600000
1616.937086	129.900000
1618.821029	107.350000
1620.706359	117.300000
1622.591276	111.650000
1624.473979	110.500000
1626.358069	102.400000
1628.238147	102.450000
1630.119613	107.400000
1631.998868	109.250000
1633.879509	89.350000
1635.754346	97.750000
1637.634164	93.850000
1639.509978	93.150000
1641.385381	92.300000
1643.262170	87.400000
1645.133163	87.600000
1647.007337	108.300000
1648.877512	89.200000
1650.750869	88.200000
1652.622022	91.000000
1654.490973	86.200000
1656.361309	87.850000
1658.227653	83.200000
1660.095382	83.850000
1661.960912	90.400000
1663.827828	88.450000
1665.690755	81.850000
1667.555067	86.000000
1669.417183	84.600000
1671.278894	83.400000
1673.141991	90.550000
1675.002892	76.300000
1676.861601	85.050000
1678.719906	82.500000
1680.579596	90.900000
1682.433518	84.350000
1684.290614	89.850000
1686.147307	85.150000
1688.000023	81.600000
1689.855911	80.700000
1691.707825	80.400000
1693.559338	74.700000
1695.410450	72.600000
1697.261162	73.750000
1699.111473	83.300000
1700.959599	79.250000
1702.809110	63.350000
1704.652872	82.050000
1706.501583	69.800000
1708.344548	76.900000
1710.190680	72.250000
1712.032849	71.650000
1713.878184	79.750000
1715.717778	82.200000
1717.558756	62.450000
1719.401117	63.950000
1721.239522	67.700000
1723.079310	68.700000
1724.916923	72.750000
1726.754140	67.550000
1728.589184	69.950000
1730.425611	70.150000
1732.259866	64.650000
1734.093726	65.100000
1735.927192	68.200000
1737.756713	80.550000
1739.589392	76.100000
1741.418127	72.650000
1743.250019	76.900000
1745.077969	71.050000
1746.905528	67.950000
1748.732694	70.350000
1750.559469	72.500000
1752.385852	66.850000
1754.208299	63.850000
1756.033901	56.550000
1757.855568	66.400000
1759.678617	63.300000
1761.499504	60.900000
1763.320003	69.750000
1765.141882	57.100000
1766.958063	66.350000
1768.777395	61.950000
1770.592800	70.100000
1772.411355	70.800000
1774.225985	66.450000
1776.040228	66.750000
1777.854085	73.600000
1779.667555	87.500000
1781.478872	58.750000
1783.291569	78.350000
1785.103881	65.650000
1786.912275	74.400000
1788.722049	66.450000
1790.527909	83.450000
1792.336914	70.400000
1794.142006	56.900000
1795.948479	75.550000
1797.754568	66.850000
1799.556746	65.650000
1801.362069	60.250000
1803.163483	66.750000
1804.966277	65.700000
1806.765165	74.550000
1808.565434	70.700000
1810.365321	61.600000
1812.163066	61.050000
1813.960431	59.200000
1815.757416	65.050000
1817.554020	69.500000
1819.348485	69.050000
1821.144329	63.800000
1822.934518	74.850000
1824.729604	62.250000
1826.519038	72.750000
1828.311608	67.900000
1830.102043	68.800000
1831.890344	53.400000
1833.681780	70.950000
1835.467570	70.800000
1837.254740	66.650000
1839.039778	80.150000
1840.827950	71.100000
1842.612236	74.400000
1844.394392	66.850000
1846.177928	65.700000
1847.959335	75.650000
1849.742121	71.900000
1851.521026	66.100000
1853.301311	67.100000
1855.079469	73.650000
1856.859006	61.150000
1858.636418	61.950000
1860.411706	59.450000
1862.188372	75.350000
1863.962916	65.700000
1865.738838	71.150000
1867.509139	67.750000
1869.282568	67.950000
1871.053877	66.750000
1872.824815	73.750000
1874.597131	79.900000
1876.363833	71.250000
1878.133661	67.000000
1879.899625	60.200000
1881.668712	64.250000
1883.433938	63.400000
1885.198796	59.700000
1886.965031	60.650000
1888.727407	62.250000
1890.489416	65.900000
1892.251057	67.550000
1894.012332	60.450000
1895.773239	62.150000
1897.533780	71.150000
1899.292211	71.800000
1901.050276	68.400000
1902.806234	64.950000
1904.563568	68.600000
1906.320537	61.900000
1908.075399	72.350000
1909.828157	62.800000
1911.580550	68.300000
1913.334320	62.350000
1915.085986	71.900000
1916.835550	64.850000
1918.586489	67.200000
1920.337066	64.400000
1922.083803	67.100000
1923.831917	79.400000
1925.577931	70.200000
1927.325320	67.550000
1929.070612	70.100000
1930.813806	75.400000
1932.558375	67.500000
1934.300849	77.550000
1936.042962	78.400000
1937.784715	72.950000
1939.526108	59.050000
1941.265408	68.500000
1943.004349	56.300000
1944.742931	80.500000
1946.479422	67.000000
1948.215555	66.100000
1949.953062	65.200000
1951.686747	75.600000
1953.421807	69.400000
1955.154778	75.150000
1956.887393	54.050000
1958.619652	62.000000
1960.351554	54.250000
1962.081370	69.400000
1963.809101	64.300000
1965.538207	58.350000
1967.266958	63.100000
1968.993625	60.100000
1970.719938	73.450000
1972.447624	70.550000
1974.169774	66.600000
1975.895025	65.350000
1977.616469	61.900000
1979.341014	72.200000
1981.063478	74.250000
1982.782140	81.850000
1984.503900	58.900000
1986.221858	67.000000
1987.941189	68.100000
1989.656721	73.800000
1991.377073	76.500000
1993.093627	60.450000
1994.806384	65.750000
1996.522237	67.600000
1998.236018	71.300000
1999.949449	77.250000
2001.660809	68.300000
2003.373541	63.400000
2005.082483	72.400000
2006.794517	71.600000
2008.501043	75.700000
2010.210660	74.950000
2011.918211	81.900000
2013.625413	78.200000
2015.330550	91.950000
2017.035341	65.900000
2018.741503	72.500000
2020.443883	68.950000
2022.147634	78.300000
2023.849323	63.950000
2025.550667	65.950000
2027.251665	63.400000
2028.950602	77.000000
2030.650911	62.850000
2032.347445	77.750000
2034.045350	63.600000
2035.741196	66.550000
2037.440128	61.800000
2039.133574	63.500000
2040.828391	56.300000
2042.522866	71.950000
2044.213572	63.900000
2045.907362	68.000000
2047.597385	71.750000
2049.288779	80.300000
2050.978120	59.800000
2052.668831	62.900000
2054.355779	68.500000
2056.042388	69.300000
2057.730366	57.400000
2059.414585	73.400000
2061.100175	76.550000
2062.785425	64.500000
2064.468626	58.000000
2066.153198	64.350000
2067.832307	70.400000
2069.516201	67.550000
2071.194634	49.300000
2072.876145	73.400000
2074.553904	66.350000
2076.231327	64.200000
2077.910119	56.150000
2079.586869	69.650000
2081.261577	64.400000
2082.937654	61.100000
2084.611691	70.300000
2086.285392	68.600000
2087.958758	76.500000
2089.630085	60.950000
2091.301078	60.700000
2092.971737	55.200000
2094.642062	65.200000
2096.312053	49.300000
2097.980008	52.550000
2099.647630	63.800000
2101.313217	73.700000
2102.980173	65.500000
2104.645096	56.400000
2106.309687	66.650000
2107.972246	54.950000
2109.636173	68.400000
2111.298069	59.900000
2112.959635	62.800000
2114.620869	66.550000
2116.280075	74.500000
2117.938950	65.300000
2119.597496	72.950000
2121.255711	77.050000
2122.910204	72.800000
2124.567761	63.100000
2126.224989	63.350000
2127.878495	70.300000
2129.533369	81.500000
2131.184524	57.650000
2132.838742	75.800000
2134.489243	60.050000
2136.141110	67.300000
2137.787569	62.400000
2139.438783	68.550000
2141.086283	58.700000
2142.735150	71.150000
2144.381998	65.050000
2146.028521	70.600000
2147.674718	67.050000
2149.317207	70.050000
2150.962754	76.050000
2152.604594	76.900000
2154.249491	63.100000
2155.890682	73.100000
2157.531551	74.750000
2159.172095	70.300000
2160.810627	61.950000
2162.450525	71.500000
2164.086723	63.900000
2165.724287	69.600000
2167.361529	61.600000
2168.996761	76.000000
2170.631672	65.950000
2172.266260	59.650000
2173.900528	58.100000
2175.531102	67.100000
2177.164728	66.200000
2178.794662	57.050000
2180.425961	61.000000
2182.055255	70.700000
2183.684230	72.200000
2185.312885	66.200000
2186.941221	62.550000
2188.567555	66.250000
2190.193570	64.850000
2191.817583	69.350000
2193.442962	64.850000
2195.066340	59.100000
2196.691083	74.250000
2198.312145	67.450000
2199.932890	70.500000
2201.555000	57.450000
2203.175112	70.800000
2204.793227	77.000000
2206.411027	58.950000
2208.028512	58.250000
2209.645681	61.900000
2211.262535	58.950000
2212.879073	62.450000
2214.493619	69.950000
2216.106172	67.800000
2217.720089	61.700000
2219.332015	68.950000
2220.945304	55.300000
2222.556603	71.550000
2224.165912	60.850000
2225.776585	54.850000
2227.385269	70.300000
2228.993640	64.600000
2230.600025	64.750000
2232.207773	63.200000
2233.813534	56.300000
2235.418984	79.200000
2237.022449	70.200000
2238.627277	69.750000
2240.230121	72.400000
2241.830982	61.600000
2243.433206	64.150000
2245.033448	69.700000
2246.635052	66.800000
2248.233003	55.700000
2249.832317	58.450000
2251.429651	52.150000
2253.026677	66.550000
2254.625065	63.200000
2256.219804	54.000000
2257.812566	65.650000
2259.406691	62.100000
2261.002177	61.050000
2262.594018	64.850000
2264.185553	57.650000
2265.778450	72.600000
2267.366037	67.400000
2268.958320	68.300000
2270.545297	65.350000
2272.135301	55.200000
2273.720001	63.250000
2275.309395	58.500000
2276.893487	56.800000
2278.478939	66.000000
2280.062423	62.300000
2281.648932	63.600000
2283.231808	66.050000
2284.814381	61.350000
2286.396650	74.850000
2287.975289	72.250000
2289.556953	61.150000
2291.134988	60.350000
2292.716046	71.100000
2294.293477	65.925000
2295.868945	60.750000
2297.447435	76.000000
2299.022301	66.950000
2300.596866	62.350000
2302.171131	54.350000
2303.745095	66.750000
2305.318758	51.450000
2306.892122	64.800000
2308.461867	55.150000
2310.031313	60.850000
2311.603777	68.100000
2313.170967	68.850000
2314.741175	57.700000
2316.307768	65.500000
2317.875721	65.450000
2319.441718	64.650000
2321.007418	66.350000
2322.572820	65.400000
2324.136269	59.900000
2325.701077	65.700000
2327.262277	69.950000
2328.826491	85.150000
2330.385443	81.700000
2331.947410	82.100000
2333.507425	66.350000
2335.067146	55.900000
2336.624917	57.250000
2338.182393	68.400000
2339.739575	64.800000
2341.294809	67.650000
2342.849750	52.700000
2344.404396	63.600000
2345.958749	64.400000
2347.512809	53.000000
2349.066574	59.350000
2350.618395	60.700000
2352.168274	61.000000
2353.721160	66.250000
2355.268803	62.550000
2356.819455	66.050000
2358.366515	64.050000
2359.914933	80.850000
2361.463060	62.150000
2363.007598	64.150000
2364.553494	54.200000
2366.097452	66.050000
2367.642767	68.600000
2369.184497	65.200000
2370.727584	68.050000
2372.268735	71.350000
2373.809597	81.400000
2375.350170	63.600000
2376.890454	64.800000
2378.430449	66.500000
2379.966866	73.350000
2381.506284	73.600000
2383.042124	67.050000
2384.579322	61.500000
2386.112944	61.700000
2387.649566	62.600000
2389.184258	67.450000
2390.717020	68.950000
2392.249495	67.400000
2393.780042	70.300000
2395.313587	61.300000
2396.841921	61.600000
2398.371612	82.750000
2399.901016	64.800000
2401.430136	63.350000
2402.958971	68.100000
2404.482600	70.100000
2406.010865	73.750000
2407.533928	56.700000
2409.061624	65.750000
2410.582481	74.050000
2412.107971	67.100000
2413.629900	73.450000
2415.153185	63.400000
2416.674548	68.850000
2418.193992	70.550000
2419.714791	78.700000
2421.233672	66.150000
2422.752270	80.350000
2424.268951	75.450000
2425.786986	70.100000
2427.304740	71.550000
2428.818943	71.150000
2430.332865	73.900000
2431.846507	75.350000
2433.361504	64.700000
2434.872952	64.950000
2436.385755	73.550000
2437.896644	69.500000
2439.407255	80.100000
2440.915954	71.700000
2442.427639	82.850000
2443.935781	58.900000
2445.443645	66.500000
2446.951231	79.400000
2448.455276	67.550000
2449.962306	67.550000
2451.467428	67.700000
2452.972273	64.400000
2454.475211	62.200000
2455.977873	66.600000
2457.480258	74.050000
2458.980738	73.950000
2460.482571	72.000000
2461.982499	59.300000
2463.482152	63.500000
2464.981530	69.000000
2466.479005	76.950000
2467.974578	58.350000
2469.473131	63.500000
2470.968156	69.100000
2472.464533	77.450000
2473.957384	49.450000
2475.451588	58.150000
2476.945518	62.000000
2478.435924	73.400000
2479.929308	56.850000
2481.420794	66.050000
2482.910383	48.650000
2484.399700	67.300000
2485.887121	65.850000
2487.377518	68.050000
2488.864397	67.900000
2490.352627	60.950000
2491.837340	60.450000
2493.321784	63.900000
2494.807578	56.050000
2496.291481	51.150000
2497.776734	79.100000
2499.256854	57.950000
2500.739947	65.650000
2502.221149	58.700000
2503.702082	82.850000
2505.181126	60.500000
2506.659901	61.750000
2508.138408	70.350000
2509.616647	66.650000
2511.094617	65.550000
2512.569082	63.000000
2514.046517	62.150000
2515.520448	66.850000
2516.995729	74.750000
2518.470743	58.300000
2519.942256	63.900000
2521.415120	65.900000
2522.886101	64.200000
2524.358432	58.200000
2525.825649	82.200000
2527.295833	70.700000
2528.764136	73.800000
2530.232174	54.200000
2531.699947	58.000000
2533.167455	64.600000
2534.634698	60.800000
2536.098449	70.500000
2537.563550	66.450000
2539.026774	58.750000
2540.491347	59.000000
2541.952432	64.850000
2543.414866	66.500000
2544.877037	61.450000
2546.335722	72.900000
2547.798978	58.400000
2549.257139	56.250000
2550.716648	59.250000
2552.171063	60.950000
2553.630049	67.250000
2555.087163	68.100000
2556.542406	56.400000
2557.997387	75.100000
2559.450500	51.800000
2560.904961	62.300000
2562.357552	64.500000
2563.809884	63.300000
2565.260349	60.400000
2566.713769	54.000000
2568.162107	61.800000
2569.613400	74.750000
2571.062828	64.550000
2572.508783	67.200000
2573.957693	62.100000
2575.403133	71.950000
2576.849920	78.050000
2578.294845	83.150000
2579.739511	56.700000
2581.185525	66.900000
2582.628073	55.950000
2584.071968	65.650000
2585.512398	66.000000
2586.954175	65.650000
2588.394093	69.050000
2589.835358	72.950000
2591.273161	62.800000
2592.713914	66.600000
2594.149605	65.900000
2595.588245	63.100000
2597.025027	78.200000
2598.459954	64.400000
2599.897828	66.800000
2601.330645	71.950000
2602.764809	72.450000
2604.197119	85.700000
2605.630775	68.750000
2607.062578	74.900000
2608.494127	66.150000
2609.925424	80.450000
2611.354868	72.450000
2612.784060	73.350000
2614.211402	69.300000
2615.640089	69.350000
2617.068525	79.100000
2618.493513	66.700000
2619.919848	65.700000
2621.344334	62.650000
2622.770166	75.650000
2624.192554	80.850000
2625.616288	73.450000
2627.038175	76.300000
2628.459813	73.400000
2629.879605	72.000000
2631.300743	76.300000
2632.721631	77.950000
2634.139081	77.550000
2635.559470	70.200000
2636.976422	86.800000
2638.393125	83.550000
2639.809580	73.850000
2641.225787	88.000000
2642.641746	81.650000
2644.055864	84.100000
2645.469734	86.650000
2646.881766	79.900000
2648.295141	83.850000
2649.705087	84.800000
2651.117969	99.650000
2652.527422	90.950000
2653.936629	79.650000
2655.344000	94.150000
2656.754305	89.500000
2658.162775	86.750000
2659.569409	87.050000
2660.975798	99.250000
2662.380353	86.200000
2663.786252	96.250000
2665.190318	93.950000
2666.594139	102.600000
2667.997716	93.250000
2669.399462	93.700000
2670.802551	89.850000
2672.202222	113.800000
2673.603237	89.500000
2675.000836	105.650000
2676.401365	108.350000
2677.798478	97.650000
2679.196935	105.250000
2680.593565	98.350000
2681.989952	101.050000
2683.386097	100.400000
2684.780416	101.550000
2686.176078	103.400000
2687.568331	100.050000
2688.961926	107.800000
2690.353697	98.400000
2691.746811	114.350000
2693.138101	98.250000
2694.527568	101.100000
2695.916795	104.900000
2697.305783	99.500000
2698.696112	88.700000
2700.081458	97.950000
2701.469727	91.950000
2702.856176	102.450000
2704.242386	90.800000
2705.628357	90.100000
2707.010930	106.550000
2708.394845	90.550000
2709.778522	84.500000
2711.161960	80.100000
2712.542004	80.600000
2713.923388	90.850000
2715.302958	91.400000
2716.683868	71.450000
2718.062964	84.350000
2719.440246	78.550000
2720.818869	82.400000
2722.195679	80.900000
2723.572252	75.950000
2724.948590	70.400000
2726.323117	65.350000
2727.698984	69.750000
2729.071464	65.700000
2730.446860	90.650000
2731.817296	69.450000
2733.189073	71.350000
2734.560615	64.250000
2735.930349	81.750000
2737.301424	67.400000
2738.670690	67.650000
2740.039723	67.000000
2741.406950	65.250000
2742.773943	63.750000
2744.140704	60.350000
2745.507233	64.600000
2746.871956	67.850000
2748.236447	62.500000
2749.600707	65.050000
2750.964734	64.350000
2752.328530	68.950000
2753.688952	65.300000
2755.052284	57.000000
2756.410674	47.850000
2757.771974	64.100000
2759.129904	63.400000
2760.490742	62.300000
2761.849781	64.200000
2763.205451	59.950000
2764.564029	58.700000
2765.919240	66.700000
2767.274222	56.350000
2768.627408	64.500000
2769.983500	63.350000
2771.336227	50.050000
2772.688727	58.600000
2774.040998	64.850000
2775.394607	46.250000
2776.744856	67.200000
2778.093310	56.550000
2779.444670	58.150000
2780.792670	44.700000
2782.142008	58.050000
2783.489554	60.150000
2784.836874	60.950000
2786.183967	57.900000
2787.529269	59.700000
2788.874344	48.000000
2790.219194	56.450000
2791.563818	46.500000
2792.905090	52.450000
2794.247700	57.000000
2795.590084	57.300000
2796.932243	45.700000
2798.271053	52.500000
2799.612763	51.150000
2800.951125	67.500000
2802.290823	48.200000
2803.628737	52.100000
2804.964866	54.000000
2806.300771	60.300000
2807.638014	61.000000
2808.973473	59.700000
2810.308709	48.500000
2811.642162	65.300000
2812.976952	56.000000
2814.308402	63.250000
2815.642747	51.350000
2816.972194	72.850000
2818.302978	52.850000
2819.633540	70.350000
2820.962323	59.600000
2822.292442	55.650000
2823.620783	52.750000
2824.948903	58.200000
2826.275245	59.050000
2827.602924	56.000000
2828.927269	53.850000
2830.252951	74.200000
2831.576857	50.700000
2832.900544	64.450000
2834.225566	40.600000
2835.547258	50.800000
2836.868732	36.000000
2838.189987	56.200000
2839.511023	47.200000
2840.830286	41.200000
2842.150885	53.300000
2843.469713	54.050000
2844.788322	61.750000
2846.105160	60.450000
2847.421781	56.400000
2848.738185	50.500000
2850.052819	41.250000
2851.368789	61.500000
2852.681438	47.500000
2853.995422	56.200000
2855.309190	49.300000
2856.622741	54.850000
2857.934526	70.550000
2859.244544	55.050000
2860.555897	66.400000
2861.863935	61.800000
2863.173307	62.600000
2864.482465	51.300000
2865.791407	40.650000
2867.098585	57.800000
2868.404001	52.500000
2869.710750	52.200000
2871.015738	44.600000
2872.320512	48.750000
2873.623524	47.450000
2874.929417	54.550000
2876.230456	61.150000
2877.532829	45.850000
2878.833442	50.000000
2880.135389	54.300000
2881.437122	57.000000
2882.735552	47.350000
2884.035315	47.900000
2885.333321	56.350000
2886.631115	47.450000
2887.927153	47.450000
2889.224524	52.150000
2890.520139	58.150000
2891.815543	51.250000
2893.110736	68.200000
2894.402632	54.050000
2895.697404	50.700000
2896.988879	55.600000
2898.281687	60.350000
2899.574285	45.300000
2900.863589	52.950000
2902.154225	44.950000
2903.443110	54.550000
2904.733327	45.100000
2906.020253	52.200000
2907.308511	47.750000
2908.595020	59.250000
2909.881320	44.550000
2911.167413	55.950000
2912.451757	45.400000
2913.738972	54.550000
2915.021361	58.500000
2916.305082	55.550000
2917.587057	47.900000
2918.868824	69.700000
2920.148847	63.500000
2921.431739	63.750000
2922.712886	59.700000
2923.990751	58.550000
2925.271485	63.500000
2926.548938	48.600000
2927.826185	51.900000
2929.101690	56.150000
2930.380063	51.800000
2931.653622	52.250000
2932.930048	47.850000
2934.204733	54.650000
2935.477677	39.300000
2936.751953	47.050000
2938.024489	52.350000
2939.296820	55.100000
2940.565879	49.850000
2941.837803	65.400000
2943.107989	60.050000
2944.377971	52.350000
2945.647750	51.450000
2946.915793	64.000000
2948.182099	51.550000
2949.448204	53.950000
2950.715638	56.200000
2951.981338	61.250000
2953.246835	43.850000
2954.512130	57.200000
2955.774160	53.350000
2957.037520	46.450000
2958.300679	45.100000
2959.562106	58.650000
2960.824862	51.200000
2962.085886	60.050000
2963.345180	49.750000
2964.604274	54.900000
2965.863167	45.000000
2967.121860	51.900000
2968.380353	50.300000
2969.637117	53.450000
2970.893681	48.350000
2972.148518	48.200000
2973.404683	45.750000
2974.657594	44.150000
2975.911834	45.400000
2977.165875	48.600000
2978.418190	51.200000
2979.670306	54.600000
2980.920698	56.300000
2982.173945	50.500000
2983.422415	44.800000
2984.673740	46.800000
2985.921815	51.000000
2987.169694	49.300000
2988.417375	56.750000
2989.664859	52.250000
2990.910622	58.000000
2992.156189	57.600000
2993.403083	46.950000
2994.646733	56.550000
2995.891711	63.000000
2997.133445	58.650000
2998.378031	53.650000
2999.620898	47.300000
3000.860524	47.200000
3002.103000	39.400000
3003.342236	55.300000
3004.582800	58.950000
3005.821648	52.450000
3007.060300	48.000000
3008.297237	39.300000
3009.535502	55.400000
3010.772051	49.100000
3012.008407	49.100000
3013.244569	54.400000
3014.479017	58.200000
3015.713273	57.550000
3016.947335	48.350000
3018.179685	48.700000
3019.410323	44.950000
3020.643807	43.300000
3021.875579	44.450000
3023.105641	46.400000
3024.335510	45.700000
3025.563671	48.100000
3026.793157	46.800000
3028.020934	55.350000
3029.248520	51.450000
3030.477433	62.900000
3031.701603	53.850000
3032.928616	41.950000
3034.152405	58.200000
3035.377521	42.650000
3036.600930	48.750000
3037.824149	46.900000
3039.045663	49.700000
3040.270018	41.800000
3041.489638	55.500000
3042.710584	38.350000
3043.931341	53.050000
3045.150394	37.000000
3046.370772	41.600000
3047.587934	45.550000
3048.806422	50.550000
3050.023207	45.150000
3051.239805	27.800000
3052.456214	46.750000
3053.669411	47.500000
3054.885445	32.850000
3056.098267	38.050000
3057.313926	45.500000
3058.524862	41.800000
3059.737123	44.000000
3060.949198	48.000000
3062.161085	49.000000
3063.371276	41.000000
3064.581280	52.100000
3065.791098	49.550000
3066.999220	45.550000
3068.207157	49.600000
3069.413398	36.750000
3070.620964	48.650000
3071.826835	46.000000
3073.032522	43.350000
3074.238023	45.500000
3075.441831	48.050000
3076.646963	46.550000
3077.850402	45.150000
3079.052150	47.000000
3080.253713	46.950000
3081.455093	39.450000
3082.656289	56.800000
3083.855795	41.700000
3085.055118	47.250000
3086.255764	41.650000
3087.454720	47.000000
3088.650482	37.700000
3089.849073	54.300000
3091.044470	42.600000
3092.241190	54.150000
3093.434718	37.350000
3094.631074	46.000000
3095.825744	40.900000
3097.017223	39.600000
3098.213033	45.400000
3099.404149	31.200000
3100.596589	37.750000
3101.785841	48.450000
3102.977918	50.900000
3104.168312	35.150000
3105.355520	38.850000
3106.544051	47.400000
3107.733903	41.000000
3108.920572	38.000000
3110.107060	47.450000
3111.293370	50.000000
3112.481001	48.650000
3113.665450	53.300000
3114.848220	57.550000
3116.033812	55.650000
3117.217725	41.500000
3118.399959	55.250000
3119.582014	33.850000
3120.763891	49.600000
3121.945590	37.150000
3123.125612	49.650000
3124.303957	51.400000
3125.485122	51.200000
3126.663112	31.350000
3127.840926	36.350000
3129.018562	43.400000
3130.194523	39.100000
3131.370307	41.000000
3132.547413	44.800000
3133.722844	37.950000
3134.896602	52.050000
3136.068687	50.150000
3137.242094	37.700000
3138.415324	39.450000
3139.586883	41.350000
3140.759762	41.150000
3141.929474	38.100000
3143.100507	42.500000
3144.269870	46.800000
3145.437562	34.600000
3146.608070	49.900000
3147.773920	24.400000
3148.944078	42.900000
3150.109580	33.100000
3151.274907	44.250000
3152.440061	42.800000
3153.605042	37.250000
3154.771342	41.800000
3155.932990	45.050000
3157.095957	39.950000
3158.258752	48.700000
3159.421374	38.950000
3160.582331	41.150000
3161.743115	42.150000
3162.903727	44.350000
3164.062675	51.000000
3165.221452	36.100000
3166.380057	37.450000
3167.538489	39.950000
3168.696751	31.750000
3169.853350	42.050000
3171.008288	40.800000
3172.164545	42.900000
3173.319141	40.500000
3174.473567	43.600000
3175.626333	38.200000
3176.778928	35.850000
3177.931354	42.800000
3179.083610	30.350000
3180.235695	37.850000
3181.384635	37.650000
3182.536381	40.000000
3183.686469	46.400000
3184.834901	46.700000
3185.983163	36.400000
3187.131257	43.250000
3188.279182	42.400000
3189.425451	55.050000
3190.571552	46.350000
3191.715999	45.800000
3192.860278	46.850000
3194.004389	41.050000
3195.149817	49.700000
3196.292107	43.450000
3197.434230	33.950000
3198.576185	43.050000
3199.717973	53.000000
3200.859594	41.400000
3201.998080	42.150000
3203.137883	46.200000
3204.279004	35.050000
3205.416990	44.300000
3206.553327	41.350000
3207.689498	40.650000
3208.826986	36.650000
3209.962826	40.250000
3211.099983	41.600000
3212.232527	37.050000
3213.369353	33.100000
3214.501567	49.950000
3215.635098	30.900000
3216.768465	42.800000
3217.898704	32.300000
3219.031741	45.400000
3220.161652	47.800000
3221.292879	36.800000
3222.420982	31.200000
3223.551881	27.250000
3224.681136	37.250000
3225.808748	44.750000
3226.933237	39.300000
3228.062002	39.900000
3229.187645	32.950000
3230.313126	38.250000
3231.436965	43.850000
3232.563598	40.400000
3233.685634	43.250000
3234.808986	47.000000
3235.932176	43.450000
3237.055203	35.900000
3238.176592	38.050000
3239.297818	42.950000
3240.417407	49.450000
3241.536834	42.100000
3242.654623	39.550000
3243.775204	38.600000
3244.892672	31.000000
3246.009979	32.700000
3247.127126	41.700000
3248.242637	34.850000
3249.359462	41.350000
3250.473178	34.650000
3251.589683	32.550000
3252.704554	43.050000
3253.816316	40.000000
3254.927918	41.050000
3256.040836	33.150000
3257.153594	23.150000
3258.263246	35.100000
3259.374213	31.150000
3260.485021	42.550000
3261.594197	34.750000
3262.701743	41.350000
3263.810602	41.700000
3264.919304	31.250000
3266.024903	42.850000
3267.131816	43.900000
3268.237100	27.950000
3269.343698	40.600000
3270.447196	25.650000
3271.552009	32.300000
3272.656664	43.550000
3273.758220	26.250000
3274.859620	31.750000
3275.962334	32.900000
3277.064892	39.900000
3278.164353	51.050000
3279.266598	44.300000
3280.365747	44.100000
3281.463272	25.850000
3282.560641	38.850000
3283.660792	37.200000
3284.757851	36.100000
3285.854754	38.250000
3286.951502	33.400000
3288.043692	40.050000
3289.140130	33.700000
3290.234946	42.800000
3291.329608	36.200000
3292.422648	27.700000
3293.515533	46.150000
3294.606799	36.750000
3295.699376	42.650000
3296.790334	21.450000
3297.879672	41.000000
3298.968857	31.350000
3300.059355	30.450000
3301.146768	21.150000
3302.234028	50.200000
3303.322601	35.000000
3304.411022	31.100000
3305.494895	49.100000
3306.583010	32.450000
3307.668043	35.800000
3308.751461	34.250000
3309.836191	35.300000
3310.919305	38.300000
3312.003732	33.450000
3313.085080	37.950000
3314.167740	31.700000
3315.248786	24.550000
3316.329681	35.200000
3317.408962	38.350000
3318.488093	36.450000
3319.568536	31.150000
3320.645904	40.200000
3321.724584	42.950000
3322.801652	32.400000
3323.878571	38.300000
3324.953878	29.650000
3326.029036	36.550000
3327.105505	36.250000
3328.178904	32.350000
3329.252154	38.700000
3330.326714	38.250000
3331.399666	25.300000
3332.471009	42.450000
3333.543663	36.050000
3334.613251	35.800000
3335.684149	34.000000
3336.753440	48.350000
3337.824042	29.500000
3338.893037	33.300000
3339.960426	31.750000
3341.026210	26.750000
3342.096220	34.400000
3343.163167	23.950000
3344.227052	34.750000
3345.293705	31.900000
3346.358753	34.350000
3347.422198	43.200000
3348.485497	27.100000
3349.548649	37.350000
3350.611655	32.050000
3351.674515	44.300000
3352.735773	16.850000
3353.793974	25.300000
3354.856395	37.750000
3355.915761	30.950000
3356.974981	30.400000
3358.035511	34.200000
3359.091531	32.050000
3360.150315	35.800000
3361.204592	36.900000
3362.261633	32.100000
3363.317075	34.300000
3364.373827	40.150000
3365.428980	35.700000
3366.482536	35.000000
3367.534496	35.700000
3368.589217	35.900000
3369.640889	28.200000
3370.692418	29.350000
3371.745255	35.200000
3372.795045	25.100000
3373.846144	24.350000
3374.894197	23.100000
3375.945009	38.000000
3376.992777	31.050000
3378.040402	40.150000
3379.087884	28.300000
3380.133774	34.200000
3381.180972	34.250000
3382.225128	25.200000
3383.272042	31.300000
3384.317364	36.100000
3385.359645	30.550000
3386.401786	38.900000
3387.445234	32.850000
3388.488541	27.700000
3389.530259	26.300000
3390.571835	34.450000
3391.613270	32.300000
3392.653117	31.500000
3393.691375	20.650000
3394.730941	39.700000
3395.770367	23.700000
3396.808205	18.700000
3397.844456	30.000000
3398.880568	30.100000
3399.917987	35.200000
3400.952373	31.050000
3401.988066	40.800000
3403.023620	22.750000
3404.056143	41.900000
3405.091419	39.000000
3406.123664	28.600000
3407.155771	29.850000
3408.186294	35.950000
3409.218124	24.000000
3410.249816	32.350000
3411.278480	22.750000
3412.307007	32.600000
3413.336840	38.400000
3414.366536	40.700000
3415.393206	29.900000
3416.421183	30.800000
3417.446135	21.600000
3418.473837	33.600000
3419.498516	17.050000
3420.524501	38.400000
3421.548906	32.600000
3422.573175	29.400000
3423.595865	28.850000
3424.618419	31.200000
3425.642279	32.050000
3426.663119	50.350000
3427.683823	31.400000
3428.705834	32.850000
3429.724826	36.450000
3430.743682	32.450000
3431.763845	39.600000
3432.780991	31.300000
