-116.475622	1.100000
-113.806022	4.700000
-111.139357	16.750000
-108.473444	15.400000
-105.810463	10.250000
-103.146053	3.150000
-100.484573	8.050000
-97.821664	1.150000
-95.163861	5.450000
-92.504629	-3.100000
-89.846145	-0.600000
-87.190585	17.050000
-84.533597	1.500000
-81.881707	4.850000
-79.228387	5.400000
-76.577986	17.600000
-73.926156	8.400000
-71.279417	2.750000
-68.631249	2.300000
-65.983823	5.400000
-63.339311	-1.200000
-60.693371	-5.450000
-58.052512	0.400000
-55.410224	4.500000
-52.770845	2.600000
-50.130036	7.050000
-47.489968	6.050000
-44.854972	20.850000
-42.218548	1.050000
-39.585026	0.550000
-36.950076	6.400000
-34.320191	7.600000
-31.686714	-9.050000
-29.058299	9.550000
-26.430618	1.100000
-23.801508	8.200000
-21.177455	19.750000
-18.549813	7.250000
-15.927224	15.150000
-13.305367	19.200000
-10.684240	42.600000
-8.063843	111.550000
-5.446335	343.750000
-2.827398	1067.600000
-0.211346	2552.600000
2.403977	2875.450000
5.018573	1545.950000
7.630286	155.400000
10.243428	42.550000
12.851536	13.800000
15.463226	10.800000
18.069885	12.150000
20.677972	3.650000
23.285335	10.300000
25.887673	9.600000
28.493589	20.600000
31.094483	12.500000
33.696805	4.600000
36.294110	10.000000
38.894990	6.900000
41.490855	13.650000
44.088149	15.700000
46.684723	11.450000
49.276288	4.250000
51.869281	3.050000
54.459413	0.550000
57.050973	4.250000
59.639673	2.250000
62.229800	10.650000
64.814928	10.950000
67.401484	5.300000
69.987326	17.700000
72.570314	10.800000
75.154728	7.250000
77.732014	4.350000
80.312866	3.150000
82.890869	9.350000
85.468162	-14.400000
88.046881	3.700000
90.620618	15.050000
93.195783	16.100000
95.768104	15.850000
98.339717	18.750000
100.908490	16.550000
103.478690	15.650000
106.046052	15.750000
108.614839	26.550000
111.180790	17.350000
113.743906	12.800000
116.310578	19.950000
118.868029	28.500000
121.431165	56.050000
123.989341	91.650000
126.551072	159.000000
129.107846	272.250000
131.666047	331.400000
134.219294	316.650000
136.771844	306.800000
139.327944	405.000000
141.879096	547.800000
144.429551	702.250000
146.979308	827.850000
149.526246	900.500000
152.072489	908.200000
154.620157	874.300000
157.167129	841.300000
159.709166	800.900000
162.250509	794.450000
164.791159	857.100000
167.333235	922.850000
169.872499	1035.550000
172.408955	1148.450000
174.944719	1268.650000
177.481909	1465.900000
180.018408	1653.800000
182.552101	1952.750000
185.082990	2290.400000
187.613192	2732.800000
190.144818	3349.550000
192.673643	4132.400000
195.199669	5182.800000
197.725009	6403.500000
200.251774	7752.750000
202.775743	9094.300000
205.299027	10137.000000
207.821626	10524.700000
210.341432	10142.950000
212.860555	9284.850000
215.378995	8036.200000
217.898859	6713.500000
220.411722	5523.100000
222.928116	4524.100000
225.443828	3756.900000
227.954650	3144.300000
230.466897	2688.000000
232.976362	2287.700000
235.485148	1994.650000
237.993255	1760.750000
240.502787	1574.600000
243.007438	1430.850000
245.511413	1319.500000
248.016812	1263.150000
250.517336	1161.700000
253.021384	1113.900000
255.518460	1092.350000
258.019060	1133.050000
260.516888	1259.400000
263.014043	1583.100000
265.510525	1897.150000
268.002144	1772.500000
270.497283	1228.400000
272.989655	818.000000
275.481357	618.450000
277.970296	536.750000
280.460659	496.500000
282.948259	449.850000
285.433100	411.400000
287.921456	404.650000
290.402872	378.050000
292.887802	351.800000
295.367887	350.100000
297.851484	331.150000
300.330238	321.650000
302.810416	317.200000
305.287841	295.950000
307.764603	285.350000
310.240702	291.100000
312.714052	290.500000
315.186740	298.000000
317.658767	314.500000
320.130133	313.300000
322.598754	336.750000
325.066717	331.400000
327.536101	312.400000
330.000663	285.050000
332.468729	279.200000
334.931975	263.400000
337.394563	285.650000
339.856495	278.050000
342.317770	300.600000
344.776311	329.700000
347.236274	417.450000
349.693504	630.850000
352.150080	1161.750000
354.606002	2172.150000
357.059194	2779.550000
359.513809	2218.700000
361.963622	1203.150000
364.416931	720.400000
366.865442	547.300000
369.313301	470.750000
371.762583	434.550000
374.207071	385.200000
376.652981	367.700000
379.098241	354.700000
381.540783	360.250000
383.982677	352.200000
386.423924	358.950000
388.862455	354.500000
391.302408	373.450000
393.739647	412.550000
396.174174	451.650000
398.612189	494.450000
401.045427	576.350000
403.480086	707.550000
405.909973	686.600000
408.343345	537.200000
410.771947	440.550000
413.199907	410.050000
415.629289	424.050000
418.053905	438.450000
420.479943	452.050000
422.905340	473.800000
425.330097	499.600000
427.750096	522.700000
430.171516	561.700000
432.590239	612.350000
435.010383	679.800000
437.427832	765.600000
439.846701	898.900000
442.262877	1046.950000
444.674305	1318.900000
447.089211	1671.500000
449.501426	2223.900000
451.913007	3065.500000
454.323954	4530.550000
456.732215	7210.100000
459.139843	12269.700000
461.546839	21078.250000
463.953204	31674.750000
466.356886	36836.450000
468.759938	31035.100000
471.162360	20023.300000
473.564152	11821.750000
475.963267	7526.050000
478.363801	5247.800000
480.763706	3989.650000
483.158888	3133.950000
485.557537	2597.750000
487.951466	2155.050000
490.344769	1926.700000
492.737446	1691.800000
495.129498	1509.950000
497.522968	1343.150000
499.911726	1232.400000
502.297818	1152.800000
504.685330	1147.200000
507.072219	1275.000000
509.456444	1464.400000
511.842087	1463.850000
514.225069	1163.600000
516.605390	859.600000
518.987130	751.450000
521.366211	676.100000
523.746711	643.850000
526.124553	601.050000
528.499740	572.150000
530.874309	543.750000
533.250296	530.400000
535.623631	508.450000
537.998383	494.450000
540.368450	491.750000
542.737901	467.650000
545.108770	460.200000
547.474959	435.700000
549.842566	420.900000
552.207527	403.100000
554.571875	375.300000
556.935610	353.350000
559.300763	361.850000
561.661244	360.800000
564.023143	323.400000
566.382401	332.900000
568.739022	311.650000
571.099087	322.800000
573.452461	319.450000
575.809280	305.350000
578.163464	306.650000
580.517039	302.750000
582.870007	294.350000
585.220342	311.550000
587.572095	304.150000
589.917171	312.700000
592.267711	310.000000
594.611577	309.600000
596.960905	309.700000
599.305584	306.550000
601.647639	293.400000
603.991111	281.400000
606.331960	275.950000
608.672207	255.050000
611.009833	266.700000
613.350894	242.200000
615.687317	249.200000
618.025157	245.350000
620.360380	236.800000
622.692987	229.200000
625.027010	236.000000
627.358419	232.700000
629.689230	227.100000
632.019444	227.300000
634.349059	219.950000
636.674051	221.100000
639.004485	235.550000
641.330298	229.150000
643.653503	223.000000
645.978125	214.750000
648.300141	222.250000
650.621563	215.150000
652.940383	210.750000
655.260618	209.000000
657.580260	201.850000
659.897301	203.950000
662.213750	192.350000
664.527601	185.650000
666.842868	180.000000
669.155538	197.250000
671.469623	190.350000
673.779108	187.000000
676.090009	191.600000
678.398317	190.300000
680.706037	201.450000
683.015171	188.600000
685.319713	202.100000
687.623669	219.600000
689.927039	230.700000
692.231823	242.000000
694.532021	268.050000
696.833633	291.900000
699.134661	310.750000
701.431106	279.050000
703.728967	256.250000
706.026244	226.450000
708.322938	207.150000
710.615056	200.600000
712.910585	190.000000
715.201540	187.400000
717.493910	186.000000
719.783705	180.800000
722.072919	186.550000
724.361554	184.300000
726.647616	187.100000
728.935093	191.550000
731.219998	181.700000
733.504326	189.700000
735.786085	180.050000
738.069258	181.750000
740.351854	172.850000
742.629894	183.500000
744.909349	191.800000
747.188227	185.900000
749.466531	178.500000
751.740285	189.300000
754.015452	178.400000
756.290046	183.700000
758.562081	187.650000
760.835529	185.950000
763.106419	193.600000
765.374753	211.650000
767.644500	204.850000
769.911693	202.500000
772.178315	198.300000
774.444367	223.500000
776.707868	211.450000
778.972782	205.100000
781.237126	205.450000
783.496941	218.200000
785.758168	248.450000
788.018828	248.550000
790.276942	261.700000
792.532511	288.450000
794.791471	308.000000
797.043932	349.750000
799.301759	382.550000
801.555068	449.500000
803.805837	576.850000
806.058018	777.600000
808.307660	1032.300000
810.558715	1132.750000
812.805258	962.450000
815.053213	707.900000
817.298634	517.750000
819.545466	408.800000
821.791737	339.800000
824.033503	313.850000
826.278653	281.000000
828.517330	283.000000
830.759389	261.400000
832.996950	276.150000
835.235923	253.900000
837.472369	261.500000
839.710226	239.950000
841.945558	254.200000
844.178367	249.800000
846.412587	266.550000
848.644284	245.250000
850.875427	250.500000
853.106015	246.950000
855.336049	255.550000
857.565529	242.150000
859.790527	222.300000
862.018900	235.300000
864.242793	229.400000
866.468098	226.150000
868.688927	225.750000
870.913128	213.350000
873.132856	213.100000
875.353994	226.550000
877.574582	216.300000
879.792661	213.700000
882.012149	215.050000
884.227171	228.350000
886.441645	246.700000
888.655572	243.650000
890.868952	244.400000
893.081784	249.450000
895.294070	234.800000
897.503853	233.400000
899.713091	237.700000
901.921784	229.650000
904.127978	222.600000
906.335581	219.000000
908.540686	213.450000
910.745248	214.300000
912.947315	218.450000
915.150791	221.100000
917.351773	217.850000
919.552213	218.100000
921.754062	228.350000
923.949520	229.450000
926.148337	224.950000
928.342715	218.050000
930.540451	202.900000
932.733751	198.300000
934.928460	198.600000
937.120683	199.550000
939.312367	189.650000
941.503514	187.900000
943.692178	203.850000
945.880306	181.650000
948.065953	176.550000
950.254952	188.300000
952.439528	169.200000
954.623569	185.450000
956.810960	196.100000
958.990047	176.850000
961.172485	182.750000
963.354389	185.900000
965.533818	179.850000
967.710775	181.000000
969.889140	180.950000
972.068912	167.550000
974.242335	165.750000
976.419104	172.050000
978.591466	168.750000
980.765236	160.700000
982.934602	169.250000
985.107312	168.400000
987.277557	172.350000
989.447273	179.350000
991.616460	174.100000
993.781250	173.850000
995.949381	162.450000
998.113118	167.800000
1000.278261	173.950000
1002.440945	168.350000
1004.603104	173.300000
1006.762806	172.800000
1008.921983	184.100000
1011.082567	168.750000
1013.240697	171.200000
1015.398302	177.300000
1017.555384	170.550000
1019.711942	178.450000
1021.864121	170.350000
1024.017707	187.950000
1026.170771	183.000000
1028.321386	178.700000
1030.473408	193.800000
1032.621056	181.900000
1034.772036	182.450000
1036.918645	179.650000
1039.064735	202.400000
1041.210307	197.650000
1043.357284	197.000000
1045.497972	203.050000
1047.641990	191.400000
1049.783567	202.350000
1051.924628	201.200000
1054.067093	208.000000
1056.203279	225.650000
1058.342790	224.300000
1060.477947	209.000000
1062.616428	235.050000
1064.750555	237.200000
1066.884169	258.100000
1069.019188	297.850000
1071.149857	315.250000
1073.281931	352.850000
1075.411576	453.100000
1077.540709	603.950000
1079.669330	854.050000
1081.797440	1160.150000
1083.923124	1247.500000
1086.048298	1026.400000
1088.174876	688.550000
1090.297116	474.150000
1092.420761	341.800000
1094.540071	299.150000
1096.664611	260.700000
1098.782905	226.450000
1100.902604	220.450000
1103.019884	220.200000
1105.136658	217.050000
1107.252925	207.100000
1109.366776	196.250000
1111.482032	188.600000
1113.592964	184.050000
1115.707209	184.300000
1117.817133	173.500000
1119.928461	173.250000
1122.039284	181.000000
1124.145791	173.000000
1126.255608	169.750000
1128.361110	172.650000
1130.468015	179.100000
1132.568705	157.950000
1134.674607	161.850000
1136.776200	153.950000
1138.879196	171.450000
1140.981691	181.700000
1143.077979	164.100000
1145.179475	187.250000
1147.276667	177.450000
1149.373362	177.900000
1151.469558	205.750000
1153.565257	248.750000
1155.660457	279.000000
1157.753261	339.350000
1159.847468	362.400000
1161.935483	358.350000
1164.028696	293.050000
1166.115721	238.800000
1168.206045	202.750000
1170.292082	196.300000
1172.381416	175.650000
1174.464569	160.350000
1176.549124	166.650000
1178.635081	169.900000
1180.716756	168.250000
1182.799833	162.150000
1184.880524	161.850000
1186.960723	161.650000
1189.040431	158.300000
1191.119648	155.200000
1193.196483	143.200000
1195.270937	140.200000
1197.348682	154.050000
1199.422158	149.400000
1201.497034	144.250000
1203.567643	152.500000
1205.639653	155.000000
1207.709288	151.750000
1209.780323	140.550000
1211.850870	165.200000
1213.917156	153.250000
1215.984843	159.550000
1218.050158	167.200000
1220.116873	157.800000
1222.179332	166.500000
1224.245076	173.550000
1226.306566	193.150000
1228.369457	188.400000
1230.429980	192.300000
1232.490019	189.900000
1234.549576	187.500000
1236.606767	185.750000
1238.663477	183.800000
1240.717823	170.400000
1242.775451	173.100000
1244.830716	182.500000
1246.881740	160.000000
1248.934164	160.250000
1250.986108	156.750000
1253.035694	145.800000
1255.084801	163.200000
1257.133430	160.100000
1259.181580	149.250000
1261.229251	157.200000
1263.272692	149.550000
1265.319409	140.550000
1267.363772	142.000000
1269.407659	149.350000
1271.449194	166.900000
1273.488380	149.100000
1275.530839	140.500000
1277.569075	148.850000
1279.608710	150.750000
1281.647870	134.150000
1283.682811	131.550000
1285.719151	131.300000
1287.753147	143.100000
1289.788540	131.300000
1291.819721	140.550000
1293.852299	143.850000
1295.884406	137.300000
1297.914172	136.100000
1299.945336	139.200000
1301.972292	128.150000
1304.000646	140.900000
1306.024795	137.200000
1308.052210	131.200000
1310.075422	123.400000
1312.100032	143.150000
1314.122308	136.200000
1316.145981	133.900000
1318.167321	126.900000
1320.188193	143.100000
1322.208598	128.150000
1324.224810	139.600000
1326.242419	127.650000
1328.257700	135.650000
1330.276240	136.250000
1332.290591	144.600000
1334.302616	135.650000
1336.317898	139.100000
1338.328995	130.350000
1340.341489	147.650000
1342.349800	139.250000
1344.361366	142.300000
1346.366894	140.850000
1348.375677	145.650000
1350.380282	127.000000
1352.388141	137.700000
1354.395538	126.500000
1356.396904	144.800000
1358.399666	131.200000
1360.401969	125.950000
1362.403812	133.550000
1364.405195	135.450000
1366.404265	119.050000
1368.402876	132.550000
1370.401029	121.950000
1372.398723	125.950000
1374.392255	116.050000
1376.387182	127.600000
1378.381653	123.300000
1380.375667	130.700000
1382.367374	131.450000
1384.358626	135.250000
1386.347572	129.550000
1388.337913	133.100000
1390.327799	122.800000
1392.315381	135.350000
1394.302510	134.200000
1396.287337	123.700000
1398.273559	135.750000
1400.257481	130.750000
1402.240950	133.200000
1404.223966	135.100000
1406.204685	134.150000
1408.186798	141.700000
1410.166615	134.100000
1412.145980	131.650000
1414.121207	119.800000
1416.099672	129.450000
1418.075844	122.700000
1420.051567	138.000000
1422.026840	134.650000
1423.999822	127.700000
1425.972356	131.850000
1427.944442	131.700000
1429.916081	133.550000
1431.883591	137.700000
1433.856175	134.750000
1435.820953	136.750000
1437.790804	142.000000
1439.756531	137.050000
1441.723650	135.500000
1443.688486	136.800000
1445.649202	146.000000
1447.614986	147.600000
1449.574815	136.500000
1451.536038	133.650000
1453.498653	131.100000
1455.457153	137.650000
1457.415210	137.000000
1459.372826	130.000000
1461.329999	133.050000
1463.284897	146.550000
1465.241188	139.300000
1467.195204	139.350000
1469.148779	132.650000
1471.100082	129.400000
1473.052778	129.750000
1475.003201	134.400000
1476.953186	139.450000
1478.902732	129.550000
1480.850009	131.000000
1482.795018	145.950000
1484.741420	130.750000
1486.687384	129.850000
1488.632911	134.850000
1490.576172	123.450000
1492.518998	133.700000
1494.459560	132.800000
1496.401513	130.700000
1498.341204	142.400000
1500.280461	143.950000
1502.219282	122.650000
1504.155844	127.100000
1506.093797	130.900000
1508.029491	133.100000
1509.964752	140.950000
1511.897757	125.200000
1513.830329	142.650000
1515.762469	130.900000
1517.694177	128.300000
1519.623631	137.350000
1521.554476	139.050000
1523.484889	135.000000
1525.411230	146.350000
1527.338962	135.700000
1529.264443	134.200000
1531.189495	138.400000
1533.114118	136.350000
1535.038312	130.650000
1536.960258	131.400000
1538.883595	127.950000
1540.804685	146.150000
1542.723531	133.850000
1544.643767	139.100000
1546.561760	123.800000
1548.479326	133.700000
1550.394650	147.950000
1552.311364	131.100000
1554.224023	148.000000
1556.139886	132.600000
1558.053509	148.950000
1559.964894	145.550000
1561.877669	154.500000
1563.786394	148.000000
1565.696508	155.400000
1567.606199	139.350000
1569.515467	145.550000
1571.422501	157.650000
1573.327302	152.750000
1575.233492	161.800000
1577.137450	154.050000
1579.040987	167.050000
1580.944104	165.900000
1582.844991	164.250000
1584.747267	153.650000
1586.647315	156.700000
1588.548750	163.950000
1590.446152	164.600000
1592.343135	155.050000
1594.239700	146.650000
1596.137653	153.500000
1598.029771	160.200000
1599.925082	151.350000
1601.819976	162.400000
1603.712648	161.300000
1605.604903	148.700000
1607.494939	147.950000
1609.384559	156.200000
1611.273764	161.950000
1613.162554	164.600000
1615.049126	152.600000
1616.937086	165.200000
1618.821029	163.300000
1620.706359	152.150000
1622.591276	158.800000
1624.473979	154.450000
1626.358069	156.900000
1628.238147	147.050000
1630.119613	140.500000
1631.998868	143.800000
1633.879509	138.450000
1635.754346	151.650000
1637.634164	148.900000
1639.509978	146.700000
1641.385381	141.200000
1643.262170	135.250000
1645.133163	144.400000
1647.007337	145.100000
1648.877512	151.650000
1650.750869	141.350000
1652.622022	147.150000
1654.490973	148.200000
1656.361309	134.600000
1658.227653	143.900000
1660.095382	134.600000
1661.960912	129.500000
1663.827828	142.500000
1665.690755	134.400000
1667.555067	135.550000
1669.417183	158.300000
1671.278894	126.750000
1673.141991	130.450000
1675.002892	135.500000
1676.861601	141.500000
1678.719906	126.700000
1680.579596	130.200000
1682.433518	126.550000
1684.290614	131.800000
1686.147307	142.900000
1688.000023	134.450000
1689.855911	122.900000
1691.707825	131.700000
1693.559338	145.850000
1695.410450	127.900000
1697.261162	125.150000
1699.111473	123.300000
1700.959599	118.300000
1702.809110	130.450000
1704.652872	125.800000
1706.501583	124.950000
1708.344548	127.450000
1710.190680	131.150000
1712.032849	124.450000
1713.878184	116.150000
1715.717778	122.000000
1717.558756	111.100000
1719.401117	125.950000
1721.239522	130.450000
1723.079310	128.350000
1724.916923	120.850000
1726.754140	122.100000
1728.589184	126.750000
1730.425611	116.700000
1732.259866	119.050000
1734.093726	106.000000
1735.927192	117.050000
1737.756713	124.650000
1739.589392	117.800000
1741.418127	110.100000
1743.250019	119.150000
1745.077969	119.500000
1746.905528	121.600000
1748.732694	134.700000
1750.559469	114.700000
1752.385852	122.900000
1754.208299	113.550000
1756.033901	106.650000
1757.855568	113.300000
1759.678617	119.500000
1761.499504	123.000000
1763.320003	120.050000
1765.141882	122.450000
1766.958063	115.050000
1768.777395	118.250000
1770.592800	114.950000
1772.411355	113.900000
1774.225985	123.250000
1776.040228	105.300000
1777.854085	111.500000
1779.667555	124.250000
1781.478872	122.050000
1783.291569	120.350000
1785.103881	119.000000
1786.912275	122.650000
1788.722049	124.850000
1790.527909	119.850000
1792.336914	111.800000
1794.142006	126.300000
1795.948479	123.450000
1797.754568	131.550000
1799.556746	119.250000
1801.362069	119.500000
1803.163483	121.250000
1804.966277	112.600000
1806.765165	117.250000
1808.565434	131.250000
1810.365321	129.700000
1812.163066	118.600000
1813.960431	118.900000
1815.757416	125.500000
1817.554020	125.800000
1819.348485	115.250000
1821.144329	105.950000
1822.934518	118.100000
1824.729604	119.350000
1826.519038	102.250000
1828.311608	116.000000
1830.102043	110.200000
1831.890344	98.150000
1833.681780	112.000000
1835.467570	124.500000
1837.254740	121.400000
1839.039778	128.350000
1840.827950	139.400000
1842.612236	124.000000
1844.394392	113.500000
1846.177928	122.150000
1847.959335	115.850000
1849.742121	118.900000
1851.521026	125.200000
1853.301311	106.550000
1855.079469	115.750000
1856.859006	120.600000
1858.636418	124.500000
1860.411706	121.550000
1862.188372	106.250000
1863.962916	120.400000
1865.738838	118.350000
1867.509139	114.500000
1869.282568	110.200000
1871.053877	119.900000
1872.824815	119.850000
1874.597131	112.400000
1876.363833	120.400000
1878.133661	118.350000
1879.899625	124.350000
1881.668712	109.800000
1883.433938	120.600000
1885.198796	109.850000
1886.965031	121.700000
1888.727407	113.500000
1890.489416	108.800000
1892.251057	131.000000
1894.012332	119.200000
1895.773239	129.300000
1897.533780	113.900000
1899.292211	114.900000
1901.050276	106.700000
1902.806234	107.100000
1904.563568	119.550000
1906.320537	113.150000
1908.075399	120.650000
1909.828157	109.750000
1911.580550	118.100000
1913.334320	110.600000
1915.085986	110.450000
1916.835550	105.900000
1918.586489	116.600000
1920.337066	108.300000
1922.083803	106.100000
1923.831917	112.100000
1925.577931	109.850000
1927.325320	100.400000
1929.070612	111.200000
1930.813806	111.200000
1932.558375	111.850000
1934.300849	116.700000
1936.042962	117.850000
1937.784715	110.100000
1939.526108	120.450000
1941.265408	111.400000
1943.004349	111.400000
1944.742931	118.350000
1946.479422	122.800000
1948.215555	116.350000
1949.953062	109.900000
1951.686747	115.750000
1953.421807	115.450000
1955.154778	117.000000
1956.887393	113.250000
1958.619652	122.150000
1960.351554	116.450000
1962.081370	111.200000
1963.809101	127.300000
1965.538207	121.400000
1967.266958	124.750000
1968.993625	134.050000
1970.719938	118.000000
1972.447624	110.800000
1974.169774	103.700000
1975.895025	112.450000
1977.616469	108.300000
1979.341014	119.850000
1981.063478	116.350000
1982.782140	118.300000
1984.503900	119.250000
1986.221858	130.100000
1987.941189	125.000000
1989.656721	115.650000
1991.377073	124.000000
1993.093627	122.200000
1994.806384	120.550000
1996.522237	131.300000
1998.236018	107.300000
1999.949449	125.050000
2001.660809	117.800000
2003.373541	120.050000
2005.082483	123.300000
2006.794517	119.050000
2008.501043	115.350000
2010.210660	121.050000
2011.918211	106.000000
2013.625413	116.450000
2015.330550	128.350000
2017.035341	128.150000
2018.741503	123.350000
2020.443883	111.100000
2022.147634	121.550000
2023.849323	124.550000
2025.550667	116.150000
2027.251665	114.000000
2028.950602	105.250000
2030.650911	118.200000
2032.347445	105.050000
2034.045350	122.200000
2035.741196	121.250000
2037.440128	115.200000
2039.133574	128.250000
2040.828391	115.250000
2042.522866	121.300000
2044.213572	109.550000
2045.907362	119.250000
2047.597385	126.150000
2049.288779	123.000000
2050.978120	109.800000
2052.668831	115.550000
2054.355779	116.150000
2056.042388	124.550000
2057.730366	121.550000
2059.414585	117.650000
2061.100175	119.700000
2062.785425	121.600000
2064.468626	113.950000
2066.153198	115.850000
2067.832307	118.550000
2069.516201	133.500000
2071.194634	119.950000
2072.876145	95.200000
2074.553904	116.250000
2076.231327	131.500000
2077.910119	117.800000
2079.586869	114.250000
2081.261577	115.000000
2082.937654	108.050000
2084.611691	105.950000
2086.285392	112.200000
2087.958758	111.550000
2089.630085	115.950000
2091.301078	113.950000
2092.971737	114.800000
2094.642062	111.300000
2096.312053	123.850000
2097.980008	119.750000
2099.647630	124.600000
2101.313217	121.300000
2102.980173	120.100000
2104.645096	111.950000
2106.309687	128.700000
2107.972246	109.500000
2109.636173	121.000000
2111.298069	114.950000
2112.959635	116.000000
2114.620869	122.600000
2116.280075	119.250000
2117.938950	109.700000
2119.597496	116.300000
2121.255711	125.100000
2122.910204	122.250000
2124.567761	119.100000
2126.224989	113.350000
2127.878495	129.250000
2129.533369	125.600000
2131.184524	126.650000
2132.838742	112.050000
2134.489243	120.450000
2136.141110	119.650000
2137.787569	113.050000
2139.438783	117.300000
2141.086283	116.350000
2142.735150	108.350000
2144.381998	113.100000
2146.028521	127.700000
2147.674718	114.050000
2149.317207	111.650000
2150.962754	119.900000
2152.604594	123.250000
2154.249491	126.100000
2155.890682	115.550000
2157.531551	108.050000
2159.172095	114.200000
2160.810627	118.600000
2162.450525	114.100000
2164.086723	106.400000
2165.724287	110.250000
2167.361529	118.500000
2168.996761	109.850000
2170.631672	101.850000
2172.266260	126.150000
2173.900528	111.200000
2175.531102	100.500000
2177.164728	121.700000
2178.794662	119.450000
2180.425961	114.600000
2182.055255	120.400000
2183.684230	117.200000
2185.312885	119.500000
2186.941221	118.100000
2188.567555	117.650000
2190.193570	108.850000
2191.817583	114.200000
2193.442962	118.900000
2195.066340	113.050000
2196.691083	113.250000
2198.312145	116.100000
2199.932890	112.800000
2201.555000	116.600000
2203.175112	115.200000
2204.793227	99.700000
2206.411027	104.700000
2208.028512	108.600000
2209.645681	122.650000
2211.262535	105.800000
2212.879073	114.350000
2214.493619	109.300000
2216.106172	111.400000
2217.720089	126.050000
2219.332015	112.450000
2220.945304	114.650000
2222.556603	109.500000
2224.165912	107.500000
2225.776585	111.750000
2227.385269	120.350000
2228.993640	121.250000
2230.600025	120.950000
2232.207773	111.850000
2233.813534	121.750000
2235.418984	111.550000
2237.022449	102.000000
2238.627277	117.600000
2240.230121	111.050000
2241.830982	118.100000
2243.433206	120.650000
2245.033448	108.750000
2246.635052	108.850000
2248.233003	105.550000
2249.832317	114.600000
2251.429651	112.700000
2253.026677	117.850000
2254.625065	110.250000
2256.219804	102.500000
2257.812566	123.350000
2259.406691	102.200000
2261.002177	118.600000
2262.594018	112.000000
2264.185553	109.350000
2265.778450	110.450000
2267.366037	109.000000
2268.958320	121.050000
2270.545297	105.300000
2272.135301	107.300000
2273.720001	108.050000
2275.309395	108.650000
2276.893487	106.600000
2278.478939	115.600000
2280.062423	113.100000
2281.648932	107.900000
2283.231808	110.800000
2284.814381	111.700000
2286.396650	111.850000
2287.975289	118.850000
2289.556953	108.450000
2291.134988	102.650000
2292.716046	103.900000
2294.293477	108.350000
2295.868945	112.800000
2297.447435	106.900000
2299.022301	93.850000
2300.596866	102.900000
2302.171131	111.000000
2303.745095	112.150000
2305.318758	111.750000
2306.892122	100.650000
2308.461867	104.100000
2310.031313	115.500000
2311.603777	103.700000
2313.170967	105.800000
2314.741175	106.250000
2316.307768	118.650000
2317.875721	108.300000
2319.441718	111.550000
2321.007418	101.050000
2322.572820	100.500000
2324.136269	122.250000
2325.701077	115.150000
2327.262277	118.450000
2328.826491	106.200000
2330.385443	125.950000
2331.947410	108.650000
2333.507425	118.250000
2335.067146	106.650000
2336.624917	106.500000
2338.182393	104.950000
2339.739575	105.850000
2341.294809	114.100000
2342.849750	105.650000
2344.404396	121.100000
2345.958749	92.850000
2347.512809	102.550000
2349.066574	96.550000
2350.618395	114.500000
2352.168274	114.600000
2353.721160	104.850000
2355.268803	94.000000
2356.819455	108.150000
2358.366515	107.300000
2359.914933	108.950000
2361.463060	109.350000
2363.007598	112.800000
2364.553494	112.900000
2366.097452	109.350000
2367.642767	108.150000
2369.184497	110.650000
2370.727584	99.450000
2372.268735	99.950000
2373.809597	103.800000
2375.350170	103.350000
2376.890454	102.300000
2378.430449	108.800000
2379.966866	98.850000
2381.506284	103.250000
2383.042124	105.350000
2384.579322	118.200000
2386.112944	107.250000
2387.649566	107.550000
2389.184258	102.600000
2390.717020	103.500000
2392.249495	102.350000
2393.780042	102.600000
2395.313587	104.900000
2396.841921	116.450000
2398.371612	108.550000
2399.901016	104.450000
2401.430136	103.650000
2402.958971	93.800000
2404.482600	115.900000
2406.010865	114.150000
2407.533928	110.850000
2409.061624	113.350000
2410.582481	109.850000
2412.107971	98.550000
2413.629900	99.700000
2415.153185	100.600000
2416.674548	100.350000
2418.193992	118.700000
2419.714791	112.000000
2421.233672	114.850000
2422.752270	114.100000
2424.268951	102.800000
2425.786986	105.100000
2427.304740	98.550000
2428.818943	112.000000
2430.332865	105.450000
2431.846507	116.550000
2433.361504	113.400000
2434.872952	103.200000
2436.385755	117.700000
2437.896644	103.650000
2439.407255	109.850000
2440.915954	95.350000
2442.427639	106.800000
2443.935781	102.800000
2445.443645	99.550000
2446.951231	106.950000
2448.455276	111.000000
2449.962306	109.500000
2451.467428	94.950000
2452.972273	102.500000
2454.475211	108.450000
2455.977873	109.200000
2457.480258	94.350000
2458.980738	103.050000
2460.482571	98.100000
2461.982499	109.500000
2463.482152	113.500000
2464.981530	105.800000
2466.479005	92.450000
2467.974578	103.550000
2469.473131	109.300000
2470.968156	105.050000
2472.464533	109.300000
2473.957384	102.450000
2475.451588	110.200000
2476.945518	100.750000
2478.435924	100.150000
2479.929308	102.550000
2481.420794	106.450000
2482.910383	93.050000
2484.399700	100.750000
2485.887121	107.600000
2487.377518	101.600000
2488.864397	95.050000
2490.352627	96.600000
2491.837340	97.900000
2493.321784	102.650000
2494.807578	104.450000
2496.291481	100.300000
2497.776734	102.000000
2499.256854	113.000000
2500.739947	97.950000
2502.221149	96.550000
2503.702082	95.800000
2505.181126	98.800000
2506.659901	99.350000
2508.138408	94.800000
2509.616647	106.650000
2511.094617	113.750000
2512.569082	105.250000
2514.046517	94.150000
2515.520448	96.700000
2516.995729	96.050000
2518.470743	107.550000
2519.942256	105.700000
2521.415120	102.400000
2522.886101	92.650000
2524.358432	106.400000
2525.825649	102.050000
2527.295833	95.450000
2528.764136	97.050000
2530.232174	107.350000
2531.699947	95.000000
2533.167455	97.250000
2534.634698	102.900000
2536.098449	102.500000
2537.563550	110.200000
2539.026774	101.400000
2540.491347	114.850000
2541.952432	102.850000
2543.414866	104.250000
2544.877037	100.550000
2546.335722	106.150000
2547.798978	103.050000
2549.257139	102.050000
2550.716648	89.500000
2552.171063	109.750000
2553.630049	89.450000
2555.087163	105.550000
2556.542406	102.700000
2557.997387	96.000000
2559.450500	100.400000
2560.904961	107.800000
2562.357552	109.800000
2563.809884	110.100000
2565.260349	91.400000
2566.713769	97.900000
2568.162107	91.500000
2569.613400	101.200000
2571.062828	103.100000
2572.508783	93.600000
2573.957693	100.150000
2575.403133	100.300000
2576.849920	106.800000
2578.294845	102.650000
2579.739511	93.800000
2581.185525	103.150000
2582.628073	109.950000
2584.071968	110.950000
2585.512398	88.300000
2586.954175	99.100000
2588.394093	95.150000
2589.835358	105.900000
2591.273161	97.950000
2592.713914	96.450000
2594.149605	94.600000
2595.588245	92.650000
2597.025027	92.300000
2598.459954	87.050000
2599.897828	105.900000
2601.330645	102.050000
2602.764809	100.800000
2604.197119	105.650000
2605.630775	97.950000
2607.062578	117.050000
2608.494127	98.100000
2609.925424	105.150000
2611.354868	103.300000
2612.784060	94.700000
2614.211402	90.400000
2615.640089	96.800000
2617.068525	91.250000
2618.493513	98.200000
2619.919848	91.800000
2621.344334	93.950000
2622.770166	85.150000
2624.192554	88.350000
2625.616288	84.100000
2627.038175	114.150000
2628.459813	104.950000
2629.879605	97.800000
2631.300743	90.150000
2632.721631	90.400000
2634.139081	99.250000
2635.559470	95.300000
2636.976422	83.100000
2638.393125	94.800000
2639.809580	90.950000
2641.225787	103.850000
2642.641746	98.850000
2644.055864	99.350000
2645.469734	90.550000
2646.881766	105.550000
2648.295141	96.850000
2649.705087	86.350000
2651.117969	98.100000
2652.527422	97.350000
2653.936629	102.950000
2655.344000	86.400000
2656.754305	102.650000
2658.162775	95.050000
2659.569409	91.400000
2660.975798	89.850000
2662.380353	100.900000
2663.786252	104.100000
2665.190318	100.650000
2666.594139	107.000000
2667.997716	102.600000
2669.399462	99.900000
2670.802551	89.050000
2672.202222	105.500000
2673.603237	91.250000
2675.000836	105.250000
2676.401365	85.100000
2677.798478	92.850000
2679.196935	116.100000
2680.593565	87.850000
2681.989952	105.750000
2683.386097	113.850000
2684.780416	102.300000
2686.176078	112.750000
2687.568331	106.000000
2688.961926	107.650000
2690.353697	98.000000
2691.746811	96.950000
2693.138101	97.150000
2694.527568	98.250000
2695.916795	96.800000
2697.305783	95.250000
2698.696112	104.300000
2700.081458	109.000000
2701.469727	99.850000
2702.856176	100.250000
2704.242386	98.750000
2705.628357	100.450000
2707.010930	99.100000
2708.394845	111.950000
2709.778522	92.250000
2711.161960	96.300000
2712.542004	88.700000
2713.923388	101.400000
2715.302958	96.550000
2716.683868	100.050000
2718.062964	87.350000
2719.440246	95.100000
2720.818869	111.450000
2722.195679	106.800000
2723.572252	95.800000
2724.948590	97.700000
2726.323117	94.350000
2727.698984	89.650000
2729.071464	81.650000
2730.446860	98.950000
2731.817296	76.400000
2733.189073	94.900000
2734.560615	98.750000
2735.930349	94.350000
2737.301424	90.050000
2738.670690	95.850000
2740.039723	96.000000
2741.406950	101.550000
2742.773943	87.350000
2744.140704	100.300000
2745.507233	93.250000
2746.871956	86.400000
2748.236447	99.150000
2749.600707	92.600000
2750.964734	84.500000
2752.328530	78.400000
2753.688952	90.700000
2755.052284	90.700000
2756.410674	91.350000
2757.771974	94.400000
2759.129904	87.350000
2760.490742	83.150000
2761.849781	88.950000
2763.205451	74.100000
2764.564029	86.900000
2765.919240	92.900000
2767.274222	79.050000
2768.627408	86.950000
2769.983500	82.950000
2771.336227	99.750000
2772.688727	73.800000
2774.040998	95.950000
2775.394607	83.000000
2776.744856	93.900000
2778.093310	77.450000
2779.444670	97.300000
2780.792670	82.900000
2782.142008	88.600000
2783.489554	78.500000
2784.836874	92.550000
2786.183967	85.850000
2787.529269	88.150000
2788.874344	80.150000
2790.219194	85.450000
2791.563818	95.250000
2792.905090	79.200000
2794.247700	80.750000
2795.590084	94.400000
2796.932243	82.450000
2798.271053	88.100000
2799.612763	101.550000
2800.951125	90.350000
2802.290823	96.850000
2803.628737	83.450000
2804.964866	91.850000
2806.300771	86.450000
2807.638014	82.900000
2808.973473	100.050000
2810.308709	93.300000
2811.642162	84.400000
2812.976952	81.200000
2814.308402	81.200000
2815.642747	84.150000
2816.972194	79.600000
2818.302978	82.000000
2819.633540	100.150000
2820.962323	88.500000
2822.292442	84.400000
2823.620783	78.000000
2824.948903	79.500000
2826.275245	79.050000
2827.602924	95.400000
2828.927269	98.550000
2830.252951	85.950000
2831.576857	90.350000
2832.900544	86.150000
2834.225566	89.700000
2835.547258	89.450000
2836.868732	79.250000
2838.189987	81.050000
2839.511023	89.550000
2840.830286	87.650000
2842.150885	83.050000
2843.469713	84.950000
2844.788322	74.850000
2846.105160	74.750000
2847.421781	80.900000
2848.738185	90.750000
2850.052819	92.500000
2851.368789	83.350000
2852.681438	73.050000
2853.995422	79.150000
2855.309190	87.550000
2856.622741	77.250000
2857.934526	84.250000
2859.244544	80.150000
2860.555897	84.850000
2861.863935	90.650000
2863.173307	73.550000
2864.482465	90.050000
2865.791407	89.400000
2867.098585	79.900000
2868.404001	83.900000
2869.710750	85.850000
2871.015738	85.300000
2872.320512	92.850000
2873.623524	85.500000
2874.929417	98.450000
2876.230456	74.150000
2877.532829	74.350000
2878.833442	92.750000
2880.135389	86.300000
2881.437122	78.500000
2882.735552	95.100000
2884.035315	83.900000
2885.333321	78.150000
2886.631115	83.800000
2887.927153	78.050000
2889.224524	88.500000
2890.520139	78.750000
2891.815543	80.600000
2893.110736	88.350000
2894.402632	96.450000
2895.697404	79.900000
2896.988879	84.350000
2898.281687	93.500000
2899.574285	83.200000
2900.863589	82.700000
2902.154225	97.150000
2903.443110	85.600000
2904.733327	79.600000
2906.020253	96.200000
2907.308511	74.000000
2908.595020	89.100000
2909.881320	87.450000
2911.167413	77.600000
2912.451757	85.600000
2913.738972	91.300000
2915.021361	82.800000
2916.305082	77.000000
2917.587057	75.150000
2918.868824	89.200000
2920.148847	80.750000
2921.431739	91.500000
2922.712886	83.000000
2923.990751	82.150000
2925.271485	76.200000
2926.548938	88.600000
2927.826185	86.500000
2929.101690	76.700000
2930.380063	74.950000
2931.653622	74.550000
2932.930048	81.800000
2934.204733	70.400000
2935.477677	81.100000
2936.751953	72.550000
2938.024489	81.550000
2939.296820	74.050000
2940.565879	82.400000
2941.837803	89.000000
2943.107989	91.000000
2944.377971	84.050000
2945.647750	74.850000
2946.915793	79.850000
2948.182099	76.050000
2949.448204	80.000000
2950.715638	80.800000
2951.981338	74.850000
2953.246835	78.800000
2954.512130	85.550000
2955.774160	85.350000
2957.037520	81.850000
2958.300679	70.750000
2959.562106	77.500000
2960.824862	77.000000
2962.085886	82.600000
2963.345180	78.550000
2964.604274	75.000000
2965.863167	84.850000
2967.121860	88.900000
2968.380353	80.650000
2969.637117	78.200000
2970.893681	76.950000
2972.148518	77.100000
2973.404683	84.450000
2974.657594	95.600000
2975.911834	67.300000
2977.165875	82.100000
2978.418190	68.250000
2979.670306	75.950000
2980.920698	79.900000
2982.173945	83.100000
2983.422415	89.100000
2984.673740	76.800000
2985.921815	72.000000
2987.169694	75.800000
2988.417375	75.950000
2989.664859	77.400000
2990.910622	79.450000
2992.156189	90.150000
2993.403083	65.650000
2994.646733	71.600000
2995.891711	65.150000
2997.133445	76.900000
2998.378031	79.550000
2999.620898	71.100000
3000.860524	79.650000
3002.103000	82.500000
3003.342236	75.700000
3004.582800	74.900000
3005.821648	61.950000
3007.060300	83.200000
3008.297237	70.100000
3009.535502	87.400000
3010.772051	82.550000
3012.008407	83.450000
3013.244569	70.900000
3014.479017	89.750000
3015.713273	72.550000
3016.947335	70.750000
3018.179685	76.950000
3019.410323	93.250000
3020.643807	72.450000
3021.875579	72.400000
3023.105641	66.600000
3024.335510	84.100000
3025.563671	66.750000
3026.793157	65.200000
3028.020934	71.250000
3029.248520	76.100000
3030.477433	69.200000
3031.701603	74.400000
3032.928616	76.450000
3034.152405	77.350000
3035.377521	77.400000
3036.600930	76.200000
3037.824149	63.250000
3039.045663	77.700000
3040.270018	66.300000
3041.489638	76.850000
3042.710584	78.700000
3043.931341	77.400000
3045.150394	77.400000
3046.370772	67.550000
3047.587934	71.500000
3048.806422	64.100000
3050.023207	76.150000
3051.239805	67.700000
3052.456214	51.750000
3053.669411	69.450000
3054.885445	73.850000
3056.098267	86.700000
3057.313926	74.500000
3058.524862	77.700000
3059.737123	85.250000
3060.949198	66.000000
3062.161085	73.000000
3063.371276	75.500000
3064.581280	80.500000
3065.791098	69.850000
3066.999220	63.400000
3068.207157	53.850000
3069.413398	74.400000
3070.620964	70.950000
3071.826835	72.575000
3073.032522	74.200000
3074.238023	71.800000
3075.441831	72.150000
3076.646963	68.400000
3077.850402	81.650000
3079.052150	64.750000
3080.253713	61.950000
3081.455093	72.450000
3082.656289	75.200000
3083.855795	66.050000
3085.055118	74.400000
3086.255764	75.450000
3087.454720	75.550000
3088.650482	53.700000
3089.849073	76.400000
3091.044470	67.300000
3092.241190	66.800000
3093.434718	70.300000
3094.631074	79.800000
3095.825744	61.450000
3097.017223	73.000000
3098.213033	67.200000
3099.404149	66.950000
3100.596589	74.850000
3101.785841	65.150000
3102.977918	70.600000
3104.168312	70.900000
3105.355520	77.200000
3106.544051	68.500000
3107.733903	55.000000
3108.920572	66.600000
3110.107060	65.300000
3111.293370	72.400000
3112.481001	76.450000
3113.665450	54.950000
3114.848220	69.200000
3116.033812	65.300000
3117.217725	74.850000
3118.399959	72.550000
3119.582014	67.600000
3120.763891	70.750000
3121.945590	71.950000
3123.125612	69.250000
3124.303957	63.700000
3125.485122	61.650000
3126.663112	70.750000
3127.840926	90.200000
3129.018562	67.750000
3130.194523	68.700000
3131.370307	74.150000
3132.547413	68.950000
3133.722844	68.000000
3134.896602	70.750000
3136.068687	69.900000
3137.242094	67.850000
3138.415324	84.050000
3139.586883	66.300000
3140.759762	51.900000
3141.929474	73.200000
3143.100507	66.200000
3144.269870	69.600000
3145.437562	70.600000
3146.608070	73.450000
3147.773920	74.500000
3148.944078	75.700000
3150.109580	70.250000
3151.274907	58.550000
3152.440061	75.100000
3153.605042	72.250000
3154.771342	61.600000
3155.932990	77.700000
3157.095957	60.550000
3158.258752	66.250000
3159.421374	65.500000
3160.582331	74.650000
3161.743115	71.550000
3162.903727	74.300000
3164.062675	70.600000
3165.221452	63.650000
3166.380057	61.150000
3167.538489	62.000000
3168.696751	73.400000
3169.853350	62.150000
3171.008288	69.000000
3172.164545	72.600000
3173.319141	57.300000
3174.473567	73.050000
3175.626333	64.800000
3176.778928	70.100000
3177.931354	70.600000
3179.083610	71.150000
3180.235695	62.750000
3181.384635	75.050000
3182.536381	71.500000
3183.686469	61.200000
3184.834901	57.300000
3185.983163	60.950000
3187.131257	66.800000
3188.279182	52.350000
3189.425451	52.050000
3190.571552	55.650000
3191.715999	67.250000
3192.860278	68.550000
3194.004389	61.650000
3195.149817	52.450000
3196.292107	57.800000
3197.434230	67.950000
3198.576185	70.550000
3199.717973	67.000000
3200.859594	67.300000
3201.998080	74.150000
3203.137883	67.950000
3204.279004	60.100000
3205.416990	54.450000
3206.553327	66.100000
3207.689498	63.150000
3208.826986	67.500000
3209.962826	51.850000
3211.099983	65.400000
3212.232527	69.200000
3213.369353	68.800000
3214.501567	72.000000
3215.635098	62.300000
3216.768465	58.300000
3217.898704	73.750000
3219.031741	56.300000
3220.161652	52.650000
3221.292879	67.850000
3222.420982	57.050000
3223.551881	68.200000
3224.681136	66.550000
3225.808748	60.150000
3226.933237	72.350000
3228.062002	64.650000
3229.187645	65.250000
3230.313126	64.600000
3231.436965	57.000000
3232.563598	53.450000
3233.685634	59.000000
3234.808986	56.950000
3235.932176	62.700000
3237.055203	66.800000
3238.176592	58.800000
3239.297818	62.500000
3240.417407	56.350000
3241.536834	63.800000
3242.654623	57.300000
3243.775204	72.300000
3244.892672	62.500000
3246.009979	48.700000
3247.127126	70.200000
3248.242637	68.950000
3249.359462	74.550000
3250.473178	51.800000
3251.589683	61.100000
3252.704554	65.200000
3253.816316	61.450000
3254.927918	59.650000
3256.040836	66.700000
3257.153594	50.600000
3258.263246	63.250000
3259.374213	56.350000
3260.485021	59.900000
3261.594197	65.800000
3262.701743	69.000000
3263.810602	61.900000
3264.919304	64.100000
3266.024903	57.300000
3267.131816	61.150000
3268.237100	57.150000
3269.343698	60.750000
3270.447196	57.300000
3271.552009	59.350000
3272.656664	66.850000
3273.758220	59.700000
3274.859620	59.900000
3275.962334	66.600000
3277.064892	56.250000
3278.164353	57.700000
3279.266598	62.150000
3280.365747	73.150000
3281.463272	66.650000
3282.560641	62.850000
3283.660792	57.350000
3284.757851	56.150000
3285.854754	56.250000
3286.951502	57.400000
3288.043692	47.700000
3289.140130	54.950000
3290.234946	57.200000
3291.329608	60.800000
3292.422648	53.650000
3293.515533	59.300000
3294.606799	49.250000
3295.699376	63.750000
3296.790334	63.700000
3297.879672	57.350000
3298.968857	58.150000
3300.059355	67.300000
3301.146768	57.350000
3302.234028	63.450000
3303.322601	61.150000
3304.411022	48.950000
3305.494895	53.650000
3306.583010	55.750000
3307.668043	70.400000
3308.751461	55.750000
3309.836191	55.300000
3310.919305	60.700000
3312.003732	53.950000
3313.085080	50.850000
3314.167740	60.400000
3315.248786	59.650000
3316.329681	42.500000
3317.408962	61.650000
3318.488093	49.250000
3319.568536	60.750000
3320.645904	57.600000
3321.724584	63.350000
3322.801652	62.300000
3323.878571	52.150000
3324.953878	65.700000
3326.029036	63.450000
3327.105505	61.150000
3328.178904	55.850000
3329.252154	64.700000
3330.326714	68.650000
3331.399666	63.250000
3332.471009	57.850000
3333.543663	56.950000
3334.613251	51.350000
3335.684149	47.100000
3336.753440	48.000000
3337.824042	53.700000
3338.893037	49.350000
3339.960426	56.150000
3341.026210	61.200000
3342.096220	51.800000
3343.163167	56.200000
3344.227052	60.150000
3345.293705	61.150000
3346.358753	53.350000
3347.422198	55.100000
3348.485497	49.350000
3349.548649	54.500000
3350.611655	61.200000
3351.674515	55.200000
3352.735773	47.850000
3353.793974	76.950000
3354.856395	49.900000
3355.915761	51.800000
3356.974981	44.700000
3358.035511	47.450000
3359.091531	57.350000
3360.150315	55.800000
3361.204592	62.850000
3362.261633	57.600000
3363.317075	66.350000
3364.373827	53.050000
3365.428980	55.050000
3366.482536	64.200000
3367.534496	52.050000
3368.589217	53.300000
3369.640889	53.750000
3370.692418	67.000000
3371.745255	57.100000
3372.795045	59.000000
3373.846144	54.600000
3374.894197	46.400000
3375.945009	53.150000
3376.992777	53.100000
3378.040402	57.100000
3379.087884	58.500000
3380.133774	49.450000
3381.180972	43.700000
3382.225128	56.750000
3383.272042	51.950000
3384.317364	47.300000
3385.359645	56.400000
3386.401786	44.450000
3387.445234	67.250000
3388.488541	48.550000
3389.530259	69.400000
3390.571835	56.000000
3391.613270	52.500000
3392.653117	53.050000
3393.691375	57.200000
3394.730941	58.100000
3395.770367	58.400000
3396.808205	44.600000
3397.844456	47.350000
3398.880568	61.550000
3399.917987	48.950000
3400.952373	56.000000
3401.988066	51.400000
3403.023620	51.450000
3404.056143	55.250000
3405.091419	56.250000
3406.123664	54.450000
3407.155771	45.000000
3408.186294	58.900000
3409.218124	48.300000
3410.249816	52.200000
3411.278480	48.650000
3412.307007	50.000000
3413.336840	48.050000
3414.366536	67.700000
3415.393206	49.650000
3416.421183	54.550000
3417.446135	60.000000
3418.473837	64.100000
3419.498516	54.700000
3420.524501	62.900000
3421.548906	50.750000
3422.573175	52.900000
3423.595865	55.150000
3424.618419	57.100000
3425.642279	44.300000
3426.663119	53.100000
3427.683823	45.750000
3428.705834	57.350000
3429.724826	56.150000
3430.743682	50.800000
3431.763845	39.150000
3432.780991	54.250000
