-117.892442	25.500000
-115.222841	-31.500000
-112.556176	31.000000
-109.890264	-12.000000
-107.227283	45.500000
-104.562872	16.500000
-101.901392	-14.500000
-99.238483	80.000000
-96.580681	15.500000
-93.921448	34.000000
-91.262964	29.500000
-88.607405	8.500000
-85.950417	11.500000
-83.298526	40.000000
-80.645206	33.500000
-77.994806	36.500000
-75.342976	14.500000
-72.696237	23.000000
-70.048068	25.000000
-67.400643	34.000000
-64.756131	43.500000
-62.110190	8.500000
-59.469332	-8.000000
-56.827043	5.500000
-54.187664	33.000000
-51.546856	49.000000
-48.906787	47.500000
-46.271792	-1.000000
-43.635367	41.000000
-41.001846	27.000000
-38.366895	42.500000
-35.737011	30.000000
-33.103533	48.000000
-30.475118	34.500000
-27.847437	-2.000000
-25.218328	20.000000
-22.594275	13.500000
-19.966632	23.500000
-17.344044	18.000000
-14.722186	32.000000
-12.101059	53.000000
-9.480663	33.000000
-6.863154	81.000000
-4.244217	59.000000
-1.628166	54.500000
0.987157	44.500000
3.601753	47.000000
6.213467	29.500000
8.826608	40.500000
11.434716	4.500000
14.046406	22.500000
16.653065	11.000000
19.261152	46.000000
21.868515	40.500000
24.470853	57.500000
27.076769	28.500000
29.677664	52.500000
32.279986	23.500000
34.877290	52.500000
37.478170	62.000000
40.074036	12.500000
42.671329	34.000000
45.267903	45.000000
47.859468	47.500000
50.452461	22.500000
53.042593	32.500000
55.634153	52.000000
58.222853	26.000000
60.812981	71.500000
63.398109	41.500000
65.984665	30.500000
68.570506	79.000000
71.153494	103.500000
73.737909	77.000000
76.315194	37.000000
78.896046	94.500000
81.474049	40.000000
84.051342	53.000000
86.630061	45.500000
89.203799	50.500000
91.778963	62.500000
94.351284	69.000000
96.922898	79.500000
99.491671	59.000000
102.061871	83.500000
104.629232	112.500000
107.198020	72.000000
109.763970	81.000000
112.327086	94.000000
114.893759	67.000000
117.451209	139.500000
120.014345	200.000000
122.572522	252.000000
125.134253	335.000000
127.691027	504.500000
130.249227	770.000000
132.802475	1082.500000
135.355024	1677.500000
137.911125	2320.500000
140.462277	3234.500000
143.012731	3994.500000
145.562489	4667.000000
148.109427	5266.000000
150.655669	5707.000000
153.203338	5799.500000
155.750310	5999.000000
158.292346	5929.000000
160.833689	6048.500000
163.374340	6180.500000
165.916415	6094.000000
168.455680	6061.000000
170.992135	6084.500000
173.527900	6189.000000
176.065090	6043.500000
178.601588	6134.500000
181.135282	6097.000000
183.666171	6113.000000
186.196372	6170.500000
188.727998	6269.000000
191.256824	6196.500000
193.782850	6192.000000
196.308190	6221.500000
198.834955	6314.500000
201.358924	6097.000000
203.882207	6327.000000
206.404806	6267.000000
208.924612	6228.000000
211.443735	6185.500000
213.962175	6324.500000
216.482040	6177.500000
218.994902	6260.000000
221.511296	6362.500000
224.027009	6272.000000
226.537831	6366.500000
229.050078	6376.500000
231.559542	6309.000000
234.068328	6272.500000
236.576436	6397.500000
239.085968	6344.000000
241.590619	6530.500000
244.094594	6339.500000
246.599993	6381.000000
249.100517	6449.000000
251.604564	6396.000000
254.101641	6401.500000
256.602240	6291.500000
259.100068	6494.000000
261.597223	6633.000000
264.093706	6449.500000
266.585325	6472.000000
269.080463	6441.000000
271.572836	6460.000000
274.064538	6503.000000
276.553477	6518.500000
279.043839	6440.000000
281.531440	6367.000000
284.016281	6425.500000
286.504636	6464.500000
288.986053	6452.500000
291.470983	6389.500000
293.951067	6465.500000
296.434664	6387.500000
298.913419	6432.500000
301.393596	6462.500000
303.871022	6649.000000
306.347784	6505.000000
308.823882	6518.000000
311.297232	6484.000000
313.769921	6647.500000
316.241948	6489.000000
318.713313	6558.500000
321.181935	6619.500000
323.649897	6538.500000
326.119282	6527.000000
328.583844	6653.500000
331.051909	6507.000000
333.515155	6456.500000
335.977744	6636.500000
338.439675	6622.500000
340.900950	6638.000000
343.359491	6545.000000
345.819454	6617.500000
348.276685	6627.500000
350.733261	6639.500000
353.189182	6670.500000
355.642375	6661.500000
358.096990	6535.000000
360.546803	6636.000000
363.000112	6662.000000
365.448622	6625.500000
367.896482	6674.000000
370.345763	6620.500000
372.790251	6579.000000
375.236161	6745.500000
377.681422	6654.000000
380.123964	6561.000000
382.565858	6532.500000
385.007104	6604.000000
387.445635	6587.000000
389.885588	6619.500000
392.322827	6559.000000
394.757354	6634.000000
397.195369	6585.000000
399.628607	6818.500000
402.063267	6712.000000
404.493154	6793.000000
406.926526	6711.500000
409.355127	6860.500000
411.783088	6757.000000
414.212469	6679.000000
416.637086	6812.000000
419.063123	6733.000000
421.488521	6726.500000
423.913278	6805.000000
426.333276	6701.000000
428.754696	6780.000000
431.173419	6667.000000
433.593563	6688.500000
436.011012	6742.500000
438.429881	6849.500000
440.846057	6748.500000
443.257486	6908.500000
445.672391	6830.500000
448.084606	6742.500000
450.496187	6984.000000
452.907134	6925.000000
455.315395	6993.500000
457.723024	6931.500000
460.130020	6907.500000
462.536384	7010.000000
464.940067	6988.500000
467.343119	6955.000000
469.745541	6942.000000
472.147333	6949.500000
474.546447	6924.000000
476.946981	6953.500000
479.346886	6927.500000
481.742068	6844.000000
484.140717	6948.500000
486.534646	6844.000000
488.927949	6801.000000
491.320626	6957.000000
493.712678	6911.500000
496.106149	6827.500000
498.494907	6905.500000
500.880999	6851.500000
503.268511	6870.000000
505.655399	6738.000000
508.039624	6825.500000
510.425268	6896.000000
512.808249	6885.000000
515.188570	6884.000000
517.570310	7019.500000
519.949391	6959.000000
522.329891	6812.500000
524.707733	6764.500000
527.082920	6889.500000
529.457489	6863.000000
531.833477	7026.500000
534.206811	6977.500000
536.581564	6979.500000
538.951630	6970.000000
541.321081	7019.500000
543.691951	7039.000000
546.058139	6849.000000
548.425746	6961.000000
550.790707	6896.000000
553.155055	6870.500000
555.518791	6924.000000
557.883944	6934.000000
560.244425	7009.500000
562.606323	7045.500000
564.965582	6979.500000
567.322202	7039.000000
569.682268	6956.000000
572.035642	6903.500000
574.392461	7076.000000
576.746645	7050.500000
579.100220	7083.000000
581.453187	7067.000000
583.803523	7001.500000
586.155275	6915.500000
588.500351	7078.000000
590.850891	6965.000000
593.194758	6997.500000
595.544086	6982.000000
597.888765	7024.500000
600.230820	7038.000000
602.574292	6911.500000
604.915141	6947.000000
607.255387	6923.500000
609.593013	7003.500000
611.934074	6903.500000
614.270498	6971.000000
616.608338	6870.000000
618.943560	6831.000000
621.276167	6793.000000
623.610191	6812.500000
625.941600	6705.500000
628.272411	6865.000000
630.602624	6844.000000
632.932240	6918.500000
635.257232	6832.500000
637.587666	6955.000000
639.913478	6809.500000
642.236684	6841.000000
644.561306	6941.500000
646.883322	6927.500000
649.204744	7075.000000
651.523563	7037.000000
653.843798	6925.000000
656.163440	6888.000000
658.480481	6947.000000
660.796931	6932.500000
663.110782	6943.000000
665.426048	7060.000000
667.738718	7049.000000
670.052803	6977.000000
672.362289	7192.500000
674.673189	7015.000000
676.981497	7055.000000
679.289217	7096.500000
681.598352	7143.000000
683.902894	7160.500000
686.206850	6872.000000
688.510219	7014.500000
690.815003	7089.500000
693.115201	6978.000000
695.416814	7019.000000
697.717841	7010.500000
700.014287	6992.500000
702.312147	7073.000000
704.609425	6907.000000
706.906118	6951.500000
709.198236	6976.500000
711.493765	6858.000000
713.784721	6938.500000
716.077091	6850.500000
718.366885	7117.000000
720.656100	6946.500000
722.944735	6986.000000
725.230797	7083.500000
727.518273	7017.500000
729.803179	6858.500000
732.087506	6962.500000
734.369266	6984.000000
736.652439	6939.000000
738.935035	7052.000000
741.213075	7038.500000
743.492529	7031.500000
745.771408	7078.000000
748.049711	7105.500000
750.323465	7035.000000
752.598633	7026.500000
754.873227	7094.000000
757.145262	7142.500000
759.418710	7112.000000
761.689600	7144.500000
763.957934	7071.500000
766.227681	7095.500000
768.494873	7236.500000
770.761495	7226.500000
773.027548	7153.000000
775.291049	7197.000000
777.555962	7109.500000
779.820307	7238.000000
782.080121	7221.500000
784.341349	7121.000000
786.602009	7096.000000
788.860122	7088.000000
791.115691	7110.000000
793.374651	7100.000000
795.627112	7267.500000
797.884940	7115.500000
800.138249	7120.000000
802.389017	7120.000000
804.641198	7075.000000
806.890841	7083.000000
809.141895	7116.000000
811.388438	7180.000000
813.636394	7037.500000
815.881814	7181.000000
818.128647	6982.500000
820.374917	7149.500000
822.616684	7173.000000
824.861833	7021.000000
827.100510	7150.500000
829.342570	7160.500000
831.580131	7035.000000
833.819103	7226.000000
836.055550	7129.500000
838.293407	7186.000000
840.528739	7180.500000
842.761547	7230.500000
844.995767	7148.000000
847.227465	7105.000000
849.458608	7172.500000
851.689196	7126.000000
853.919230	7094.000000
856.148709	7251.500000
858.373708	7126.500000
860.602080	7201.500000
862.825974	7111.000000
865.051278	7127.500000
867.272107	7250.000000
869.496309	7059.500000
871.716037	7115.500000
873.937175	7075.000000
876.157763	7092.500000
878.375842	7022.000000
880.595330	7118.500000
882.810352	7065.000000
885.024826	7055.500000
887.238753	7036.500000
889.452132	7032.000000
891.664965	7076.500000
893.877250	7004.500000
896.087034	7021.000000
898.296272	6970.500000
900.504964	7021.500000
902.711158	6976.500000
904.918761	7019.500000
907.123867	7015.000000
909.328429	7164.000000
911.530496	7142.000000
913.733972	7110.500000
915.934954	7185.000000
918.135394	7232.000000
920.337243	7219.500000
922.532701	7292.500000
924.731517	7262.500000
926.925896	7290.000000
929.123632	7119.000000
931.316932	7323.000000
933.511640	7316.000000
935.703863	7257.500000
937.895548	7232.500000
940.086695	7412.500000
942.275359	7326.500000
944.463486	7395.500000
946.649133	7417.500000
948.838133	7423.500000
951.022708	7249.000000
953.206749	7539.500000
955.394140	7472.000000
957.573228	7612.000000
959.755665	7471.000000
961.937569	7451.000000
964.116999	7461.500000
966.293956	7544.500000
968.472321	7654.500000
970.652092	7610.000000
972.825515	7663.000000
975.002285	7654.000000
977.174647	7683.000000
979.348417	7706.000000
981.517783	7555.500000
983.690493	7645.000000
985.860737	7610.000000
988.030453	7775.000000
990.199640	7476.500000
992.364430	7557.500000
994.532562	7714.500000
996.696298	7703.500000
998.861442	7498.000000
1001.024126	7705.500000
1003.186285	7617.000000
1005.345986	7813.500000
1007.505164	7703.000000
1009.665748	7597.500000
1011.823877	7654.000000
1013.981482	7687.000000
1016.138564	7691.000000
1018.295123	7546.000000
1020.447302	7664.000000
1022.600888	7605.000000
1024.753951	7687.500000
1026.904567	7709.500000
1029.056588	7681.000000
1031.204236	7739.500000
1033.355216	7624.500000
1035.501826	7629.000000
1037.647916	7500.000000
1039.793488	7674.000000
1041.940464	7737.000000
1044.081153	7515.500000
1046.225170	7476.000000
1048.366748	7677.500000
1050.507808	7666.000000
1052.650273	7591.000000
1054.786459	7564.000000
1056.925971	7536.000000
1059.061127	7612.000000
1061.199608	7509.500000
1063.333736	7492.000000
1065.467350	7602.500000
1067.602368	7462.500000
1069.733037	7552.500000
1071.865112	7629.000000
1073.994756	7438.000000
1076.123889	7385.500000
1078.252511	7528.500000
1080.380621	7499.500000
1082.506305	7432.500000
1084.631479	7642.000000
1086.758056	7462.000000
1088.880297	7482.500000
1091.003942	7580.000000
1093.123252	7613.500000
1095.247791	7575.000000
1097.366086	7485.000000
1099.485784	7444.500000
1101.603064	7552.000000
1103.719838	7554.500000
1105.836105	7606.500000
1107.949957	7676.000000
1110.065212	7551.500000
1112.176145	7520.000000
1114.290389	7571.500000
1116.400314	7546.000000
1118.511641	7525.000000
1120.622465	7698.000000
1122.728972	7465.500000
1124.838788	7508.000000
1126.944290	7451.000000
1129.051196	7497.500000
1131.151885	7495.000000
1133.257787	7647.000000
1135.359380	7488.500000
1137.462376	7488.500000
1139.564871	7657.000000
1141.661160	7495.000000
1143.762655	7465.500000
1145.859848	7390.500000
1147.956542	7561.500000
1150.052739	7609.000000
1152.148437	7569.500000
1154.243638	7458.500000
1156.336442	7583.500000
1158.430648	7563.000000
1160.518663	7540.000000
1162.611876	7513.000000
1164.698901	7559.500000
1166.789226	7624.000000
1168.875262	7658.000000
1170.964596	7528.500000
1173.047749	7545.500000
1175.132305	7621.500000
1177.218261	7573.500000
1179.299936	7573.500000
1181.383013	7565.500000
1183.463704	7605.000000
1185.543904	7640.500000
1187.623612	7637.000000
1189.702829	7534.500000
1191.779663	7526.000000
1193.854117	7622.000000
1195.931863	7560.000000
1198.005338	7611.500000
1200.080215	7685.500000
1202.150824	7595.000000
1204.222834	7624.000000
1206.292468	7644.000000
1208.363503	7618.000000
1210.434050	7660.000000
1212.500336	7690.500000
1214.568023	7721.500000
1216.633338	7652.500000
1218.700053	7709.000000
1220.762512	7736.000000
1222.828257	7675.500000
1224.889747	7881.500000
1226.952637	7737.500000
1229.013160	7756.000000
1231.073200	7729.500000
1233.132756	7755.000000
1235.189948	7720.000000
1237.246657	7865.000000
1239.301004	7727.500000
1241.358631	7824.000000
1243.413896	7794.000000
1245.464920	7855.000000
1247.517345	7795.500000
1249.569289	8000.000000
1251.618875	8031.000000
1253.667982	7878.500000
1255.716610	8013.500000
1257.764760	7954.000000
1259.812432	8036.000000
1261.855873	8086.000000
1263.902589	7963.000000
1265.946953	8029.000000
1267.990839	7998.500000
1270.032375	8044.000000
1272.071561	7945.000000
1274.114019	8044.000000
1276.152256	8004.500000
1278.191890	8049.000000
1280.231050	7989.500000
1282.265992	8007.000000
1284.302332	8046.000000
1286.336327	8276.500000
1288.371721	8053.500000
1290.402901	8170.000000
1292.435480	8041.000000
1294.467586	8325.500000
1296.497352	8089.500000
1298.528516	8286.500000
1300.555472	8274.000000
1302.583826	8225.500000
1304.607976	8311.000000
1306.635391	8446.000000
1308.658603	8269.500000
1310.683213	8471.500000
1312.705488	8355.000000
1314.729161	8341.500000
1316.750501	8225.500000
1318.771374	8211.000000
1320.791779	8371.000000
1322.807990	8307.500000
1324.825600	8295.000000
1326.840881	8161.000000
1328.859421	8129.500000
1330.873771	8264.500000
1332.885796	8158.000000
1334.901079	8219.500000
1336.912176	8052.000000
1338.924669	8116.500000
1340.932980	8078.000000
1342.944547	8093.000000
1344.950075	8002.000000
1346.958857	8116.500000
1348.963463	8091.000000
1350.971322	8156.500000
1352.978719	8192.500000
1354.980084	8075.000000
1356.982847	8070.500000
1358.985150	8017.500000
1360.986992	7996.500000
1362.988376	8098.500000
1364.987445	8044.000000
1366.986056	8008.500000
1368.984209	7970.500000
1370.981904	7925.500000
1372.975435	7947.500000
1374.970363	8047.000000
1376.964834	8038.500000
1378.958848	7977.500000
1380.950555	8046.000000
1382.941806	8097.000000
1384.930752	8054.000000
1386.921093	8072.500000
1388.910979	7936.000000
1390.898562	8081.000000
1392.885691	8056.500000
1394.870518	8032.000000
1396.856740	8198.500000
1398.840661	8093.500000
1400.824130	8006.500000
1402.807147	8147.500000
1404.787866	8158.000000
1406.769979	8208.500000
1408.749795	8224.000000
1410.729161	8120.500000
1412.704388	8162.500000
1414.682853	8199.000000
1416.659025	8211.500000
1418.634747	8040.000000
1420.610020	8217.500000
1422.583002	8172.500000
1424.555537	8243.500000
1426.527623	8215.000000
1428.499261	8344.000000
1430.466772	8227.000000
1432.439356	8192.500000
1434.404134	8319.500000
1436.373985	8360.500000
1438.339711	8278.500000
1440.306831	8288.000000
1442.271667	8221.500000
1444.232383	8293.000000
1446.198167	8286.500000
1448.157996	8302.000000
1450.119218	8318.500000
1452.081833	8268.000000
1454.040333	8453.000000
1455.998391	8336.500000
1457.956006	8317.500000
1459.913180	8263.500000
1461.868078	8419.000000
1463.824368	8324.000000
1465.778384	8283.500000
1467.731960	8222.000000
1469.683263	8208.000000
1471.635958	8329.000000
1473.586382	8130.000000
1475.536367	8187.000000
1477.485912	8227.000000
1479.433189	8193.000000
1481.378199	8045.500000
1483.324601	8127.000000
1485.270565	8135.500000
1487.216091	8288.000000
1489.159353	8024.000000
1491.102178	8170.000000
1493.042740	8067.000000
1494.984693	8299.000000
1496.924385	8425.500000
1498.863641	8240.500000
1500.802463	8078.000000
1502.739025	8239.000000
1504.676977	8378.000000
1506.612672	8253.000000
1508.547933	8218.500000
1510.480937	8288.500000
1512.413509	8224.500000
1514.345649	8407.000000
1516.277357	8232.500000
1518.206812	8485.500000
1520.137656	8261.500000
1522.068070	8320.500000
1523.994411	8253.000000
1525.922142	8413.500000
1527.847623	8414.000000
1529.772675	8332.000000
1531.697298	8407.500000
1533.621492	8519.000000
1535.543439	8506.500000
1537.466775	8398.500000
1539.387866	8471.000000
1541.306712	8702.000000
1543.226948	8725.500000
1545.144940	8542.000000
1547.062506	8501.000000
1548.977830	8536.500000
1550.894544	8435.000000
1552.807203	8445.000000
1554.723066	8464.000000
1556.636690	8547.000000
1558.548075	8452.500000
1560.460849	8480.500000
1562.369574	8523.000000
1564.279689	8502.500000
1566.189380	8431.000000
1568.098647	8468.500000
1570.005681	8409.000000
1571.910482	8332.500000
1573.816672	8443.500000
1575.720630	8226.500000
1577.624168	8144.000000
1579.527284	8384.500000
1581.428172	8340.500000
1583.330448	8241.000000
1585.230495	8199.500000
1587.131931	8358.500000
1589.029332	8216.500000
1590.926316	8177.500000
1592.822881	8271.500000
1594.720833	8240.500000
1596.612951	8381.000000
1598.508263	8345.500000
1600.403156	8456.000000
1602.295828	8329.000000
1604.188084	8331.500000
1606.078120	8238.500000
1607.967740	8370.000000
1609.856945	8310.000000
1611.745734	8250.000000
1613.632307	8282.000000
1615.520267	8448.500000
1617.404210	8306.000000
1619.289540	8355.000000
1621.174457	8285.500000
1623.057160	8420.500000
1624.941249	8250.500000
1626.821328	8368.500000
1628.702793	8336.500000
1630.582048	8377.000000
1632.462689	8301.500000
1634.337526	8275.500000
1636.217345	8392.500000
1638.093158	8349.000000
1639.968562	8260.500000
1641.845351	8296.000000
1643.716343	8251.500000
1645.590517	8380.500000
1647.460693	8170.000000
1649.334049	8287.500000
1651.205202	8282.000000
1653.074153	8340.000000
1654.944490	8084.500000
1656.810833	8079.000000
1658.678563	8164.500000
1660.544093	8148.500000
1662.411008	8041.500000
1664.273935	7971.000000
1666.138247	7912.000000
1668.000364	8027.500000
1669.862075	8083.500000
1671.725171	7902.000000
1673.586073	7885.500000
1675.444781	7933.500000
1677.303086	7828.000000
1679.162776	7924.000000
1681.016699	7916.500000
1682.873794	8003.000000
1684.730487	7906.000000
1686.583204	7886.500000
1688.439092	7780.500000
1690.291006	7937.500000
1692.142519	7817.000000
1693.993631	8045.500000
1695.844342	7745.500000
1697.694653	7761.500000
1699.542780	7730.000000
1701.392290	7917.500000
1703.236052	7636.000000
1705.084764	7669.000000
1706.927729	7778.000000
1708.773860	7710.500000
1710.616030	7612.000000
1712.461364	7708.500000
1714.300958	7806.500000
1716.141936	7610.500000
1717.984297	7770.500000
1719.822702	7644.000000
1721.662490	7643.500000
1723.500103	7600.500000
1725.337320	7546.500000
1727.172364	7674.500000
1729.008791	7645.000000
1730.843046	7486.000000
1732.676907	7472.000000
1734.510373	7597.500000
1736.339893	7504.500000
1738.172572	7628.000000
1740.001307	7480.000000
1741.833200	7504.500000
1743.661150	7439.000000
1745.488708	7402.500000
1747.315875	7276.000000
1749.142650	7503.000000
1750.969033	7372.500000
1752.791480	7542.000000
1754.617081	7272.500000
1756.438748	7368.000000
1758.261797	7380.500000
1760.082685	7375.000000
1761.903183	7421.500000
1763.725063	7393.500000
1765.541243	7300.000000
1767.360575	7297.500000
1769.175980	7297.000000
1770.994536	7212.000000
1772.809166	7234.000000
1774.623409	7227.000000
1776.437266	7223.000000
1778.250736	7183.500000
1780.062052	7280.000000
1781.874750	7203.500000
1783.687061	7242.500000
1785.495455	7265.000000
1787.305230	7249.000000
1789.111089	7173.500000
1790.920095	7240.500000
1792.725187	7231.500000
1794.531659	7240.000000
1796.337748	7268.000000
1798.139927	7129.000000
1799.945249	7293.000000
1801.746663	7244.000000
1803.549457	7196.500000
1805.348346	7286.500000
1807.148614	7228.500000
1808.948502	7110.000000
1810.746247	7118.500000
1812.543612	7316.000000
1814.340596	7065.500000
1816.137200	7204.500000
1817.931665	7163.000000
1819.727510	7196.500000
1821.517699	7077.000000
1823.312785	7139.500000
1825.102218	7199.500000
1826.894789	7153.000000
1828.685224	7207.500000
1830.473524	7234.000000
1832.264960	7189.000000
1834.050751	7078.000000
1835.837920	7233.000000
1837.622958	7181.000000
1839.411130	7172.500000
1841.195416	7187.500000
1842.977573	7141.000000
1844.761108	7184.000000
1846.542516	7062.000000
1848.325301	7143.000000
1850.104207	7187.500000
1851.884491	6930.000000
1853.662650	7073.000000
1855.442186	7190.500000
1857.219598	7066.500000
1858.994886	7016.500000
1860.771553	7067.000000
1862.546097	7048.000000
1864.322018	7071.500000
1866.092320	7125.500000
1867.865749	7102.500000
1869.637058	6935.000000
1871.407996	7203.500000
1873.180311	7015.000000
1874.947014	7094.500000
1876.716841	7091.500000
1878.482805	7054.000000
1880.251893	7069.000000
1882.017119	7058.500000
1883.781977	7016.000000
1885.548211	7042.000000
1887.310587	6949.500000
1889.072596	6957.000000
1890.834238	6967.500000
1892.595512	7085.500000
1894.356420	6975.500000
1896.116960	6929.000000
1897.875391	6999.000000
1899.633457	6864.000000
1901.389415	6945.000000
1903.146749	6930.500000
1904.903717	6912.000000
1906.658580	6802.000000
1908.411337	6858.000000
1910.163731	6875.500000
1911.917501	6871.000000
1913.669167	6902.000000
1915.418730	6831.500000
1917.169670	6885.500000
1918.920246	6972.000000
1920.666984	6880.500000
1922.415097	6907.500000
1924.161111	6917.500000
1925.908501	6970.500000
1927.653792	6999.500000
1929.396986	6941.000000
1931.141556	7026.500000
1932.884029	6869.000000
1934.626142	6998.000000
1936.367896	7025.000000
1938.109289	7024.000000
1939.848589	6951.500000
1941.587530	6970.000000
1943.326112	7005.500000
1945.062602	6974.500000
1946.798735	6970.250000
1948.536242	6966.000000
1950.269928	6882.500000
1952.004988	6856.500000
1953.737959	7055.500000
1955.470574	6940.000000
1957.202832	6892.500000
1958.934734	7075.500000
1960.664550	7066.500000
1962.392282	6969.000000
1964.121388	7020.500000
1965.850138	6912.500000
1967.576805	6920.000000
1969.303118	6995.500000
1971.030804	7018.000000
1972.752954	6921.500000
1974.478206	7006.000000
1976.199650	6907.500000
1977.924194	6995.000000
1979.646659	6979.500000
1981.365320	7096.000000
1983.087080	7093.500000
1984.805038	7018.500000
1986.524370	7039.000000
1988.239901	7079.500000
1989.960254	7040.000000
1991.676807	6997.000000
1993.389565	7052.000000
1995.105418	6870.500000
1996.819199	7156.500000
1998.532629	7015.000000
2000.243989	7087.000000
2001.956722	7041.500000
2003.665663	7064.500000
2005.377698	7173.500000
2007.084223	7093.500000
2008.793841	7025.000000
2010.501391	7247.000000
2012.208594	7142.000000
2013.913731	7089.000000
2015.618521	7112.000000
2017.324683	7088.000000
2019.027063	7213.000000
2020.730815	7144.000000
2022.432504	7045.500000
2024.133847	7139.500000
2025.834845	7080.500000
2027.533783	7178.000000
2029.234092	7021.500000
2030.930625	7055.000000
2032.628530	7025.000000
2034.324377	7139.000000
2036.023309	7044.500000
2037.716755	7115.000000
2039.411572	7117.500000
2041.106046	6939.000000
2042.796752	7128.000000
2044.490542	7084.500000
2046.180565	7117.000000
2047.871959	7074.000000
2049.561300	7061.000000
2051.252011	6979.500000
2052.938960	7069.500000
2054.625568	7041.500000
2056.313547	6931.500000
2057.997766	7070.500000
2059.683355	6916.000000
2061.368605	6983.000000
2063.051807	6844.000000
2064.736379	6972.000000
2066.415487	6834.500000
2068.099381	6977.000000
2069.777815	6943.500000
2071.459326	6918.000000
2073.137085	6851.000000
2074.814508	6865.500000
2076.493300	6827.000000
2078.170049	6805.000000
2079.844757	6928.500000
2081.520834	6783.500000
2083.194871	6884.500000
2084.868572	6852.500000
2086.541938	6844.000000
2088.213266	6827.000000
2089.884259	6871.000000
2091.554918	6892.000000
2093.225243	6834.500000
2094.895233	6851.500000
2096.563188	6808.000000
2098.230810	6859.000000
2099.896398	6846.000000
2101.563354	6775.500000
2103.228277	6828.000000
2104.892867	6845.500000
2106.555426	6865.000000
2108.219354	6951.000000
2109.881250	6779.500000
2111.542815	6935.500000
2113.204050	6757.500000
2114.863255	6905.500000
2116.522131	6885.500000
2118.180676	6822.000000
2119.838892	6946.000000
2121.493385	6889.500000
2123.150942	6747.000000
2124.808169	6881.000000
2126.461676	6999.000000
2128.116550	6888.500000
2129.767705	6807.000000
2131.421923	6876.000000
2133.072423	6808.500000
2134.724291	6731.000000
2136.370750	6718.000000
2138.021963	6583.000000
2139.669464	6871.500000
2141.318331	6851.000000
2142.965179	6706.000000
2144.611702	6660.500000
2146.257899	6779.500000
2147.900387	6757.000000
2149.545934	6870.000000
2151.187774	6749.500000
2152.832671	6794.500000
2154.473863	6795.000000
2156.114731	6855.000000
2157.755276	6832.500000
2159.393808	6776.500000
2161.033706	6912.500000
2162.669904	6762.000000
2164.307468	6801.000000
2165.944710	6722.500000
2167.579942	6779.500000
2169.214852	6858.500000
2170.849441	6772.500000
2172.483709	6760.500000
2174.114283	6691.000000
2175.747908	6644.000000
2177.377842	6743.500000
2179.009142	6769.500000
2180.638436	6699.500000
2182.267410	6669.000000
2183.896066	6681.500000
2185.524402	6710.000000
2187.150735	6683.500000
2188.776750	6672.000000
2190.400764	6782.500000
2192.026143	6796.000000
2193.649521	6642.500000
2195.274264	6656.000000
2196.895325	6537.000000
2198.516071	6454.000000
2200.138180	6588.000000
2201.758292	6709.500000
2203.376408	6561.000000
2204.994208	6529.000000
2206.611692	6479.500000
2208.228861	6707.500000
2209.845715	6591.000000
2211.462254	6464.000000
2213.076799	6479.500000
2214.689353	6626.000000
2216.303270	6526.000000
2217.915195	6382.000000
2219.528485	6329.500000
2221.139783	6477.000000
2222.749093	6307.000000
2224.359765	6482.000000
2225.968449	6390.000000
2227.576821	6381.000000
2229.183205	6376.000000
2230.790953	6385.000000
2232.396714	6412.500000
2234.002164	6422.000000
2235.605630	6435.500000
2237.210458	6295.000000
2238.813302	6355.500000
2240.414163	6466.500000
2242.016387	6345.500000
2243.616629	6366.000000
2245.218233	6392.500000
2246.816184	6393.000000
2248.415498	6308.500000
2250.012832	6347.500000
2251.609858	6370.500000
2253.208245	6475.000000
2254.802984	6408.000000
2256.395747	6407.500000
2257.989871	6377.500000
2259.585358	6309.000000
2261.177199	6470.500000
2262.768734	6312.500000
2264.361630	6307.500000
2265.949217	6217.500000
2267.541501	6273.000000
2269.128477	6297.500000
2270.718482	6301.000000
2272.303182	6260.000000
2273.892576	6225.000000
2275.476667	6139.500000
2277.062120	6194.000000
2278.645604	6149.000000
2280.232113	6148.500000
2281.814989	6107.000000
2283.397561	6162.000000
2284.979831	6109.500000
2286.558470	6078.000000
2288.140133	6155.000000
2289.718169	6078.000000
2291.299227	6119.500000
2292.876658	6096.500000
2294.452126	6073.500000
2296.030616	6008.500000
2297.605481	6109.500000
2299.180046	6000.000000
2300.754311	6051.500000
2302.328275	5908.000000
2303.901939	5970.500000
2305.475302	6108.000000
2307.045047	6046.500000
2308.614493	5954.000000
2310.186958	5994.000000
2311.754148	5924.500000
2313.324355	5808.500000
2314.890948	5895.500000
2316.458901	5913.500000
2318.024899	5957.500000
2319.590599	5967.500000
2321.156001	5819.500000
2322.719450	5750.500000
2324.284258	5971.000000
2325.845457	5891.000000
2327.409671	5848.500000
2328.968624	5788.000000
2330.530590	5923.500000
2332.090606	6001.000000
2333.650326	5881.000000
2335.208097	5981.500000
2336.765574	5981.000000
2338.322755	5902.000000
2339.877990	5930.000000
2341.432930	5972.000000
2342.987577	5910.000000
2344.541930	5918.500000
2346.095989	5962.500000
2347.649755	5890.000000
2349.201576	5904.000000
2350.751454	5780.500000
2352.304340	5897.500000
2353.851984	5806.500000
2355.402635	5844.500000
2356.949696	5803.500000
2358.498114	5734.000000
2360.046240	5750.000000
2361.590779	5776.500000
2363.136675	5818.500000
2364.680632	5712.000000
2366.225947	5782.000000
2367.767677	5721.500000
2369.310765	5700.500000
2370.851916	5745.500000
2372.392778	5787.500000
2373.933351	5738.000000
2375.473635	5729.500000
2377.013630	5642.500000
2378.550046	5806.000000
2380.089464	5673.000000
2381.625305	5620.500000
2383.162502	5619.000000
2384.696125	5674.500000
2386.232747	5633.000000
2387.767438	5716.000000
2389.300200	5601.500000
2390.832676	5558.500000
2392.363223	5544.000000
2393.896768	5680.000000
2395.425102	5699.500000
2396.954792	5538.000000
2398.484197	5680.500000
2400.013317	5554.000000
2401.542151	5712.500000
2403.065781	5717.000000
2404.594046	5559.000000
2406.117108	5565.500000
2407.644805	5627.000000
2409.165661	5543.500000
2410.691151	5611.500000
2412.213081	5586.500000
2413.736365	5532.000000
2415.257729	5532.500000
2416.777173	5631.500000
2418.297972	5675.000000
2419.816852	5659.000000
2421.335450	5620.500000
2422.852131	5614.500000
2424.370167	5660.000000
2425.887921	5509.500000
2427.402123	5665.000000
2428.916045	5509.500000
2430.429688	5584.500000
2431.944684	5621.000000
2433.456132	5406.000000
2434.968935	5484.000000
2436.479825	5563.000000
2437.990435	5438.500000
2439.499134	5495.500000
2441.010820	5562.500000
2442.518962	5612.000000
2444.026825	5579.500000
2445.534411	5591.000000
2447.038457	5514.000000
2448.545487	5493.500000
2450.050609	5692.500000
2451.555454	5534.500000
2453.058392	5489.000000
2454.561053	5590.500000
2456.063438	5481.000000
2457.563918	5592.500000
2459.065751	5521.500000
2460.565680	5411.000000
2462.065333	5431.000000
2463.564711	5418.500000
2465.062186	5399.500000
2466.557759	5349.000000
2468.056312	5349.000000
2469.551337	5255.500000
2471.047714	5408.000000
2472.540565	5389.000000
2474.034768	5347.000000
2475.528698	5203.000000
2477.019105	5256.500000
2478.512489	5253.000000
2480.003975	5388.500000
2481.493564	5243.500000
2482.982881	5169.000000
2484.470302	5138.000000
2485.960699	5190.000000
2487.447577	5201.500000
2488.935807	5244.000000
2490.420521	5192.000000
2491.904964	5125.500000
2493.390759	5143.500000
2494.874661	5190.000000
2496.359915	5077.500000
2497.840035	5071.000000
2499.323127	5109.500000
2500.804329	5169.000000
2502.285262	5236.500000
2503.764306	5088.500000
2505.243082	5149.500000
2506.721589	5181.000000
2508.199827	5192.500000
2509.677798	5108.000000
2511.152263	5215.500000
2512.629697	5126.000000
2514.103628	5182.500000
2515.578910	5116.500000
2517.053924	5251.000000
2518.525437	5121.000000
2519.998301	5261.000000
2521.469282	5169.500000
2522.941613	5247.500000
2524.408830	5241.500000
2525.879014	5288.000000
2527.347316	5311.500000
2528.815354	5224.500000
2530.283127	5205.000000
2531.750635	5136.000000
2533.217878	5236.000000
2534.681630	5176.000000
2536.146731	5184.500000
2537.609955	5148.000000
2539.074528	5263.000000
2540.535613	5211.500000
2541.998047	5209.000000
2543.460218	5206.000000
2544.918902	5285.000000
2546.382159	5298.000000
2547.840319	5253.500000
2549.299828	5141.500000
2550.754244	5180.000000
2552.213230	5246.000000
2553.670343	5274.000000
2555.125586	5146.000000
2556.580568	5227.000000
2558.033680	5184.000000
2559.488141	5168.500000
2560.940733	5229.500000
2562.393065	5200.500000
2563.843529	5304.000000
2565.296949	5184.000000
2566.745287	5073.500000
2568.196581	5136.000000
2569.646008	5205.500000
2571.091964	5202.500000
2572.540874	5113.500000
2573.986313	5167.500000
2575.433101	5186.500000
2576.878025	5097.000000
2578.322692	5195.500000
2579.768706	5126.000000
2581.211253	5220.000000
2582.655148	5187.500000
2584.095578	5130.000000
2585.537356	5137.000000
2586.977274	5103.500000
2588.418539	5027.500000
2589.856342	5105.500000
2591.297095	5136.000000
2592.732785	5129.000000
2594.171425	5060.000000
2595.608208	5114.000000
2597.043134	5134.000000
2598.481009	4986.500000
2599.913826	4994.500000
2601.347990	4972.000000
2602.780299	5174.500000
2604.213956	4990.000000
2605.645758	5011.500000
2607.077308	5079.500000
2608.508604	5147.000000
2609.938049	5074.500000
2611.367241	5067.000000
2612.794582	5112.500000
2614.223270	4978.500000
2615.651705	5133.500000
2617.076694	5005.500000
2618.503028	4962.500000
2619.927514	5111.000000
2621.353346	4971.000000
2622.775734	5084.000000
2624.199468	5012.000000
2625.621356	5066.000000
2627.042993	5029.500000
2628.462785	4993.500000
2629.883923	5006.000000
2631.304811	4960.000000
2632.722261	4934.500000
2634.142650	5000.500000
2635.559602	4834.000000
2636.976306	4982.000000
2638.392761	4932.500000
2639.808968	4914.500000
2641.224926	5008.500000
2642.639044	4822.000000
2644.052915	4996.000000
2645.464946	4883.500000
2646.878322	4896.000000
2648.288268	4950.500000
2649.701150	4956.500000
2651.110603	4941.000000
2652.519810	4946.000000
2653.927181	4892.000000
2655.337486	4935.500000
2656.745955	4958.500000
2658.152589	4928.000000
2659.558978	4855.000000
2660.963533	4854.500000
2662.369432	4835.000000
2663.773498	4771.500000
2665.177320	4793.000000
2666.580897	4873.500000
2667.982642	4946.000000
2669.385731	4982.500000
2670.785403	4956.000000
2672.186418	4936.000000
2673.584016	4985.000000
2674.984545	4847.000000
2676.381659	4965.500000
2677.780116	4871.500000
2679.176745	4795.000000
2680.573133	4891.500000
2681.969278	4931.500000
2683.363597	4868.000000
2684.759259	4871.000000
2686.151511	4814.000000
2687.545107	4953.000000
2688.936878	4871.500000
2690.329991	4836.000000
2691.721281	4862.500000
2693.110748	4851.500000
2694.499976	4666.000000
2695.888963	4811.000000
2697.279293	4828.000000
2698.664638	4888.000000
2700.052908	4799.000000
2701.439357	4845.000000
2702.825567	4750.500000
2704.211538	4801.000000
2705.594111	4768.500000
2706.978025	4804.000000
2708.361702	4666.000000
2709.745141	4881.500000
2711.125184	4728.500000
2712.506569	4707.500000
2713.886138	4710.500000
2715.267049	4668.000000
2716.646145	4834.000000
2718.023426	4762.500000
2719.402049	4739.000000
2720.778859	4735.500000
2722.155433	4831.000000
2723.531771	4790.500000
2724.906297	4766.500000
2726.282164	4726.000000
2727.654644	4618.000000
2729.030041	4662.500000
2730.400476	4703.500000
2731.772253	4644.500000
2733.143796	4668.000000
2734.513530	4645.500000
2735.884604	4688.000000
2737.253871	4696.000000
2738.622904	4646.500000
2739.990130	4665.500000
2741.357124	4765.000000
2742.723885	4710.000000
2744.090413	4653.500000
2745.455137	4701.000000
2746.819628	4640.000000
2748.183887	4697.500000
2749.547915	4602.500000
2750.911710	4695.000000
2752.272132	4645.000000
2753.635465	4608.000000
2754.993855	4745.500000
2756.355155	4629.500000
2757.713084	4588.000000
2759.073923	4614.500000
2760.432961	4539.000000
2761.788631	4590.000000
2763.147210	4517.000000
2764.502421	4547.500000
2765.857403	4491.000000
2767.210588	4494.500000
2768.566680	4510.500000
2769.919408	4675.000000
2771.271907	4576.500000
2772.624179	4602.000000
2773.977788	4458.500000
2775.328036	4527.500000
2776.676491	4617.500000
2778.027850	4478.500000
2779.375850	4548.000000
2780.725189	4422.500000
2782.072735	4568.000000
2783.420054	4566.000000
2784.767147	4462.000000
2786.112449	4459.000000
2787.457525	4467.500000
2788.802375	4378.500000
2790.146999	4385.000000
2791.488270	4473.500000
2792.830880	4410.000000
2794.173265	4540.000000
2795.515424	4475.500000
2796.854234	4483.000000
2798.195944	4534.500000
2799.534305	4393.500000
2800.874004	4444.500000
2802.211917	4459.000000
2803.548046	4499.000000
2804.883952	4477.500000
2806.221194	4524.000000
2807.556653	4588.500000
2808.891889	4382.000000
2810.225343	4507.500000
2811.560133	4366.000000
2812.891582	4532.500000
2814.225927	4461.000000
2815.555374	4329.500000
2816.886158	4500.000000
2818.216720	4399.000000
2819.545503	4400.500000
2820.875623	4461.500000
2822.203963	4301.000000
2823.532083	4489.500000
2824.858426	4443.500000
2826.186104	4280.500000
2827.510450	4325.000000
2828.836132	4331.500000
2830.160038	4348.000000
2831.483724	4321.000000
2832.808746	4225.000000
2834.130439	4319.500000
2835.451912	4421.500000
2836.773167	4396.000000
2838.094203	4359.000000
2839.413467	4351.000000
2840.734066	4358.000000
2842.052893	4291.000000
2843.371502	4380.000000
2844.688341	4460.000000
2846.004962	4321.000000
2847.321365	4330.500000
2848.636000	4308.500000
2849.951969	4314.000000
2851.264618	4316.500000
2852.578603	4332.500000
2853.892371	4349.500000
2855.205922	4323.000000
2856.517706	4311.000000
2857.827725	4407.500000
2859.139078	4297.000000
2860.447115	4377.500000
2861.756488	4387.000000
2863.065645	4261.000000
2864.374587	4265.000000
2865.681766	4280.500000
2866.987181	4375.000000
2868.293931	4286.000000
2869.598918	4373.500000
2870.903692	4270.500000
2872.206704	4202.500000
2873.512598	4300.500000
2874.813637	4260.500000
2876.116009	4300.000000
2877.416622	4268.000000
2878.718569	4269.500000
2880.020303	4124.500000
2881.318733	4280.500000
2882.618496	4117.000000
2883.916502	4263.000000
2885.214296	4192.000000
2886.510333	4223.500000
2887.807704	4115.500000
2889.103319	4137.000000
2890.398724	4282.000000
2891.693917	4164.500000
2892.985812	4109.000000
2894.280584	4239.000000
2895.572060	4085.500000
2896.864868	4221.500000
2898.157466	4251.500000
2899.446769	4204.000000
2900.737405	4203.000000
2902.026291	4124.500000
2903.316508	4095.500000
2904.603434	4175.000000
2905.891692	4169.000000
2907.178201	4161.500000
2908.464501	4230.000000
2909.750593	4063.000000
2911.034937	4084.000000
2912.322153	4136.000000
2913.604542	4059.000000
2914.888263	4072.000000
2916.170237	4041.000000
2917.452005	4072.500000
2918.732027	3959.000000
2920.014919	4130.500000
2921.296066	4061.500000
2922.573931	4127.500000
2923.854665	3964.500000
2925.132118	4055.000000
2926.409366	4088.000000
2927.684871	4008.000000
2928.963244	4017.000000
2930.236802	4003.500000
2931.513228	3941.000000
2932.787913	4103.500000
2934.060858	4074.000000
2935.335133	3993.500000
2936.607669	3998.500000
2937.880001	3938.500000
2939.149060	3914.000000
2940.420984	3861.500000
2941.691170	4014.500000
2942.961152	3828.500000
2944.230931	3836.500000
2945.498973	3852.000000
2946.765280	3885.500000
2948.031384	3834.000000
2949.298819	3908.500000
2950.564518	3860.000000
2951.830015	3863.500000
2953.095310	3922.000000
2954.357341	3837.000000
2955.620701	3794.000000
2956.883860	3934.500000
2958.145286	4013.000000
2959.408042	3767.500000
2960.669067	3842.000000
2961.928361	3820.000000
2963.187454	3856.000000
2964.446347	3883.500000
2965.705040	3921.000000
2966.963533	3857.000000
2968.220297	3821.500000
2969.476862	3797.500000
2970.731698	3755.000000
2971.987864	3855.500000
2973.240774	3853.000000
2974.495014	3787.500000
2975.749055	3873.000000
2977.001370	3736.000000
2978.253487	3789.000000
2979.503879	3837.000000
2980.757126	3806.000000
2982.005596	3841.500000
2983.256920	3854.000000
2984.504996	3869.000000
2985.752874	3856.500000
2987.000555	3756.000000
2988.248040	3949.000000
2989.493803	3764.500000
2990.739369	3854.000000
2991.986264	3782.000000
2993.229913	3804.500000
2994.474891	3768.500000
2995.716626	3813.500000
2996.961212	3881.000000
2998.204079	3798.500000
2999.443704	3824.500000
3000.686181	3805.000000
3001.925417	3727.000000
3003.165981	3812.000000
3004.404828	3834.500000
3005.643481	3802.000000
3006.880418	3754.500000
3008.118682	3855.500000
3009.355232	3946.000000
3010.591588	3703.500000
3011.827750	3882.500000
3013.062198	3852.500000
3014.296453	3758.500000
3015.530515	3722.500000
3016.762865	3777.500000
3017.993503	3849.500000
3019.226987	3760.500000
3020.458760	3873.500000
3021.688821	3800.000000
3022.918691	3767.000000
3024.146851	3688.000000
3025.376338	3895.500000
3026.604115	3706.500000
3027.831701	3727.500000
3029.060613	3730.000000
3030.284783	3736.000000
3031.511796	3668.000000
3032.735586	3644.500000
3033.960701	3702.000000
3035.184110	3813.500000
3036.407330	3724.500000
3037.628844	3758.500000
3038.853199	3675.500000
3040.072819	3664.000000
3041.293765	3687.500000
3042.514521	3658.500000
3043.733574	3723.500000
3044.953953	3615.500000
3046.171115	3647.500000
3047.389602	3657.500000
3048.606388	3670.000000
3049.822985	3718.000000
3051.039395	3636.000000
3052.252591	3645.000000
3053.468625	3619.000000
3054.681447	3626.000000
3055.897106	3628.000000
3057.108042	3513.000000
3058.320304	3600.000000
3059.532378	3625.000000
3060.744266	3595.500000
3061.954456	3546.000000
3063.164461	3470.500000
3064.374279	3532.000000
3065.582401	3594.500000
3066.790337	3458.000000
3067.996579	3552.500000
3069.204145	3567.500000
3070.410016	3554.000000
3071.615702	3540.500000
3072.821204	3544.500000
3074.025012	3510.500000
3075.230144	3444.000000
3076.433583	3581.000000
3077.635330	3521.000000
3078.836894	3548.500000
3080.038274	3529.500000
3081.239470	3541.500000
3082.438976	3637.500000
3083.638298	3550.500000
3084.838944	3543.500000
3086.037901	3564.500000
3087.233662	3531.000000
3088.432253	3479.500000
3089.627650	3524.000000
3090.824371	3470.000000
3092.017899	3536.000000
3093.214255	3561.000000
3094.408924	3549.000000
3095.600403	3585.500000
3096.796213	3599.500000
3097.987330	3519.500000
3099.179770	3471.500000
3100.369021	3489.000000
3101.561099	3511.000000
3102.751493	3410.000000
3103.938700	3493.000000
3105.127231	3467.000000
3106.317084	3501.000000
3107.503752	3421.000000
3108.690241	3404.500000
3109.876550	3571.500000
3111.064182	3488.500000
3112.248631	3485.500000
3113.431400	3408.000000
3114.616993	3470.500000
3115.800905	3372.000000
3116.983139	3443.500000
3118.165195	3456.000000
3119.347072	3448.500000
3120.528771	3530.500000
3121.708793	3414.000000
3122.887137	3408.000000
3124.068303	3364.000000
3125.246293	3438.500000
3126.424106	3438.000000
3127.601742	3364.000000
3128.777703	3419.000000
3129.953488	3435.500000
3131.130593	3329.500000
3132.306025	3444.500000
3133.479783	3437.500000
3134.651868	3296.000000
3135.825274	3466.000000
3136.998505	3393.000000
3138.170064	3425.500000
3139.342943	3427.000000
3140.512655	3414.500000
3141.683688	3402.000000
3142.853050	3454.000000
3144.020743	3364.000000
3145.191251	3389.000000
3146.357100	3378.500000
3147.527259	3310.500000
3148.692760	3321.000000
3149.858088	3396.000000
3151.023242	3358.000000
3152.188223	3284.500000
3153.354523	3370.500000
3154.516170	3350.000000
3155.679138	3364.000000
3156.841932	3328.000000
3158.004554	3257.000000
3159.165511	3192.500000
3160.326295	3378.000000
3161.486908	3279.000000
3162.645856	3261.000000
3163.804632	3301.000000
3164.963237	3176.500000
3166.121670	3205.000000
3167.279931	3276.000000
3168.436530	3254.500000
3169.591468	3318.000000
3170.747726	3259.500000
3171.902322	3188.000000
3173.056747	3174.000000
3174.209513	3173.500000
3175.362109	3108.000000
3176.514535	3156.000000
3177.666790	3121.000000
3178.818876	3188.000000
3179.967815	3216.500000
3181.119561	3226.000000
3182.269650	3118.000000
3183.418081	3159.500000
3184.566344	3044.000000
3185.714438	3190.500000
3186.862363	3197.500000
3188.008632	3257.000000
3189.154733	3220.500000
3190.299180	3226.000000
3191.443458	3231.500000
3192.587569	3207.500000
3193.732998	3164.500000
3194.875288	3220.500000
3196.017410	3223.000000
3197.159366	3256.000000
3198.301154	3078.500000
3199.442775	3162.500000
3200.581260	3168.500000
3201.721064	3122.500000
3202.862184	3209.000000
3204.000170	3160.500000
3205.136507	3199.000000
3206.272678	3157.500000
3207.410167	3258.500000
3208.546007	3230.500000
3209.683164	3154.500000
3210.815708	3132.000000
3211.952533	3160.500000
3213.084747	3151.500000
3214.218279	3184.500000
3215.351645	3008.000000
3216.481884	3271.000000
3217.614922	3087.500000
3218.744832	3136.000000
3219.876060	3151.500000
3221.004162	3116.000000
3222.135062	3011.000000
3223.264317	3086.500000
3224.391928	3071.000000
3225.516418	3111.000000
3226.645183	3024.500000
3227.770826	3032.000000
3228.896306	3070.500000
3230.020145	3072.000000
3231.146779	3032.000000
3232.268814	3062.500000
3233.392166	3071.000000
3234.515356	3189.500000
3235.638384	2973.000000
3236.759772	3032.500000
3237.880999	3012.500000
3239.000587	2987.000000
3240.120014	2941.000000
3241.237804	3044.000000
3242.358385	2874.500000
3243.475853	3076.500000
3244.593160	2922.000000
3245.710306	2970.000000
3246.825817	2925.500000
3247.942643	2965.500000
3249.056358	3007.500000
3250.172864	2953.500000
3251.287734	2962.500000
3252.399496	2988.500000
3253.511099	2923.000000
3254.624017	2984.000000
3255.736775	2899.500000
3256.846427	2964.500000
3257.957394	2932.500000
3259.068202	2883.000000
3260.177378	2913.000000
3261.284923	2932.000000
3262.393783	2933.500000
3263.502484	2963.500000
3264.608083	2829.000000
3265.714997	2856.000000
3266.820281	2804.000000
3267.926879	2901.000000
3269.030377	2936.500000
3270.135189	2803.000000
3271.239844	2850.500000
3272.341401	2880.000000
3273.442801	2767.000000
3274.545515	2952.500000
3275.648072	2865.500000
3276.747534	2859.500000
3277.849778	2853.000000
3278.948928	2827.000000
3280.046452	2891.500000
3281.143821	2825.000000
3282.243973	2805.000000
3283.341031	2893.000000
3284.437935	2909.000000
3285.534683	2875.000000
3286.626872	2902.000000
3287.723311	2801.000000
3288.818127	2763.500000
3289.912788	2765.000000
3291.005828	2779.000000
3292.098714	2840.500000
3293.189979	2772.000000
3294.282557	2783.500000
3295.373515	2835.000000
3296.462853	2794.000000
3297.552038	2837.500000
3298.642535	2754.500000
3299.729948	2737.000000
3300.817209	2766.000000
3301.905782	2742.000000
3302.994202	2777.000000
3304.078075	2690.500000
3305.166190	2699.500000
3306.251224	2790.500000
3307.334642	2766.000000
3308.419372	2760.500000
3309.502486	2786.500000
3310.586912	2802.500000
3311.668260	2715.500000
3312.750920	2778.000000
3313.831966	2685.500000
3314.912861	2758.500000
3315.992143	2739.500000
3317.071274	2753.500000
3318.151717	2725.000000
3319.229085	2829.000000
3320.307765	2778.500000
3321.384833	2758.500000
3322.461751	2834.000000
3323.537059	2679.500000
3324.612217	2832.000000
3325.688686	2734.000000
3326.762084	2690.500000
3327.835334	2665.000000
3328.909895	2738.000000
3329.982846	2649.000000
3331.054190	2793.000000
3332.126844	2740.500000
3333.196431	2668.500000
3334.267329	2598.000000
3335.336620	2554.500000
3336.407222	2681.000000
3337.476217	2731.500000
3338.543606	2616.500000
3339.609390	2703.000000
3340.679400	2646.500000
3341.746347	2634.000000
3342.810232	2651.000000
3343.876885	2692.500000
3344.941934	2654.000000
3346.005379	2602.500000
3347.068677	2622.500000
3348.131830	2589.000000
3349.194836	2632.500000
3350.257695	2616.500000
3351.318953	2567.500000
3352.377154	2636.500000
3353.439576	2599.000000
3354.498941	2557.500000
3355.558162	2657.000000
3356.618691	2587.000000
3357.674711	2634.500000
3358.733496	2604.500000
3359.787773	2630.000000
3360.844814	2636.000000
3361.900256	2667.500000
3362.957007	2672.500000
3364.012161	2639.500000
3365.065717	2663.000000
3366.117676	2620.500000
3367.172397	2638.500000
3368.224070	2562.500000
3369.275598	2659.000000
3370.328436	2603.500000
3371.378226	2627.500000
3372.429325	2629.500000
3373.477377	2551.500000
3374.528190	2610.000000
3375.575957	2640.500000
3376.623582	2641.000000
3377.671065	2531.500000
3378.716954	2544.000000
3379.764153	2621.500000
3380.808308	2603.500000
3381.855222	2576.000000
3382.900544	2643.500000
3383.942826	2667.000000
3384.984966	2631.500000
3386.028415	2575.000000
3387.071722	2558.000000
3388.113439	2503.000000
3389.155015	2540.500000
3390.196451	2589.500000
3391.236298	2514.000000
3392.274556	2479.000000
3393.314122	2600.500000
3394.353548	2615.500000
3395.391386	2539.000000
3396.427637	2571.500000
3397.463748	2512.000000
3398.501167	2535.500000
3399.535553	2562.000000
3400.571247	2546.000000
3401.606801	2544.000000
3402.639323	2515.000000
3403.674599	2458.500000
3404.706844	2642.500000
3405.738951	2557.500000
3406.769475	2502.000000
3407.801305	2471.000000
3408.832997	2534.000000
3409.861661	2555.500000
3410.890188	2542.000000
3411.920021	2509.000000
3412.949717	2438.000000
3413.976386	2564.500000
3415.004363	2497.000000
3416.029315	2542.500000
3417.057018	2515.000000
3418.081696	2414.500000
3419.107681	2531.500000
3420.132087	2507.000000
3421.156355	2441.000000
3422.179046	2510.000000
3423.201600	2413.500000
3424.225459	2558.000000
3425.246300	2567.500000
3426.267004	2397.000000
3427.289014	2492.000000
3428.308006	2408.000000
3429.326863	2506.000000
3430.347026	2428.000000
3431.364171	2437.000000
