-117.892442	109.500000
-115.222841	124.000000
-112.556176	101.000000
-109.890264	115.200000
-107.227283	100.100000
-104.562872	119.500000
-101.901392	111.800000
-99.238483	124.400000
-96.580681	111.800000
-93.921448	117.100000
-91.262964	108.400000
-88.607405	102.200000
-85.950417	120.400000
-83.298526	114.100000
-80.645206	115.500000
-77.994806	136.800000
-75.342976	112.300000
-72.696237	122.400000
-70.048068	100.400000
-67.400643	105.400000
-64.756131	93.400000
-62.110190	124.500000
-59.469332	129.100000
-56.827043	121.500000
-54.187664	110.000000
-51.546856	144.300000
-48.906787	141.400000
-46.271792	117.900000
-43.635367	119.100000
-41.001846	128.300000
-38.366895	122.000000
-35.737011	127.500000
-33.103533	104.500000
-30.475118	130.400000
-27.847437	123.600000
-25.218328	125.500000
-22.594275	134.200000
-19.966632	113.200000
-17.344044	133.900000
-14.722186	134.900000
-12.101059	116.300000
-9.480663	132.300000
-6.863154	141.700000
-4.244217	177.300000
-1.628166	213.600000
0.987157	211.900000
3.601753	163.400000
6.213467	149.000000
8.826608	139.000000
11.434716	155.100000
14.046406	131.900000
16.653065	151.100000
19.261152	136.600000
21.868515	136.000000
24.470853	169.100000
27.076769	145.200000
29.677664	159.000000
32.279986	166.600000
34.877290	160.700000
37.478170	164.200000
40.074036	170.300000
42.671329	169.700000
45.267903	162.800000
47.859468	160.400000
50.452461	161.500000
53.042593	192.600000
55.634153	179.000000
58.222853	178.800000
60.812981	170.200000
63.398109	179.000000
65.984665	192.200000
68.570506	202.500000
71.153494	182.800000
73.737909	210.500000
76.315194	197.400000
78.896046	207.900000
81.474049	203.500000
84.051342	232.400000
86.630061	220.900000
89.203799	256.100000
91.778963	223.000000
94.351284	256.800000
96.922898	237.000000
99.491671	276.000000
102.061871	284.100000
104.629232	310.500000
107.198020	332.300000
109.763970	380.000000
112.327086	439.900000
114.893759	557.900000
117.451209	696.100000
120.014345	926.800000
122.572522	1276.100000
125.134253	1818.900000
127.691027	2760.100000
130.249227	4097.900000
132.802475	6119.000000
135.355024	9032.300000
137.911125	12891.100000
140.462277	17432.000000
143.012731	22054.500000
145.562489	26003.600000
148.109427	29043.700000
150.655669	30948.300000
153.203338	32073.600000
155.750310	32931.800000
158.292346	32921.800000
160.833689	33135.500000
163.374340	33333.400000
165.916415	33360.500000
168.455680	33701.900000
170.992135	33623.800000
173.527900	33723.600000
176.065090	33776.300000
178.601588	33702.900000
181.135282	33753.400000
183.666171	33797.600000
186.196372	33820.600000
188.727998	33805.200000
191.256824	34020.400000
193.782850	33999.700000
196.308190	33984.600000
198.834955	34134.300000
201.358924	34085.300000
203.882207	34017.600000
206.404806	34221.000000
208.924612	34292.500000
211.443735	34053.100000
213.962175	34017.400000
216.482040	34172.900000
218.994902	34140.900000
221.511296	34360.900000
224.027009	34479.500000
226.537831	34453.600000
229.050078	34530.600000
231.559542	34537.200000
234.068328	34811.000000
236.576436	34913.000000
239.085968	34903.200000
241.590619	35125.300000
244.094594	35054.700000
246.599993	35249.600000
249.100517	35345.200000
251.604564	35594.400000
254.101641	35465.000000
256.602240	35562.200000
259.100068	35632.100000
261.597223	35541.100000
264.093706	35703.300000
266.585325	35667.500000
269.080463	35674.500000
271.572836	35693.000000
274.064538	35881.500000
276.553477	35918.100000
279.043839	35518.700000
281.531440	35520.300000
284.016281	35581.600000
286.504636	35426.700000
288.986053	35463.900000
291.470983	35548.600000
293.951067	35508.700000
296.434664	35490.700000
298.913419	35615.600000
301.393596	35630.200000
303.871022	35654.000000
306.347784	35470.100000
308.823882	35421.900000
311.297232	35368.400000
313.769921	35329.800000
316.241948	35406.300000
318.713313	35586.000000
321.181935	35543.000000
323.649897	35942.300000
326.119282	35673.300000
328.583844	35793.700000
331.051909	35841.000000
333.515155	35896.800000
335.977744	36177.800000
338.439675	35842.800000
340.900950	36111.200000
343.359491	36107.100000
345.819454	36017.400000
348.276685	35974.300000
350.733261	36031.800000
353.189182	36047.100000
355.642375	35969.300000
358.096990	35960.000000
360.546803	35882.700000
363.000112	36004.800000
365.448622	35817.800000
367.896482	35971.000000
370.345763	35971.200000
372.790251	36011.900000
375.236161	35861.400000
377.681422	35908.700000
380.123964	35922.500000
382.565858	35806.800000
385.007104	35877.900000
387.445635	36043.600000
389.885588	35889.100000
392.322827	35951.700000
394.757354	35808.600000
397.195369	36032.800000
399.628607	35893.800000
402.063267	35733.000000
404.493154	35981.100000
406.926526	35938.200000
409.355127	36154.600000
411.783088	35826.500000
414.212469	36132.600000
416.637086	36455.400000
419.063123	36363.400000
421.488521	36237.000000
423.913278	36434.000000
426.333276	36454.800000
428.754696	36792.200000
431.173419	36846.800000
433.593563	36829.600000
436.011012	37060.500000
438.429881	37026.400000
440.846057	37176.600000
443.257486	37417.300000
445.672391	37365.700000
448.084606	37230.000000
450.496187	37587.600000
452.907134	37503.100000
455.315395	37500.900000
457.723024	37385.500000
460.130020	37560.500000
462.536384	37577.400000
464.940067	37397.500000
467.343119	37401.800000
469.745541	37501.300000
472.147333	37503.900000
474.546447	37558.700000
476.946981	37509.000000
479.346886	37423.300000
481.742068	37397.200000
484.140717	37400.900000
486.534646	37321.000000
488.927949	37047.400000
491.320626	37062.400000
493.712678	37303.900000
496.106149	37024.400000
498.494907	37098.800000
500.880999	37056.600000
503.268511	36844.800000
505.655399	37064.000000
508.039624	36975.200000
510.425268	37072.100000
512.808249	36980.100000
515.188570	37013.700000
517.570310	37457.700000
519.949391	37310.100000
522.329891	37403.400000
524.707733	37337.800000
527.082920	37409.000000
529.457489	37275.900000
531.833477	37384.700000
534.206811	37296.700000
536.581564	37228.800000
538.951630	37275.100000
541.321081	37507.300000
543.691951	37448.100000
546.058139	37180.200000
548.425746	37677.800000
550.790707	37345.300000
553.155055	37506.100000
555.518791	37454.100000
557.883944	37500.000000
560.244425	37691.500000
562.606323	37976.900000
564.965582	37566.800000
567.322202	37711.500000
569.682268	37776.300000
572.035642	37680.400000
574.392461	37802.200000
576.746645	37695.500000
579.100220	37638.400000
581.453187	37702.500000
583.803523	37494.800000
586.155275	37762.500000
588.500351	37512.000000
590.850891	37421.800000
593.194758	37623.100000
595.544086	37459.700000
597.888765	37553.000000
600.230820	37517.500000
602.574292	37342.500000
604.915141	37213.900000
607.255387	37210.200000
609.593013	37531.700000
611.934074	37240.500000
614.270498	37398.600000
616.608338	37234.500000
618.943560	36992.400000
621.276167	37134.300000
623.610191	37215.200000
625.941600	37262.200000
628.272411	37144.200000
630.602624	37163.500000
632.932240	37091.900000
635.257232	37158.200000
637.587666	37355.700000
639.913478	37271.800000
642.236684	37548.200000
644.561306	37298.700000
646.883322	37391.300000
649.204744	37394.500000
651.523563	37512.400000
653.843798	37274.700000
656.163440	37445.100000
658.480481	37503.200000
660.796931	37631.800000
663.110782	37424.300000
665.426048	37512.600000
667.738718	37752.300000
670.052803	37338.300000
672.362289	37741.200000
674.673189	37817.100000
676.981497	37441.700000
679.289217	37719.500000
681.598352	37647.000000
683.902894	37801.300000
686.206850	37357.700000
688.510219	37468.000000
690.815003	37537.800000
693.115201	37188.200000
695.416814	37444.900000
697.717841	37269.900000
700.014287	37226.200000
702.312147	37356.900000
704.609425	37127.300000
706.906118	37272.600000
709.198236	37094.100000
711.493765	37058.500000
713.784721	37399.500000
716.077091	37258.200000
718.366885	37307.000000
720.656100	37378.000000
722.944735	37376.500000
725.230797	37542.000000
727.518273	37629.900000
729.803179	37431.700000
732.087506	37612.000000
734.369266	37773.600000
736.652439	37482.100000
738.935035	37649.400000
741.213075	37676.600000
743.492529	37698.700000
745.771408	37789.200000
748.049711	37871.300000
750.323465	37922.700000
752.598633	37733.200000
754.873227	38087.500000
757.145262	37806.800000
759.418710	38144.700000
761.689600	37894.400000
763.957934	37861.200000
766.227681	38053.700000
768.494873	37836.200000
770.761495	37862.900000
773.027548	38052.800000
775.291049	37730.600000
777.555962	37819.400000
779.820307	37856.200000
782.080121	37869.500000
784.341349	37738.500000
786.602009	37810.900000
788.860122	37938.800000
791.115691	37959.500000
793.374651	38239.800000
795.627112	38069.900000
797.884940	38049.900000
800.138249	37847.500000
802.389017	37790.200000
804.641198	37685.300000
806.890841	37948.700000
809.141895	37853.800000
811.388438	37579.700000
813.636394	37672.900000
815.881814	37919.400000
818.128647	37672.900000
820.374917	37731.100000
822.616684	37741.800000
824.861833	37936.800000
827.100510	37966.800000
829.342570	37932.200000
831.580131	37928.800000
833.819103	38162.500000
836.055550	37981.400000
838.293407	37987.100000
840.528739	37834.100000
842.761547	38110.100000
844.995767	38171.400000
847.227465	38164.600000
849.458608	38122.000000
851.689196	38134.500000
853.919230	38332.500000
856.148709	38002.800000
858.373708	38234.500000
860.602080	38273.400000
862.825974	38161.900000
865.051278	38375.800000
867.272107	38367.500000
869.496309	38315.800000
871.716037	38204.500000
873.937175	38251.300000
876.157763	38477.400000
878.375842	38503.400000
880.595330	38555.700000
882.810352	38399.700000
885.024826	38461.700000
887.238753	38563.700000
889.452132	38258.100000
891.664965	38266.300000
893.877250	38112.400000
896.087034	38246.100000
898.296272	38183.600000
900.504964	38196.100000
902.711158	38144.800000
904.918761	38220.000000
907.123867	37923.100000
909.328429	38195.300000
911.530496	38305.000000
913.733972	38217.900000
915.934954	38357.000000
918.135394	38253.300000
920.337243	38418.200000
922.532701	38500.600000
924.731517	38409.500000
926.925896	38469.500000
929.123632	38303.900000
931.316932	38630.900000
933.511640	38580.600000
935.703863	38502.200000
937.895548	38712.700000
940.086695	38728.600000
942.275359	38905.600000
944.463486	39227.200000
946.649133	38817.000000
948.838133	39164.700000
951.022708	39205.600000
953.206749	39305.200000
955.394140	39221.100000
957.573228	39548.100000
959.755665	39587.100000
961.937569	39403.000000
964.116999	39826.800000
966.293956	39759.700000
968.472321	39847.400000
970.652092	39942.000000
972.825515	39878.900000
975.002285	39961.300000
977.174647	39984.000000
979.348417	39976.600000
981.517783	39983.200000
983.690493	40155.900000
985.860737	40217.500000
988.030453	40081.800000
990.199640	40006.500000
992.364430	40140.900000
994.532562	40299.300000
996.696298	39991.100000
998.861442	40160.100000
1001.024126	40276.200000
1003.186285	40250.700000
1005.345986	40577.100000
1007.505164	40115.000000
1009.665748	40187.100000
1011.823877	40069.800000
1013.981482	40345.600000
1016.138564	40060.900000
1018.295123	39861.400000
1020.447302	40046.700000
1022.600888	39732.300000
1024.753951	39855.900000
1026.904567	39751.100000
1029.056588	39804.200000
1031.204236	39905.900000
1033.355216	40046.600000
1035.501826	39981.000000
1037.647916	39944.900000
1039.793488	39937.800000
1041.940464	39873.200000
1044.081153	39896.600000
1046.225170	39678.100000
1048.366748	39984.500000
1050.507808	39998.500000
1052.650273	39902.400000
1054.786459	39943.900000
1056.925971	40044.400000
1059.061127	39879.400000
1061.199608	39898.200000
1063.333736	39657.900000
1065.467350	39808.400000
1067.602368	39701.400000
1069.733037	39962.400000
1071.865112	39833.200000
1073.994756	39741.800000
1076.123889	39775.600000
1078.252511	39683.800000
1080.380621	39766.200000
1082.506305	39745.400000
1084.631479	39957.700000
1086.758056	40004.000000
1088.880297	39824.900000
1091.003942	40131.900000
1093.123252	40110.600000
1095.247791	39889.900000
1097.366086	39841.600000
1099.485784	40071.900000
1101.603064	40151.900000
1103.719838	39893.700000
1105.836105	40089.100000
1107.949957	40197.500000
1110.065212	39956.400000
1112.176145	40092.000000
1114.290389	40005.100000
1116.400314	40223.100000
1118.511641	40028.700000
1120.622465	39933.000000
1122.728972	40000.300000
1124.838788	40132.200000
1126.944290	40183.100000
1129.051196	39970.800000
1131.151885	39817.400000
1133.257787	40047.800000
1135.359380	39971.800000
1137.462376	40107.000000
1139.564871	39675.900000
1141.661160	39694.000000
1143.762655	39615.000000
1145.859848	39785.100000
1147.956542	39615.700000
1150.052739	39897.300000
1152.148437	39761.100000
1154.243638	39769.200000
1156.336442	39652.000000
1158.430648	39851.700000
1160.518663	39801.900000
1162.611876	39951.500000
1164.698901	39986.800000
1166.789226	39682.900000
1168.875262	39867.500000
1170.964596	39872.100000
1173.047749	39903.800000
1175.132305	40072.700000
1177.218261	39593.300000
1179.299936	39831.700000
1181.383013	39852.300000
1183.463704	40031.400000
1185.543904	40099.600000
1187.623612	40148.800000
1189.702829	40278.100000
1191.779663	40157.200000
1193.854117	40253.400000
1195.931863	40283.700000
1198.005338	40082.500000
1200.080215	40532.900000
1202.150824	40474.800000
1204.222834	40673.600000
1206.292468	40726.600000
1208.363503	40570.100000
1210.434050	41031.600000
1212.500336	41000.400000
1214.568023	40981.300000
1216.633338	41106.500000
1218.700053	41154.200000
1220.762512	41241.600000
1222.828257	41088.300000
1224.889747	41477.900000
1226.952637	41374.700000
1229.013160	41326.700000
1231.073200	41016.000000
1233.132756	41136.500000
1235.189948	41471.000000
1237.246657	41705.000000
1239.301004	41459.700000
1241.358631	41393.400000
1243.413896	41478.800000
1245.464920	41611.300000
1247.517345	41588.000000
1249.569289	41851.900000
1251.618875	41766.200000
1253.667982	41745.900000
1255.716610	41771.700000
1257.764760	41795.000000
1259.812432	41903.700000
1261.855873	41809.700000
1263.902589	41424.100000
1265.946953	41687.100000
1267.990839	41556.100000
1270.032375	41795.500000
1272.071561	41776.600000
1274.114019	41669.600000
1276.152256	41982.000000
1278.191890	41936.200000
1280.231050	41917.200000
1282.265992	42158.200000
1284.302332	42054.700000
1286.336327	42412.600000
1288.371721	42360.100000
1290.402901	42263.400000
1292.435480	42534.700000
1294.467586	42942.100000
1296.497352	42906.600000
1298.528516	43183.300000
1300.555472	43271.700000
1302.583826	43103.000000
1304.607976	43410.700000
1306.635391	43338.800000
1308.658603	43317.800000
1310.683213	43544.400000
1312.705488	43558.300000
1314.729161	43328.000000
1316.750501	43156.400000
1318.771374	43420.900000
1320.791779	43231.200000
1322.807990	43437.400000
1324.825600	43012.300000
1326.840881	42929.400000
1328.859421	43095.000000
1330.873771	42951.800000
1332.885796	43029.200000
1334.901079	43028.700000
1336.912176	42891.400000
1338.924669	42609.400000
1340.932980	42999.300000
1342.944547	42684.200000
1344.950075	42623.500000
1346.958857	42566.800000
1348.963463	42620.700000
1350.971322	42629.900000
1352.978719	42699.500000
1354.980084	42329.900000
1356.982847	42453.600000
1358.985150	42575.000000
1360.986992	42321.900000
1362.988376	42476.000000
1364.987445	42628.700000
1366.986056	42363.800000
1368.984209	42433.100000
1370.981904	42400.000000
1372.975435	42260.300000
1374.970363	42344.300000
1376.964834	42259.900000
1378.958848	42469.500000
1380.950555	42405.300000
1382.941806	42463.200000
1384.930752	42298.900000
1386.921093	42328.400000
1388.910979	42159.600000
1390.898562	42618.300000
1392.885691	42244.800000
1394.870518	42537.000000
1396.856740	42472.600000
1398.840661	42417.600000
1400.824130	42737.200000
1402.807147	42623.900000
1404.787866	42616.500000
1406.769979	42456.200000
1408.749795	42543.400000
1410.729161	42434.100000
1412.704388	42780.400000
1414.682853	42627.700000
1416.659025	42700.600000
1418.634747	42928.000000
1420.610020	42809.000000
1422.583002	43019.000000
1424.555537	43288.500000
1426.527623	42844.300000
1428.499261	43105.300000
1430.466772	43143.700000
1432.439356	43294.900000
1434.404134	43355.600000
1436.373985	43329.300000
1438.339711	43205.000000
1440.306831	43453.600000
1442.271667	43147.400000
1444.232383	43149.700000
1446.198167	43091.500000
1448.157996	43002.000000
1450.119218	43078.400000
1452.081833	42990.000000
1454.040333	42954.400000
1455.998391	43027.500000
1457.956006	43179.100000
1459.913180	42707.600000
1461.868078	42976.000000
1463.824368	43103.200000
1465.778384	42869.600000
1467.731960	42819.400000
1469.683263	42903.300000
1471.635958	42929.200000
1473.586382	42579.600000
1475.536367	42712.300000
1477.485912	43035.500000
1479.433189	42830.300000
1481.378199	42729.300000
1483.324601	42809.700000
1485.270565	42988.900000
1487.216091	42979.200000
1489.159353	42823.300000
1491.102178	43108.700000
1493.042740	42963.300000
1494.984693	42906.800000
1496.924385	43181.000000
1498.863641	42945.200000
1500.802463	43089.700000
1502.739025	43034.300000
1504.676977	43173.300000
1506.612672	43281.600000
1508.547933	43164.600000
1510.480937	42874.100000
1512.413509	43258.100000
1514.345649	43411.300000
1516.277357	43157.600000
1518.206812	43208.700000
1520.137656	43405.100000
1522.068070	43441.000000
1523.994411	43321.600000
1525.922142	43502.500000
1527.847623	43276.800000
1529.772675	43205.800000
1531.697298	43337.800000
1533.621492	43335.100000
1535.543439	43285.700000
1537.466775	43152.600000
1539.387866	43337.700000
1541.306712	43413.200000
1543.226948	43486.700000
1545.144940	43210.800000
1547.062506	43257.700000
1548.977830	43526.200000
1550.894544	43324.700000
1552.807203	42907.500000
1554.723066	42875.100000
1556.636690	42977.000000
1558.548075	43053.900000
1560.460849	42711.500000
1562.369574	42796.600000
1564.279689	43041.100000
1566.189380	42646.100000
1568.098647	42959.500000
1570.005681	42708.400000
1571.910482	42701.300000
1573.816672	42795.100000
1575.720630	42705.400000
1577.624168	42529.700000
1579.527284	42459.700000
1581.428172	42915.800000
1583.330448	42587.800000
1585.230495	42671.300000
1587.131931	42558.600000
1589.029332	42319.700000
1590.926316	42507.200000
1592.822881	42188.300000
1594.720833	42502.100000
1596.612951	42432.700000
1598.508263	42193.200000
1600.403156	42309.800000
1602.295828	42272.900000
1604.188084	42296.600000
1606.078120	42133.900000
1607.967740	42343.200000
1609.856945	42281.000000
1611.745734	42521.500000
1613.632307	42337.500000
1615.520267	42342.000000
1617.404210	42320.900000
1619.289540	42473.800000
1621.174457	42577.900000
1623.057160	42363.200000
1624.941249	42268.000000
1626.821328	42348.000000
1628.702793	42611.500000
1630.582048	42356.700000
1632.462689	42335.600000
1634.337526	42428.100000
1636.217345	42485.100000
1638.093158	42468.300000
1639.968562	42241.000000
1641.845351	42376.500000
1643.716343	42370.300000
1645.590517	42424.200000
1647.460693	42137.200000
1649.334049	42308.900000
1651.205202	42132.900000
1653.074153	42229.200000
1654.944490	42325.400000
1656.810833	41976.400000
1658.678563	42008.900000
1660.544093	42098.700000
1662.411008	41875.800000
1664.273935	41810.300000
1666.138247	41606.700000
1668.000364	41858.300000
1669.862075	41432.600000
1671.725171	41605.300000
1673.586073	41649.500000
1675.444781	41591.600000
1677.303086	41318.900000
1679.162776	41586.100000
1681.016699	41222.400000
1682.873794	41424.400000
1684.730487	41452.300000
1686.583204	41072.600000
1688.439092	41098.200000
1690.291006	41183.400000
1692.142519	40937.000000
1693.993631	40636.000000
1695.844342	40613.400000
1697.694653	40634.700000
1699.542780	40526.400000
1701.392290	40311.100000
1703.236052	40041.100000
1705.084764	40213.200000
1706.927729	40039.900000
1708.773860	40235.300000
1710.616030	39972.000000
1712.461364	40015.200000
1714.300958	39924.900000
1716.141936	39874.000000
1717.984297	40002.700000
1719.822702	39579.000000
1721.662490	39519.500000
1723.500103	39490.100000
1725.337320	39390.700000
1727.172364	39450.200000
1729.008791	39370.900000
1730.843046	39260.500000
1732.676907	38916.700000
1734.510373	39132.000000
1736.339893	38864.700000
1738.172572	38841.300000
1740.001307	38932.900000
1741.833200	38710.100000
1743.661150	38866.100000
1745.488708	38401.400000
1747.315875	38201.100000
1749.142650	38518.000000
1750.969033	38372.500000
1752.791480	38572.500000
1754.617081	38265.900000
1756.438748	38274.200000
1758.261797	38158.000000
1760.082685	37946.300000
1761.903183	38151.400000
1763.725063	38064.600000
1765.541243	37865.800000
1767.360575	37991.500000
1769.175980	37861.900000
1770.994536	37640.200000
1772.809166	37912.400000
1774.623409	37794.100000
1776.437266	37421.300000
1778.250736	37787.400000
1780.062052	37654.400000
1781.874750	37759.800000
1783.687061	37762.300000
1785.495455	37490.500000
1787.305230	37716.700000
1789.111089	37415.700000
1790.920095	37621.000000
1792.725187	37482.600000
1794.531659	37544.200000
1796.337748	37613.500000
1798.139927	37498.000000
1799.945249	37582.400000
1801.746663	37559.500000
1803.549457	37595.600000
1805.348346	37489.400000
1807.148614	37575.500000
1808.948502	37305.800000
1810.746247	37423.600000
1812.543612	37351.000000
1814.340596	37190.400000
1816.137200	37252.800000
1817.931665	37214.000000
1819.727510	36977.200000
1821.517699	37066.500000
1823.312785	37031.000000
1825.102218	37089.300000
1826.894789	37068.200000
1828.685224	36959.200000
1830.473524	36943.800000
1832.264960	37028.300000
1834.050751	36854.200000
1835.837920	36958.100000
1837.622958	36938.900000
1839.411130	36910.200000
1841.195416	36598.500000
1842.977573	36761.200000
1844.761108	36653.300000
1846.542516	36535.000000
1848.325301	36666.300000
1850.104207	36670.400000
1851.884491	36480.800000
1853.662650	36583.000000
1855.442186	36363.500000
1857.219598	36558.400000
1858.994886	36461.700000
1860.771553	36518.300000
1862.546097	36335.700000
1864.322018	36469.900000
1866.092320	36475.200000
1867.865749	36344.200000
1869.637058	36478.800000
1871.407996	36402.300000
1873.180311	36404.100000
1874.947014	36514.900000
1876.716841	36225.500000
1878.482805	36274.600000
1880.251893	36315.700000
1882.017119	36227.500000
1883.781977	36059.000000
1885.548211	36163.500000
1887.310587	36211.000000
1889.072596	35785.300000
1890.834238	35900.100000
1892.595512	35873.500000
1894.356420	36016.200000
1896.116960	35708.000000
1897.875391	35836.400000
1899.633457	35579.600000
1901.389415	35707.400000
1903.146749	35590.000000
1904.903717	35639.000000
1906.658580	35522.700000
1908.411337	35424.800000
1910.163731	35471.100000
1911.917501	35339.000000
1913.669167	35353.500000
1915.418730	35320.300000
1917.169670	34952.100000
1918.920246	35289.300000
1920.666984	35272.200000
1922.415097	35322.500000
1924.161111	35221.200000
1925.908501	35388.800000
1927.653792	35278.100000
1929.396986	35056.900000
1931.141556	35250.100000
1932.884029	34980.400000
1934.626142	35101.100000
1936.367896	35016.200000
1938.109289	35023.600000
1939.848589	35042.700000
1941.587530	35016.000000
1943.326112	35164.300000
1945.062602	35155.500000
1946.798735	35114.100000
1948.536242	35072.700000
1950.269928	35127.000000
1952.004988	35051.500000
1953.737959	35231.700000
1955.470574	35002.500000
1957.202832	35158.700000
1958.934734	35333.500000
1960.664550	35340.900000
1962.392282	35231.300000
1964.121388	35481.700000
1965.850138	35164.000000
1967.576805	35157.600000
1969.303118	35225.700000
1971.030804	35302.400000
1972.752954	35285.000000
1974.478206	35008.200000
1976.199650	35298.800000
1977.924194	35208.100000
1979.646659	35226.000000
1981.365320	35316.200000
1983.087080	35318.600000
1984.805038	35133.600000
1986.524370	35025.800000
1988.239901	35140.800000
1989.960254	35336.800000
1991.676807	35304.500000
1993.389565	35258.700000
1995.105418	35300.100000
1996.819199	34974.800000
1998.532629	35193.900000
2000.243989	35179.200000
2001.956722	35373.300000
2003.665663	35136.900000
2005.377698	35407.800000
2007.084223	35222.800000
2008.793841	35259.500000
2010.501391	35357.000000
2012.208594	35345.400000
2013.913731	35199.000000
2015.618521	35310.400000
2017.324683	35070.800000
2019.027063	35281.500000
2020.730815	35411.300000
2022.432504	35023.300000
2024.133847	35362.600000
2025.834845	35181.100000
2027.533783	35287.000000
2029.234092	35172.400000
2030.930625	35052.100000
2032.628530	35195.600000
2034.324377	35279.700000
2036.023309	35424.500000
2037.716755	35129.300000
2039.411572	35243.600000
2041.106046	35250.400000
2042.796752	35209.100000
2044.490542	35324.900000
2046.180565	35229.100000
2047.871959	35002.600000
2049.561300	35352.100000
2051.252011	34860.700000
2052.938960	34831.900000
2054.625568	34843.600000
2056.313547	34701.200000
2057.997766	34381.100000
2059.683355	34540.800000
2061.368605	34814.500000
2063.051807	34347.500000
2064.736379	34442.500000
2066.415487	34248.100000
2068.099381	34326.200000
2069.777815	34108.300000
2071.459326	34040.900000
2073.137085	34227.300000
2074.814508	34303.700000
2076.493300	34163.400000
2078.170049	34079.900000
2079.844757	34253.700000
2081.520834	34169.100000
2083.194871	34025.200000
2084.868572	34143.900000
2086.541938	34136.500000
2088.213266	33874.000000
2089.884259	33945.600000
2091.554918	33890.300000
2093.225243	33722.200000
2094.895233	33917.200000
2096.563188	33597.900000
2098.230810	33834.500000
2099.896398	33647.100000
2101.563354	33904.100000
2103.228277	33806.700000
2104.892867	33913.500000
2106.555426	33905.100000
2108.219354	34271.800000
2109.881250	33949.200000
2111.542815	34160.200000
2113.204050	33863.800000
2114.863255	34095.000000
2116.522131	34057.500000
2118.180676	33959.700000
2119.838892	34031.000000
2121.493385	33959.200000
2123.150942	33803.700000
2124.808169	33888.000000
2126.461676	33781.200000
2128.116550	33663.000000
2129.767705	33997.300000
2131.421923	33771.400000
2133.072423	33527.500000
2134.724291	33737.700000
2136.370750	33472.200000
2138.021963	33384.600000
2139.669464	33695.900000
2141.318331	33780.800000
2142.965179	33513.100000
2144.611702	33550.300000
2146.257899	33655.800000
2147.900387	33432.900000
2149.545934	33363.900000
2151.187774	33451.800000
2152.832671	33322.800000
2154.473863	33164.300000
2156.114731	32987.500000
2157.755276	32953.500000
2159.393808	32891.700000
2161.033706	32840.000000
2162.669904	32655.700000
2164.307468	32747.500000
2165.944710	32590.800000
2167.579942	32485.400000
2169.214852	32454.400000
2170.849441	32540.800000
2172.483709	32419.100000
2174.114283	32362.700000
2175.747908	32189.900000
2177.377842	32304.800000
2179.009142	32182.800000
2180.638436	32317.800000
2182.267410	32367.900000
2183.896066	32207.800000
2185.524402	32203.100000
2187.150735	31961.200000
2188.776750	31976.800000
2190.400764	32057.400000
2192.026143	32048.200000
2193.649521	31756.100000
2195.274264	31853.300000
2196.895325	31554.700000
2198.516071	31670.700000
2200.138180	31459.800000
2201.758292	31595.900000
2203.376408	31568.700000
2204.994208	31490.400000
2206.611692	31255.200000
2208.228861	31522.400000
2209.845715	31556.900000
2211.462254	31346.600000
2213.076799	31541.900000
2214.689353	31437.200000
2216.303270	31595.100000
2217.915195	31388.600000
2219.528485	31251.000000
2221.139783	31345.200000
2222.749093	31006.300000
2224.359765	31037.300000
2225.968449	30988.500000
2227.576821	30854.900000
2229.183205	30835.700000
2230.790953	30833.400000
2232.396714	30736.100000
2234.002164	30937.300000
2235.605630	30815.700000
2237.210458	31016.700000
2238.813302	30737.400000
2240.414163	30897.500000
2242.016387	30850.300000
2243.616629	30888.600000
2245.218233	30778.300000
2246.816184	30819.500000
2248.415498	30774.300000
2250.012832	30722.400000
2251.609858	30447.300000
2253.208245	30498.800000
2254.802984	30585.200000
2256.395747	30661.200000
2257.989871	30434.900000
2259.585358	30475.000000
2261.177199	30248.100000
2262.768734	30308.500000
2264.361630	30119.000000
2265.949217	30196.800000
2267.541501	30082.400000
2269.128477	30067.300000
2270.718482	30124.300000
2272.303182	30017.300000
2273.892576	30032.900000
2275.476667	29787.700000
2277.062120	29819.400000
2278.645604	29825.700000
2280.232113	29563.600000
2281.814989	29394.300000
2283.397561	29259.900000
2284.979831	29334.800000
2286.558470	29522.200000
2288.140133	29125.600000
2289.718169	29181.400000
2291.299227	29086.600000
2292.876658	29033.850000
2294.452126	28981.100000
2296.030616	28803.500000
2297.605481	28916.900000
2299.180046	28678.000000
2300.754311	28727.800000
2302.328275	28617.700000
2303.901939	28593.000000
2305.475302	28290.900000
2307.045047	28264.400000
2308.614493	28341.200000
2310.186958	28289.500000
2311.754148	28413.500000
2313.324355	28231.300000
2314.890948	28290.500000
2316.458901	28233.800000
2318.024899	28355.200000
2319.590599	28121.900000
2321.156001	28403.100000
2322.719450	28067.600000
2324.284258	28254.000000
2325.845457	28294.900000
2327.409671	28115.500000
2328.968624	28144.600000
2330.530590	28466.700000
2332.090606	28224.500000
2333.650326	28248.900000
2335.208097	28131.600000
2336.765574	28240.800000
2338.322755	28209.700000
2339.877990	28229.900000
2341.432930	28156.600000
2342.987577	28196.800000
2344.541930	28098.700000
2346.095989	28136.100000
2347.649755	28083.600000
2349.201576	27998.200000
2350.751454	27931.400000
2352.304340	27943.700000
2353.851984	27987.100000
2355.402635	27848.500000
2356.949696	27749.700000
2358.498114	27614.100000
2360.046240	27598.700000
2361.590779	27657.700000
2363.136675	27514.500000
2364.680632	27643.600000
2366.225947	27400.700000
2367.767677	27449.900000
2369.310765	27520.400000
2370.851916	27337.100000
2372.392778	27341.100000
2373.933351	27319.500000
2375.473635	27151.100000
2377.013630	27372.100000
2378.550046	27115.700000
2380.089464	27129.900000
2381.625305	27125.100000
2383.162502	26853.900000
2384.696125	26928.200000
2386.232747	26954.100000
2387.767438	26877.000000
2389.300200	26934.700000
2390.832676	26910.900000
2392.363223	26875.400000
2393.896768	26997.500000
2395.425102	27059.200000
2396.954792	26930.700000
2398.484197	26848.100000
2400.013317	26670.900000
2401.542151	26771.600000
2403.065781	26803.500000
2404.594046	26790.600000
2406.117108	26707.700000
2407.644805	26716.700000
2409.165661	26602.900000
2410.691151	26703.800000
2412.213081	26734.700000
2413.736365	26643.200000
2415.257729	26731.300000
2416.777173	26663.000000
2418.297972	26706.600000
2419.816852	26661.800000
2421.335450	26421.800000
2422.852131	26355.900000
2424.370167	26541.100000
2425.887921	26533.400000
2427.402123	26332.900000
2428.916045	26316.300000
2430.429688	26489.800000
2431.944684	26278.800000
2433.456132	26223.000000
2434.968935	26285.300000
2436.479825	26307.900000
2437.990435	25996.500000
2439.499134	26075.400000
2441.010820	25939.600000
2442.518962	26052.800000
2444.026825	25934.100000
2445.534411	25762.100000
2447.038457	25874.500000
2448.545487	25702.800000
2450.050609	25735.100000
2451.555454	25669.100000
2453.058392	25451.700000
2454.561053	25447.300000
2456.063438	25306.700000
2457.563918	25305.600000
2459.065751	24929.000000
2460.565680	25073.500000
2462.065333	24883.200000
2463.564711	24746.900000
2465.062186	24931.500000
2466.557759	24980.000000
2468.056312	24980.100000
2469.551337	24791.600000
2471.047714	24735.300000
2472.540565	24864.600000
2474.034768	24725.700000
2475.528698	24723.400000
2477.019105	24647.300000
2478.512489	24668.800000
2480.003975	24580.500000
2481.493564	24645.800000
2482.982881	24677.400000
2484.470302	24591.300000
2485.960699	24609.500000
2487.447577	24685.500000
2488.935807	24631.800000
2490.420521	24660.400000
2491.904964	24622.700000
2493.390759	24691.300000
2494.874661	24631.400000
2496.359915	24714.200000
2497.840035	24726.400000
2499.323127	24766.100000
2500.804329	24782.600000
2502.285262	24789.400000
2503.764306	24751.900000
2505.243082	24758.000000
2506.721589	24622.700000
2508.199827	24650.000000
2509.677798	24846.300000
2511.152263	24692.600000
2512.629697	24581.300000
2514.103628	24702.400000
2515.578910	24758.800000
2517.053924	24704.700000
2518.525437	24687.900000
2519.998301	24725.800000
2521.469282	24628.900000
2522.941613	24673.400000
2524.408830	24755.800000
2525.879014	24461.200000
2527.347316	24521.000000
2528.815354	24641.400000
2530.283127	24462.900000
2531.750635	24267.200000
2533.217878	24348.800000
2534.681630	24451.300000
2536.146731	24330.800000
2537.609955	24351.900000
2539.074528	24311.700000
2540.535613	24407.600000
2541.998047	24311.900000
2543.460218	24382.600000
2544.918902	24282.700000
2546.382159	24311.800000
2547.840319	24448.800000
2549.299828	24265.700000
2550.754244	24121.500000
2552.213230	24122.300000
2553.670343	24065.800000
2555.125586	24137.400000
2556.580568	23984.600000
2558.033680	24077.600000
2559.488141	23935.600000
2560.940733	23913.500000
2562.393065	23792.900000
2563.843529	23819.700000
2565.296949	23958.400000
2566.745287	23664.300000
2568.196581	24088.400000
2569.646008	23816.200000
2571.091964	23925.200000
2572.540874	23804.100000
2573.986313	23728.600000
2575.433101	23855.000000
2576.878025	23599.700000
2578.322692	23899.600000
2579.768706	23642.200000
2581.211253	23786.700000
2582.655148	23593.700000
2584.095578	23598.400000
2585.537356	23489.700000
2586.977274	23552.400000
2588.418539	23571.700000
2589.856342	23639.500000
2591.297095	23564.000000
2592.732785	23424.400000
2594.171425	23711.700000
2595.608208	23620.200000
2597.043134	23634.100000
2598.481009	23299.100000
2599.913826	23749.700000
2601.347990	23421.900000
2602.780299	23541.700000
2604.213956	23416.400000
2605.645758	23258.600000
2607.077308	23370.900000
2608.508604	23265.200000
2609.938049	23486.100000
2611.367241	23243.200000
2612.794582	23299.300000
2614.223270	23238.700000
2615.651705	23125.100000
2617.076694	23064.000000
2618.503028	23112.200000
2619.927514	23132.100000
2621.353346	22952.700000
2622.775734	23190.400000
2624.199468	23036.800000
2625.621356	22991.800000
2627.042993	23075.500000
2628.462785	22802.900000
2629.883923	22868.300000
2631.304811	22673.900000
2632.722261	22829.100000
2634.142650	22821.000000
2635.559602	22702.800000
2636.976306	22831.300000
2638.392761	22784.300000
2639.808968	22999.000000
2641.224926	22675.600000
2642.639044	22678.700000
2644.052915	22749.200000
2645.464946	22478.400000
2646.878322	22603.000000
2648.288268	22577.300000
2649.701150	22537.600000
2651.110603	22535.600000
2652.519810	22804.600000
2653.927181	22529.600000
2655.337486	22518.000000
2656.745955	22443.700000
2658.152589	22599.800000
2659.558978	22439.500000
2660.963533	22528.000000
2662.369432	22548.800000
2663.773498	22394.500000
2665.177320	22574.900000
2666.580897	22278.000000
2667.982642	22593.400000
2669.385731	22571.800000
2670.785403	22504.200000
2672.186418	22304.000000
2673.584016	22387.000000
2674.984545	22312.500000
2676.381659	22306.600000
2677.780116	22162.600000
2679.176745	22248.700000
2680.573133	22151.300000
2681.969278	22255.000000
2683.363597	22026.200000
2684.759259	22072.600000
2686.151511	21924.500000
2687.545107	21877.900000
2688.936878	21930.500000
2690.329991	21813.100000
2691.721281	21610.400000
2693.110748	21775.200000
2694.499976	21451.900000
2695.888963	21466.300000
2697.279293	21599.300000
2698.664638	21531.700000
2700.052908	21449.200000
2701.439357	21184.400000
2702.825567	21257.700000
2704.211538	21230.800000
2705.594111	21310.400000
2706.978025	21197.800000
2708.361702	21183.300000
2709.745141	21283.600000
2711.125184	21005.600000
2712.506569	21143.400000
2713.886138	21214.600000
2715.267049	21091.500000
2716.646145	21208.800000
2718.023426	21044.500000
2719.402049	21052.000000
2720.778859	21196.400000
2722.155433	21171.400000
2723.531771	21186.100000
2724.906297	21211.900000
2726.282164	21182.900000
2727.654644	21090.600000
2729.030041	21079.000000
2730.400476	21008.200000
2731.772253	20979.900000
2733.143796	21055.900000
2734.513530	21004.400000
2735.884604	21017.900000
2737.253871	20907.500000
2738.622904	20892.600000
2739.990130	20869.000000
2741.357124	21089.700000
2742.723885	20862.500000
2744.090413	20761.300000
2745.455137	20949.900000
2746.819628	20928.700000
2748.183887	20712.900000
2749.547915	20938.600000
2750.911710	20904.600000
2752.272132	20811.000000
2753.635465	20666.700000
2754.993855	20719.800000
2756.355155	20677.300000
2757.713084	20724.200000
2759.073923	20491.700000
2760.432961	20435.800000
2761.788631	20666.100000
2763.147210	20418.800000
2764.502421	20390.000000
2765.857403	20212.900000
2767.210588	20289.600000
2768.566680	20386.900000
2769.919408	20276.100000
2771.271907	20265.300000
2772.624179	20201.900000
2773.977788	20156.800000
2775.328036	19988.800000
2776.676491	20212.100000
2778.027850	19966.600000
2779.375850	19907.800000
2780.725189	20020.500000
2782.072735	19945.400000
2783.420054	20023.100000
2784.767147	19922.700000
2786.112449	19854.300000
2787.457525	19768.800000
2788.802375	19793.300000
2790.146999	19721.000000
2791.488270	19724.700000
2792.830880	19704.400000
2794.173265	19680.800000
2795.515424	19772.300000
2796.854234	19639.400000
2798.195944	19744.800000
2799.534305	19734.200000
2800.874004	19752.800000
2802.211917	19632.200000
2803.548046	19621.200000
2804.883952	19721.300000
2806.221194	19447.700000
2807.556653	19569.200000
2808.891889	19670.900000
2810.225343	19576.400000
2811.560133	19624.100000
2812.891582	19563.700000
2814.225927	19477.700000
2815.555374	19464.500000
2816.886158	19773.000000
2818.216720	19497.000000
2819.545503	19331.200000
2820.875623	19531.100000
2822.203963	19575.200000
2823.532083	19598.600000
2824.858426	19332.300000
2826.186104	19314.400000
2827.510450	19429.300000
2828.836132	19274.100000
2830.160038	19250.300000
2831.483724	19172.600000
2832.808746	19199.300000
2834.130439	19139.300000
2835.451912	19137.000000
2836.773167	19089.200000
2838.094203	19174.500000
2839.413467	19106.500000
2840.734066	19212.800000
2842.052893	18991.000000
2843.371502	18943.800000
2844.688341	18948.000000
2846.004962	18965.800000
2847.321365	18925.700000
2848.636000	18806.800000
2849.951969	18907.500000
2851.264618	18826.700000
2852.578603	18824.400000
2853.892371	18887.300000
2855.205922	18736.000000
2856.517706	18679.800000
2857.827725	18791.200000
2859.139078	18815.000000
2860.447115	18716.500000
2861.756488	18770.500000
2863.065645	18838.200000
2864.374587	18532.900000
2865.681766	18849.100000
2866.987181	18809.900000
2868.293931	18801.500000
2869.598918	18817.700000
2870.903692	18782.700000
2872.206704	18674.200000
2873.512598	18758.000000
2874.813637	18706.100000
2876.116009	18682.700000
2877.416622	18670.700000
2878.718569	18688.900000
2880.020303	18595.300000
2881.318733	18792.000000
2882.618496	18623.100000
2883.916502	18622.100000
2885.214296	18604.700000
2886.510333	18565.300000
2887.807704	18628.900000
2889.103319	18510.900000
2890.398724	18557.800000
2891.693917	18574.400000
2892.985812	18457.100000
2894.280584	18449.400000
2895.572060	18450.600000
2896.864868	18346.600000
2898.157466	18402.700000
2899.446769	18322.800000
2900.737405	18152.200000
2902.026291	18193.300000
2903.316508	18156.900000
2904.603434	18184.300000
2905.891692	18285.200000
2907.178201	18100.400000
2908.464501	18087.100000
2909.750593	17942.900000
2911.034937	17905.500000
2912.322153	17958.800000
2913.604542	18078.400000
2914.888263	17877.600000
2916.170237	17818.100000
2917.452005	17970.200000
2918.732027	17854.000000
2920.014919	17878.500000
2921.296066	17771.700000
2922.573931	17882.200000
2923.854665	17748.100000
2925.132118	17707.300000
2926.409366	17786.000000
2927.684871	17614.800000
2928.963244	17668.100000
2930.236802	17480.400000
2931.513228	17588.200000
2932.787913	17608.900000
2934.060858	17464.400000
2935.335133	17518.900000
2936.607669	17474.500000
2937.880001	17335.300000
2939.149060	17423.000000
2940.420984	17374.300000
2941.691170	17342.800000
2942.961152	17289.500000
2944.230931	17179.200000
2945.498973	17233.400000
2946.765280	17038.900000
2948.031384	17141.200000
2949.298819	17180.800000
2950.564518	17075.000000
2951.830015	17147.900000
2953.095310	16989.400000
2954.357341	16900.700000
2955.620701	17013.100000
2956.883860	16944.700000
2958.145286	17086.400000
2959.408042	16770.700000
2960.669067	17020.000000
2961.928361	16787.300000
2963.187454	16886.900000
2964.446347	16969.300000
2965.705040	16863.500000
2966.963533	16731.200000
2968.220297	16908.200000
2969.476862	16726.000000
2970.731698	16757.700000
2971.987864	16909.800000
2973.240774	16953.800000
2974.495014	16931.900000
2975.749055	16981.200000
2977.001370	16866.700000
2978.253487	16846.300000
2979.503879	16799.800000
2980.757126	16909.200000
2982.005596	16772.400000
2983.256920	16845.000000
2984.504996	16847.200000
2985.752874	16825.900000
2987.000555	16623.500000
2988.248040	16649.300000
2989.493803	16617.600000
2990.739369	16612.400000
2991.986264	16682.400000
2993.229913	16607.400000
2994.474891	16595.600000
2995.716626	16568.500000
2996.961212	16619.200000
2998.204079	16485.700000
2999.443704	16593.900000
3000.686181	16546.000000
3001.925417	16485.900000
3003.165981	16441.800000
3004.404828	16571.200000
3005.643481	16401.600000
3006.880418	16430.500000
3008.118682	16413.900000
3009.355232	16564.400000
3010.591588	16259.200000
3011.827750	16378.300000
3013.062198	16452.100000
3014.296453	16370.200000
3015.530515	16467.900000
3016.762865	16339.400000
3017.993503	16314.900000
3019.226987	16225.000000
3020.458760	16234.000000
3021.688821	16401.700000
3022.918691	16261.700000
3024.146851	16190.300000
3025.376338	16259.900000
3026.604115	16326.700000
3027.831701	16153.400000
3029.060613	16233.900000
3030.284783	16106.900000
3031.511796	16128.100000
3032.735586	16002.700000
3033.960701	16144.400000
3035.184110	16049.100000
3036.407330	15918.900000
3037.628844	16110.100000
3038.853199	15841.700000
3040.072819	15991.300000
3041.293765	15934.700000
3042.514521	15921.600000
3043.733574	15917.800000
3044.953953	15933.300000
3046.171115	15874.200000
3047.389602	15739.600000
3048.606388	15819.100000
3049.822985	15937.700000
3051.039395	15792.800000
3052.252591	15891.800000
3053.468625	15921.700000
3054.681447	15703.500000
3055.897106	15801.500000
3057.108042	15785.400000
3058.320304	15647.800000
3059.532378	15704.800000
3060.744266	15571.600000
3061.954456	15741.000000
3063.164461	15581.500000
3064.374279	15615.300000
3065.582401	15734.300000
3066.790337	15556.800000
3067.996579	15636.500000
3069.204145	15591.700000
3070.410016	15640.950000
3071.615702	15690.200000
3072.821204	15667.900000
3074.025012	15626.200000
3075.230144	15482.700000
3076.433583	15847.700000
3077.635330	15628.700000
3078.836894	15560.500000
3080.038274	15652.100000
3081.239470	15639.500000
3082.438976	15579.200000
3083.638298	15606.500000
3084.838944	15518.400000
3086.037901	15564.900000
3087.233662	15473.700000
3088.432253	15415.400000
3089.627650	15474.600000
3090.824371	15367.300000
3092.017899	15357.400000
3093.214255	15440.700000
3094.408924	15380.100000
3095.600403	15222.000000
3096.796213	15391.500000
3097.987330	15351.700000
3099.179770	15260.700000
3100.369021	15192.400000
3101.561099	15163.600000
3102.751493	15170.400000
3103.938700	15434.200000
3105.127231	15231.000000
3106.317084	15243.500000
3107.503752	15170.200000
3108.690241	15079.400000
3109.876550	15152.000000
3111.064182	15059.000000
3112.248631	15144.100000
3113.431400	15019.500000
3114.616993	15072.000000
3115.800905	14965.000000
3116.983139	15144.400000
3118.165195	15065.500000
3119.347072	15007.900000
3120.528771	15074.900000
3121.708793	15038.000000
3122.887137	14991.300000
3124.068303	14996.800000
3125.246293	14939.400000
3126.424106	14906.300000
3127.601742	14913.200000
3128.777703	14988.300000
3129.953488	14882.500000
3131.130593	14788.800000
3132.306025	14798.200000
3133.479783	14659.600000
3134.651868	14824.100000
3135.825274	14707.500000
3136.998505	14832.900000
3138.170064	14709.500000
3139.342943	14860.600000
3140.512655	14822.000000
3141.683688	14714.800000
3142.853050	14930.300000
3144.020743	14633.200000
3145.191251	14692.100000
3146.357100	14642.000000
3147.527259	14569.900000
3148.692760	14637.300000
3149.858088	14635.300000
3151.023242	14497.900000
3152.188223	14604.800000
3153.354523	14509.900000
3154.516170	14414.100000
3155.679138	14237.100000
3156.841932	14367.000000
3158.004554	14212.400000
3159.165511	13983.500000
3160.326295	14130.800000
3161.486908	14099.300000
3162.645856	13841.800000
3163.804632	13875.000000
3164.963237	13873.400000
3166.121670	13731.700000
3167.279931	13963.000000
3168.436530	13843.100000
3169.591468	13738.700000
3170.747726	13754.500000
3171.902322	13751.600000
3173.056747	13761.300000
3174.209513	13628.500000
3175.362109	13563.300000
3176.514535	13649.700000
3177.666790	13664.700000
3178.818876	13596.700000
3179.967815	13525.200000
3181.119561	13701.000000
3182.269650	13584.300000
3183.418081	13672.600000
3184.566344	13574.400000
3185.714438	13761.300000
3186.862363	13704.300000
3188.008632	13729.000000
3189.154733	13851.000000
3190.299180	13782.400000
3191.443458	13817.100000
3192.587569	13924.900000
3193.732998	13741.300000
3194.875288	13792.900000
3196.017410	13729.100000
3197.159366	13798.600000
3198.301154	13638.400000
3199.442775	13677.500000
3200.581260	13651.700000
3201.721064	13614.100000
3202.862184	13620.200000
3204.000170	13612.100000
3205.136507	13672.100000
3206.272678	13619.200000
3207.410167	13570.400000
3208.546007	13438.500000
3209.683164	13558.200000
3210.815708	13381.700000
3211.952533	13587.300000
3213.084747	13419.700000
3214.218279	13427.700000
3215.351645	13210.600000
3216.481884	13283.700000
3217.614922	13165.400000
3218.744832	13023.300000
3219.876060	12959.100000
3221.004162	12961.200000
3222.135062	12972.000000
3223.264317	13044.300000
3224.391928	12941.500000
3225.516418	12863.300000
3226.645183	12932.600000
3227.770826	12733.500000
3228.896306	12804.700000
3230.020145	12853.000000
3231.146779	12736.500000
3232.268814	12836.300000
3233.392166	12636.100000
3234.515356	12800.600000
3235.638384	12653.000000
3236.759772	12608.000000
3237.880999	12628.000000
3239.000587	12551.400000
3240.120014	12464.600000
3241.237804	12599.800000
3242.358385	12512.400000
3243.475853	12619.500000
3244.593160	12656.900000
3245.710306	12650.600000
3246.825817	12680.400000
3247.942643	12763.200000
3249.056358	12739.200000
3250.172864	12779.900000
3251.287734	12721.800000
3252.399496	12836.400000
3253.511099	12645.100000
3254.624017	12753.000000
3255.736775	12681.900000
3256.846427	12635.200000
3257.957394	12581.400000
3259.068202	12437.100000
3260.177378	12536.000000
3261.284923	12660.700000
3262.393783	12516.300000
3263.502484	12559.400000
3264.608083	12547.100000
3265.714997	12602.800000
3266.820281	12509.100000
3267.926879	12581.700000
3269.030377	12484.000000
3270.135189	12477.200000
3271.239844	12401.600000
3272.341401	12509.900000
3273.442801	12475.900000
3274.545515	12506.300000
3275.648072	12423.300000
3276.747534	12537.600000
3277.849778	12451.100000
3278.948928	12383.200000
3280.046452	12298.800000
3281.143821	12399.700000
3282.243973	12349.300000
3283.341031	12301.200000
3284.437935	12244.700000
3285.534683	12330.100000
3286.626872	12272.100000
3287.723311	12147.400000
3288.818127	12224.100000
3289.912788	12399.900000
3291.005828	12093.800000
3292.098714	12239.400000
3293.189979	12106.300000
3294.282557	12102.100000
3295.373515	12146.400000
3296.462853	12107.900000
3297.552038	12055.000000
3298.642535	11990.300000
3299.729948	12087.700000
3300.817209	12029.500000
3301.905782	11919.500000
3302.994202	12008.100000
3304.078075	11947.700000
3305.166190	12046.800000
3306.251224	12075.200000
3307.334642	11983.200000
3308.419372	11831.500000
3309.502486	12050.200000
3310.586912	12003.800000
3311.668260	11873.500000
3312.750920	12035.100000
3313.831966	11919.400000
3314.912861	11933.100000
3315.992143	11817.300000
3317.071274	11905.700000
3318.151717	11792.300000
3319.229085	11790.700000
3320.307765	11863.600000
3321.384833	11828.000000
3322.461751	11864.700000
3323.537059	11647.900000
3324.612217	11820.900000
3325.688686	11778.300000
3326.762084	11795.600000
3327.835334	11734.500000
3328.909895	11741.900000
3329.982846	11638.400000
3331.054190	11725.300000
3332.126844	11670.800000
3333.196431	11566.200000
3334.267329	11564.100000
3335.336620	11563.800000
3336.407222	11547.600000
3337.476217	11524.400000
3338.543606	11483.300000
3339.609390	11410.000000
3340.679400	11367.800000
3341.746347	11412.600000
3342.810232	11340.100000
3343.876885	11317.500000
3344.941934	11217.000000
3346.005379	11351.200000
3347.068677	11374.000000
3348.131830	11257.300000
3349.194836	11302.100000
3350.257695	11193.300000
3351.318953	11186.700000
3352.377154	11179.200000
3353.439576	11236.500000
3354.498941	11047.000000
3355.558162	11219.400000
3356.618691	11117.800000
3357.674711	11189.300000
3358.733496	11275.400000
3359.787773	11273.900000
3360.844814	11151.700000
3361.900256	11225.600000
3362.957007	11278.800000
3364.012161	11164.700000
3365.065717	11298.500000
3366.117676	11185.800000
3367.172397	11298.700000
3368.224070	11088.500000
3369.275598	11111.500000
3370.328436	11198.200000
3371.378226	11164.700000
3372.429325	11170.400000
3373.477377	11102.900000
3374.528190	11127.300000
3375.575957	11128.700000
3376.623582	11165.100000
3377.671065	11115.900000
3378.716954	11049.300000
3379.764153	11015.500000
3380.808308	11091.600000
3381.855222	11020.400000
3382.900544	11016.400000
3383.942826	11033.200000
3384.984966	11082.500000
3386.028415	11051.100000
3387.071722	10921.500000
3388.113439	10878.500000
3389.155015	10969.100000
3390.196451	10928.400000
3391.236298	10865.300000
3392.274556	10882.100000
3393.314122	10908.400000
3394.353548	10849.800000
3395.391386	10931.000000
3396.427637	10878.100000
3397.463748	10754.100000
3398.501167	10913.700000
3399.535553	10779.900000
3400.571247	10784.000000
3401.606801	10796.100000
3402.639323	10731.400000
3403.674599	10801.600000
3404.706844	10606.700000
3405.738951	10779.600000
3406.769475	10824.400000
3407.801305	10837.800000
3408.832997	10758.700000
3409.861661	10710.000000
3410.890188	10765.600000
3411.920021	10687.300000
3412.949717	10693.300000
3413.976386	10696.500000
3415.004363	10754.400000
3416.029315	10646.500000
3417.057018	10694.500000
3418.081696	10718.400000
3419.107681	10796.300000
3420.132087	10724.200000
3421.156355	10637.300000
3422.179046	10693.500000
3423.201600	10601.300000
3424.225459	10580.700000
3425.246300	10685.500000
3426.267004	10520.500000
3427.289014	10548.800000
3428.308006	10425.500000
3429.326863	10512.200000
3430.347026	10534.600000
3431.364171	10524.500000
