-118.277064	-3.302198
-115.607463	4.438462
-112.940798	8.440160
-110.274885	9.531568
-107.611905	8.541359
-104.947494	6.298202
-102.286014	3.630769
-99.623105	5.753147
-96.965303	6.425175
-94.306070	3.902098
-91.647586	5.177622
-88.992027	4.315385
-86.335039	5.852448
-83.683148	3.304895
-81.029828	4.286014
-78.379427	4.522378
-75.727598	3.812587
-73.080859	4.469231
-70.432690	7.517483
-67.785265	10.900699
-65.140753	11.740559
-62.494812	15.797203
-59.853954	13.360839
-57.211665	10.117483
-54.572286	10.957343
-51.931478	9.251049
-49.291409	9.492308
-46.656414	8.308392
-44.019989	6.428671
-41.386468	5.431469
-38.751517	6.862238
-36.121633	8.309790
-33.488155	12.660839
-30.859740	16.542657
-28.232059	10.795105
-25.602950	3.158741
-22.978897	-38.092308
-20.351254	-194.855245
-17.728666	-490.264336
-15.106808	-329.020280
-12.485681	744.220280
-9.865285	2256.158741
-7.247776	3461.963636
-4.628839	4278.295804
-2.012788	4693.138462
0.602536	4712.531469
3.217131	4333.537762
5.828845	3566.650350
8.441986	2439.025175
11.050095	1061.189510
13.661784	-207.613986
16.268443	-681.135664
18.876530	-375.241958
21.483893	-26.372727
24.086231	7.949650
26.692147	11.903497
29.293042	8.422378
31.895364	8.572727
34.492668	5.545455
37.093548	3.016084
39.689414	3.305594
42.286707	3.068531
44.883281	0.048951
47.474846	1.394406
50.067839	3.024476
52.657972	5.347552
55.249531	6.725175
57.838231	13.106993
60.428359	12.107692
63.013487	13.686014
65.600043	15.476923
68.185884	17.769930
70.768872	18.219580
73.353287	12.816084
75.930572	7.712587
78.511424	6.412587
81.089427	2.390210
83.666720	0.978322
86.245440	2.919580
88.819177	5.625175
91.394341	3.060140
93.966662	4.935664
96.538276	6.055944
99.107049	8.533566
101.677249	9.772727
104.244610	7.443357
106.813398	8.051049
109.379349	7.285315
111.942464	7.651049
114.509137	10.375524
117.066587	14.824476
119.629723	23.055245
122.187900	36.274825
124.749631	57.488112
127.306405	88.470629
129.864605	138.444755
132.417853	206.665734
134.970402	283.165734
137.526503	368.162937
140.077655	456.754545
142.628110	543.733566
145.177867	618.451049
147.724805	677.919580
150.271048	721.580420
152.818716	743.251748
155.365688	748.009790
157.907724	745.021678
160.449068	742.476224
162.989718	740.483916
165.531793	733.167832
168.071058	729.002098
170.607513	726.350350
173.143278	724.445455
175.680468	722.565734
178.216967	720.279720
180.750660	717.006993
183.281549	714.029371
185.811750	712.139860
188.343376	712.930070
190.872202	713.308392
193.398228	713.004895
195.923568	713.246154
198.450333	715.307692
200.974302	713.948951
203.497585	710.482517
206.020184	708.995804
208.539990	706.733566
211.059113	707.267133
213.577553	709.572727
216.097418	710.572028
218.610280	708.134266
221.126674	707.204196
223.642387	711.763636
226.153209	715.665734
228.665456	717.764336
231.174920	719.739161
233.683706	725.403497
236.191814	727.874126
238.701346	730.911189
241.205997	733.753147
243.709972	738.788811
246.215371	743.002797
248.715895	744.172727
251.219942	750.989510
253.717019	755.751748
256.217618	752.813287
258.715446	754.883916
261.212601	758.066434
263.709084	764.588811
266.200703	763.279021
268.695841	763.369930
271.188214	760.988811
273.679916	764.422378
276.168855	764.976224
278.659217	767.216783
281.146818	771.748951
283.631659	774.781119
286.120014	775.920280
288.601431	785.508392
291.086361	790.988811
293.566445	794.251748
296.050042	798.284615
298.528797	796.748252
301.008974	797.909091
303.486400	801.632168
305.963162	810.800000
308.439260	839.020280
310.912610	885.269231
313.385299	936.642657
315.857326	985.934965
318.328691	1022.362937
320.797313	1043.632168
323.265275	1041.328671
325.734660	1026.887413
328.199222	995.473427
330.667287	955.244755
333.130533	908.855944
335.593122	872.120280
338.055053	856.115385
340.516328	851.757343
342.974869	856.365035
345.434832	861.573427
347.892063	864.331469
350.348639	869.887413
352.804560	867.674126
355.257753	867.358741
357.712368	868.610490
360.162181	869.880420
362.615490	867.298601
365.064000	866.626573
367.511860	866.449650
369.961141	866.065035
372.405629	868.039161
374.851539	866.808392
377.296800	864.582517
379.739342	866.704196
382.181236	862.320979
384.622482	859.334965
387.061013	855.652448
389.500966	854.606993
391.938205	852.171329
394.372732	849.373427
396.810747	852.043357
399.243985	854.541259
401.678645	855.421678
404.108532	859.211189
406.541904	861.295105
408.970506	864.819580
411.398466	865.345455
413.827847	867.074126
416.252464	865.018182
418.678501	871.900699
421.103899	872.345455
423.528656	876.546154
425.948654	882.206993
428.370074	883.815385
430.788797	882.762238
433.208941	886.303497
435.626390	887.392308
438.045259	884.639860
440.461435	884.366434
442.872864	881.391608
445.287769	878.841958
447.699984	881.188811
450.111565	874.047552
452.522513	873.616783
454.930773	867.418881
457.338402	861.702797
459.745398	848.506294
462.151762	847.037762
464.555445	842.675524
466.958497	835.094406
469.360919	830.695105
471.762711	828.354545
474.161825	827.546853
476.562359	828.155245
478.962264	827.969231
481.357447	830.565734
483.756095	829.239860
486.150024	825.362937
488.543327	815.586713
490.936004	805.854545
493.328056	787.966434
495.721527	767.092308
498.110285	742.969930
500.496377	719.333566
502.883889	692.774825
505.270777	666.585315
507.655002	643.958741
510.040646	622.511888
512.423627	600.963636
514.803948	583.716084
517.185688	570.038462
519.564770	555.320280
521.945269	542.359441
524.323111	534.146853
526.698298	523.530769
529.072867	517.693007
531.448855	509.270629
533.822189	502.706294
536.196942	497.375524
538.567008	491.602797
540.936459	488.460140
543.307329	487.879720
545.673517	487.813287
548.041124	485.661538
550.406085	484.680420
552.770434	485.020979
555.134169	478.626573
557.499322	474.790909
559.859803	467.268531
562.221701	460.697203
564.580960	454.960140
566.937580	450.756643
569.297646	449.017483
571.651020	446.263636
574.007839	442.581818
576.362023	440.853147
578.715598	439.259441
581.068565	435.646154
583.418901	430.185315
585.770654	429.408392
588.115729	425.885315
590.466269	425.833566
592.810136	426.439161
595.159464	428.254545
597.504143	431.804895
599.846198	434.986713
602.189670	437.207692
604.530519	438.949650
606.870765	437.376224
609.208391	431.360140
611.549452	427.813986
613.885876	424.289510
616.223716	418.700699
618.558938	412.785315
620.891545	405.604196
623.225569	401.344755
625.556978	399.188811
627.887789	400.127273
630.218002	401.899301
632.547618	402.234266
634.872610	401.306993
637.203044	401.054545
639.528856	402.141259
641.852062	400.900699
644.176684	397.345455
646.498700	390.667832
648.820122	384.667832
651.138941	380.320280
653.459176	376.432867
655.778818	374.510490
658.095859	374.406294
660.412309	371.534965
662.726160	373.475524
665.041426	373.506993
667.354096	375.734965
669.668181	374.833566
671.977667	372.034965
674.288567	367.875524
676.596875	364.234266
678.904595	361.681818
681.213730	357.178322
683.518272	353.285315
685.822228	350.228671
688.125597	344.274825
690.430381	343.876224
692.730579	342.155245
695.032192	343.703497
697.333219	343.489510
699.629665	342.876224
701.927525	341.711189
704.224803	339.574825
706.521496	340.839161
708.813614	339.848252
711.109143	337.529371
713.400099	338.784615
715.692469	336.876224
717.982263	339.000000
720.271478	342.595105
722.560113	343.704196
724.846175	345.127273
727.133651	344.002098
729.418557	346.967832
731.702884	348.228671
733.984644	352.834965
736.267817	351.974825
738.550413	355.604895
740.828453	358.821678
743.107907	358.851748
745.386786	357.989510
747.665090	357.669930
749.938843	355.986713
752.214011	353.516084
754.488605	350.840559
756.760640	352.257343
759.034088	349.426573
761.304978	352.527273
763.573312	355.514685
765.843059	360.806294
768.110251	363.074825
770.376873	368.061538
772.642926	371.253147
774.906427	377.417483
777.171340	382.468531
779.435685	385.011189
781.695499	387.592308
783.956727	390.997203
786.217387	387.527273
788.475500	390.056643
790.731070	387.529371
792.990029	386.171329
795.242490	383.458741
797.500318	381.448951
799.753627	379.162937
802.004395	376.981818
804.256576	374.685315
806.506219	375.209790
808.757273	374.941259
811.003816	374.353147
813.251772	368.121678
815.497192	366.240559
817.744025	358.353147
819.990295	357.708392
822.232062	351.554545
824.477211	346.607692
826.715888	344.644755
828.957948	342.362937
831.195509	340.367832
833.434481	341.120979
835.670928	338.893706
837.908785	338.830070
840.144117	333.789510
842.376925	331.983217
844.611145	327.680420
846.842843	326.984615
849.073986	320.892308
851.304574	317.823077
853.534608	319.219580
855.764087	318.939860
857.989086	315.641958
860.217458	317.114685
862.441352	317.490909
864.666656	320.390909
866.887485	321.420979
869.111687	327.693706
871.331415	330.202098
873.552553	329.263636
875.773141	328.155944
877.991220	336.101399
880.210708	339.178322
882.425730	338.397203
884.640204	337.273427
886.854131	338.237762
889.067510	334.015385
891.280343	334.378322
893.492628	335.935664
895.702412	337.439161
897.911650	336.145455
900.120342	334.709790
902.326536	332.714685
904.534139	335.900000
906.739245	334.132168
908.943807	332.776923
911.145874	335.525874
913.349350	338.279720
915.550332	337.441958
917.750772	338.424476
919.952621	342.830769
922.148079	342.331469
924.346895	340.318182
926.541274	340.751748
928.739010	335.892308
930.932310	333.574825
933.127018	334.062937
935.319241	335.309091
937.510926	334.337063
939.702073	341.200699
941.890737	342.685315
944.078864	346.900000
946.264511	351.530769
948.453511	356.816783
950.638086	357.869930
952.822127	365.297902
955.009518	368.176224
957.188606	366.594406
959.371044	371.403497
961.552947	374.565035
963.732377	374.862238
965.909334	384.202797
968.087699	394.316084
970.267470	410.596503
972.440893	420.186014
974.617663	426.876923
976.790025	431.772028
978.963795	439.351049
981.133161	439.332168
983.305871	437.582517
985.476115	435.809790
987.645831	430.222378
989.815018	427.986014
991.979808	433.537063
994.147940	442.495105
996.311676	457.161538
998.476820	471.983916
1000.639504	477.861538
1002.801663	494.893706
1004.961364	502.653846
1007.120542	502.788112
1009.281126	510.042657
1011.439255	501.481818
1013.596860	498.029371
1015.753942	494.959441
1017.910501	494.739161
1020.062680	492.409790
1022.216266	492.602098
1024.369330	509.080420
1026.519945	514.603497
1028.671966	524.347552
1030.819615	530.633566
1032.970594	533.220979
1035.117204	536.727273
1037.263294	531.613287
1039.408866	534.733566
1041.555842	538.086713
1043.696531	542.660140
1045.840548	545.851049
1047.982126	552.890210
1050.123186	569.498601
1052.265651	577.186713
1054.401837	583.320979
1056.541349	585.609790
1058.676505	583.174825
1060.814986	569.507692
1062.949114	563.972727
1065.082728	560.516783
1067.217746	557.359441
1069.348415	554.362238
1071.480490	550.285315
1073.610134	548.309091
1075.739267	546.643357
1077.867889	545.314685
1079.995999	543.638462
1082.121683	533.430769
1084.246857	522.340559
1086.373434	507.988811
1088.495675	502.344056
1090.619320	491.827972
1092.738630	478.398601
1094.863169	478.018182
1096.981464	475.592308
1099.101162	468.781119
1101.218442	469.953846
1103.335216	471.036364
1105.451483	478.072028
1107.565335	477.026573
1109.680590	473.505594
1111.791523	473.648951
1113.905768	467.772028
1116.015692	456.723077
1118.127019	451.613287
1120.237843	453.111189
1122.344350	442.970629
1124.454166	429.913986
1126.559668	425.132168
1128.666574	423.789510
1130.767264	419.009091
1132.873165	413.924476
1134.974758	405.979021
1137.077754	405.062937
1139.180249	405.516084
1141.276538	403.102797
1143.378033	406.030070
1145.475226	409.767832
1147.571920	409.483916
1149.668117	416.770629
1151.763815	419.784615
1153.859016	424.789510
1155.951820	420.554545
1158.046026	418.531469
1160.134041	416.890909
1162.227254	418.496503
1164.314279	417.174126
1166.404604	415.804196
1168.490640	408.951049
1170.579974	407.943357
1172.663127	402.216783
1174.747683	403.497902
1176.833639	394.632168
1178.915315	394.030769
1180.998391	387.515385
1183.079082	384.664336
1185.159282	387.861538
1187.238990	388.276923
1189.318207	391.909790
1191.395041	401.196503
1193.469495	401.364336
1195.547241	405.577622
1197.620716	407.393007
1199.695593	410.931469
1201.766202	408.483217
1203.838212	410.161538
1205.907846	404.972727
1207.978881	404.374825
1210.049428	405.318182
1212.115715	400.027273
1214.183401	397.518881
1216.248716	400.637063
1218.315431	397.078322
1220.377890	395.926573
1222.443635	397.884615
1224.505125	400.990909
1226.568015	399.200699
1228.628538	394.505594
1230.688578	388.839161
1232.748134	390.332867
1234.805326	387.062238
1236.862035	382.993007
1238.916382	384.479021
1240.974009	389.560839
1243.029274	385.213287
1245.080298	384.488112
1247.132723	389.835664
1249.184667	393.425175
1251.234253	390.196503
1253.283360	390.728671
1255.331988	388.945455
1257.380138	390.469231
1259.427810	393.366434
1261.471251	401.995105
1263.517967	405.217483
1265.562331	405.481119
1267.606217	399.016783
1269.647753	401.099301
1271.686939	407.081119
1273.729397	405.951748
1275.767634	406.125175
1277.807268	406.669930
1279.846428	408.289510
1281.881370	407.427273
1283.917710	416.719580
1285.951705	425.029371
1287.987099	423.832867
1290.018279	426.304895
1292.050858	430.827273
1294.082964	441.489510
1296.112730	447.992308
1298.143894	458.581818
1300.170850	469.660140
1302.199204	479.817483
1304.223354	492.048951
1306.250769	498.734266
1308.273981	515.479720
1310.298591	528.472028
1312.320866	535.362937
1314.344539	545.282517
1316.365879	555.310490
1318.386752	570.805594
1320.407157	581.789510
1322.423369	600.886014
1324.440978	614.244056
1326.456259	629.498601
1328.474799	640.797902
1330.489149	654.603497
1332.501174	667.213986
1334.516457	682.180420
1336.527554	688.009091
1338.540047	693.339860
1340.548358	695.066434
1342.559925	694.918881
1344.565453	681.302098
1346.574235	676.568531
1348.578841	666.383217
1350.586700	654.080420
1352.594097	635.872028
1354.595462	621.562238
1356.598225	603.188112
1358.600528	592.407692
1360.602370	574.916783
1362.603754	555.675524
1364.602823	541.578322
1366.601434	524.384615
1368.599587	507.848252
1370.597282	504.206294
1372.590813	495.337063
1374.585741	486.315385
1376.580212	477.639860
1378.574226	472.836364
1380.565933	463.037762
1382.557184	457.151748
1384.546130	448.737762
1386.536471	441.974825
1388.526357	439.998601
1390.513940	431.090210
1392.501069	426.383217
1394.485896	422.507692
1396.472118	415.553846
1398.456039	408.939161
1400.439508	406.247552
1402.422525	406.073427
1404.403244	406.041259
1406.385357	409.822378
1408.365173	413.606993
1410.344539	417.685315
1412.319766	416.639860
1414.298231	411.004895
1416.274403	410.220979
1418.250125	405.645455
1420.225398	401.699301
1422.198381	397.576923
1424.170915	397.011888
1426.143001	399.197902
1428.114639	399.995105
1430.082150	405.038462
1432.054734	404.725175
1434.019512	400.045455
1435.989363	394.883916
1437.955089	390.541958
1439.922209	384.943357
1441.887045	378.826573
1443.847761	376.490909
1445.813545	375.020979
1447.773374	378.913287
1449.734596	381.681818
1451.697211	383.265035
1453.655711	390.876923
1455.613769	390.444056
1457.571384	391.413986
1459.528558	392.634965
1461.483456	392.646853
1463.439746	384.663636
1465.393762	379.286713
1467.347338	377.881119
1469.298641	377.082517
1471.251336	380.300699
1473.201760	380.677622
1475.151745	379.874126
1477.101291	383.571329
1479.048567	381.537762
1480.993577	381.326573
1482.939979	383.479720
1484.885943	382.223077
1486.831470	381.154545
1488.774731	383.619580
1490.717556	387.486713
1492.658118	392.046154
1494.600072	396.188112
1496.539763	399.789510
1498.479019	400.139860
1500.417841	398.404196
1502.354403	392.137063
1504.292355	393.803497
1506.228050	399.732168
1508.163311	398.913986
1510.096315	400.368531
1512.028887	405.405594
1513.961027	405.563636
1515.892735	409.300699
1517.822190	412.857343
1519.753034	415.335664
1521.683448	416.453147
1523.609789	417.895105
1525.537520	422.927972
1527.463001	431.122378
1529.388053	433.316084
1531.312676	431.300000
1533.236870	438.859441
1535.158817	443.041958
1537.082153	442.224476
1539.003244	446.795804
1540.922090	448.686713
1542.842326	454.871329
1544.760318	466.884615
1546.677884	479.738462
1548.593209	493.806294
1550.509922	504.067133
1552.422581	517.723077
1554.338444	530.379021
1556.252068	549.153147
1558.163453	562.400000
1560.076227	578.272727
1561.984953	591.729371
1563.895067	601.535664
1565.804758	616.753147
1567.714026	626.095804
1569.621059	628.334266
1571.525860	631.826573
1573.432050	627.500000
1575.336009	622.359441
1577.239546	610.817483
1579.142662	600.675524
1581.043550	591.454545
1582.945826	583.436364
1584.845873	576.924476
1586.747309	568.975524
1588.644710	564.430070
1590.541694	556.007692
1592.438259	553.289510
1594.336211	553.090909
1596.228329	548.618182
1598.123641	549.806294
1600.018534	549.592308
1601.911207	545.023776
1603.803462	541.992308
1605.693498	535.302098
1607.583118	525.916084
1609.472323	516.500699
1611.361112	506.992308
1613.247685	495.049650
1615.135645	485.781119
1617.019588	473.655944
1618.904918	459.220979
1620.789835	448.090210
1622.672538	434.336364
1624.556628	416.621678
1626.436706	404.886014
1628.318171	394.192308
1630.197426	385.120280
1632.078067	380.441259
1633.952905	373.604196
1635.832723	371.266434
1637.708536	369.118881
1639.583940	363.431469
1641.460729	359.836364
1643.331721	356.537063
1645.205896	353.337762
1647.076071	353.806294
1648.949427	359.574126
1650.820580	361.971329
1652.689531	362.942657
1654.559868	360.589510
1656.426211	360.895105
1658.293941	360.515385
1660.159471	353.869930
1662.026386	350.197203
1663.889313	339.096503
1665.753625	329.438462
1667.615742	324.132168
1669.477453	317.720280
1671.340549	313.260140
1673.201451	306.370629
1675.060159	308.425175
1676.918465	305.119580
1678.778154	306.237762
1680.632077	304.711189
1682.489173	306.843357
1684.345865	311.786014
1686.198582	312.325175
1688.054470	322.948951
1689.906384	324.734266
1691.757897	331.994406
1693.609009	332.393007
1695.459720	339.893706
1697.310031	341.236364
1699.158158	323.785315
1701.007668	321.137063
1702.851430	312.967832
1704.700142	312.328671
1706.543107	306.030070
1708.389238	305.791608
1710.231408	304.629371
1712.076742	290.292308
1713.916336	302.137762
1715.757314	304.572727
1717.599676	305.992308
1719.438080	302.056643
1721.277868	297.785315
1723.115481	303.030769
1724.952698	298.032168
1726.787742	298.844056
1728.624169	294.767133
1730.458424	288.641259
1732.292285	288.087413
1734.125751	285.734266
1735.955271	293.839161
1737.787950	297.301399
1739.616685	295.474825
1741.448578	306.683217
1743.276528	310.018182
1745.104086	312.723077
1746.931253	310.621678
1748.758028	315.818881
1750.584411	317.041958
1752.406858	297.425175
1754.232459	299.679021
1756.054126	292.760839
1757.877175	282.886014
1759.698063	282.341958
1761.518561	288.016783
1763.340441	287.692308
1765.156621	288.975524
1766.975953	292.720979
1768.791358	293.606294
1770.609914	302.082517
1772.424544	295.103497
1774.238787	279.527273
1776.052644	280.526573
1777.866114	269.134965
1779.677430	260.309790
1781.490128	266.027972
1783.302439	271.288811
1785.110833	265.451748
1786.920608	264.914685
1788.726467	265.179021
1790.535473	280.878322
1792.340565	295.482517
1794.147037	295.795804
1795.953126	303.895804
1797.755305	295.155944
1799.560627	292.032867
1801.362041	287.702098
1803.164835	290.363636
1804.963724	283.797203
1806.763992	272.945455
1808.563880	267.151748
1810.361625	271.808392
1812.158990	283.256643
1813.955974	286.451748
1815.752578	288.677622
1817.547043	286.269930
1819.342888	273.976923
1821.133077	277.176224
1822.928163	278.717483
1824.717596	281.731469
1826.510167	282.998601
1828.300602	287.383217
1830.088902	291.570629
1831.880338	292.483217
1833.666129	293.735664
1835.453298	296.608392
1837.238337	296.634266
1839.026508	292.665734
1840.810794	295.713986
1842.592951	304.911888
1844.376487	311.251049
1846.157894	314.934965
1847.940679	314.277622
1849.719585	319.926573
1851.499869	316.178322
1853.278028	311.149650
1855.057564	307.767133
1856.834976	305.598601
1858.610264	303.248252
1860.386931	302.647552
1862.161475	301.604196
1863.937396	298.220979
1865.707698	288.580420
1867.481127	287.154545
1869.252436	283.023776
1871.023374	286.429371
1872.795689	281.386014
1874.562392	284.680420
1876.332219	288.055944
1878.098183	290.439860
1879.867271	293.168531
1881.632497	294.521678
1883.397355	299.211888
1885.163589	296.494406
1886.925965	297.003497
1888.687974	298.737762
1890.449616	297.679720
1892.210890	299.128671
1893.971798	295.380420
1895.732338	300.156643
1897.490770	300.115385
1899.248835	298.186014
1901.004793	292.790210
1902.762127	291.288112
1904.519095	290.447552
1906.273958	291.289510
1908.026715	290.465734
1909.779109	292.209091
1911.532879	292.838462
1913.284545	292.742657
1915.034108	289.655944
1916.785048	292.530070
1918.535624	293.268531
1920.282362	293.687413
1922.030475	294.606993
1923.776489	295.768531
1925.523879	298.425874
1927.269170	302.825874
1929.012364	298.020280
1930.756934	297.537063
1932.499407	292.816084
1934.241520	293.487413
1935.983274	292.140909
1937.724667	292.093007
1939.463967	287.759790
1941.202908	285.057343
1942.941490	288.298252
1944.677980	282.698601
1946.414113	281.252098
1948.151620	275.174825
1949.885306	268.354895
1951.620366	273.941958
1953.353337	278.352098
1955.085952	286.174825
1956.818210	290.305245
1958.550112	289.979021
1960.279928	293.576224
1962.007660	300.762238
1963.736766	303.697902
1965.465516	296.613986
1967.192183	299.282517
1968.918496	299.458741
1970.646182	299.234965
1972.368333	304.060839
1974.093584	302.761538
1975.815028	300.434266
1977.539572	298.978322
1979.262037	296.493706
1980.980698	298.460839
1982.702458	302.011189
1984.420416	299.676923
1986.139748	297.870629
1987.855279	298.781818
1989.575632	301.025175
1991.292186	295.792308
1993.004943	293.352448
1994.720796	294.748951
1996.434577	289.134266
1998.148008	294.155245
1999.859367	292.723776
2001.572100	295.293706
2003.281041	301.733566
2004.993076	298.478322
2006.699601	299.266434
2008.409219	301.048951
2010.116769	306.362238
2011.823972	302.590909
2013.529109	303.457343
2015.233899	302.981818
2016.940061	299.636364
2018.642441	302.739860
2020.346193	300.134266
2022.047882	305.067133
2023.749225	305.385315
2025.450223	301.114685
2027.149161	302.590909
2028.849470	309.493706
2030.546003	309.684615
2032.243908	305.741958
2033.939755	306.039161
2035.638687	301.888112
2037.332133	305.346154
2039.026950	304.067133
2040.721424	301.156643
2042.412130	300.197902
2044.105920	302.802797
2045.795943	304.051049
2047.487337	301.502797
2049.176678	301.897902
2050.867389	298.431469
2052.554338	293.706294
2054.240946	290.788811
2055.928925	293.013986
2057.613144	295.162937
2059.298733	294.311888
2060.983983	291.609790
2062.667185	291.962238
2064.351757	297.832168
2066.030865	297.260839
2067.714759	300.720280
2069.393193	298.388811
2071.074704	297.586713
2072.752463	289.835664
2074.429886	283.449650
2076.108678	286.233566
2077.785427	282.867832
2079.460135	289.011189
2081.136212	288.967133
2082.810249	288.379720
2084.483950	288.806294
2086.157316	288.583217
2087.828644	295.274825
2089.499637	294.593706
2091.170296	294.339161
2092.840621	289.504196
2094.510611	287.351049
2096.178566	285.779021
2097.846188	283.059441
2099.511776	283.294406
2101.178732	283.207692
2102.843655	279.339161
2104.508245	277.249650
2106.170804	278.931469
2107.834732	284.713986
2109.496628	287.659441
2111.158193	290.183217
2112.819428	289.755944
2114.478633	287.490210
2116.137509	287.306993
2117.796054	286.944056
2119.454270	285.861538
2121.108763	289.630769
2122.766320	291.989510
2124.423547	294.716783
2126.077054	295.559441
2127.731928	297.036364
2129.383083	298.116084
2131.037301	301.397203
2132.687801	299.368531
2134.339669	297.996503
2135.986128	297.782517
2137.637341	298.916084
2139.284842	298.577622
2140.933709	300.911189
2142.580557	298.273427
2144.227080	295.651049
2145.873277	294.153846
2147.515765	297.211888
2149.161312	299.855944
2150.803152	298.686014
2152.448049	299.404895
2154.089241	299.972028
2155.730109	296.930769
2157.370654	298.426573
2159.009186	297.407692
2160.649084	295.061538
2162.285282	289.766434
2163.922846	287.362238
2165.560088	284.533566
2167.195320	286.975524
2168.830230	282.351748
2170.464819	282.800000
2172.099087	288.234266
2173.729661	297.827972
2175.363286	298.407692
2176.993220	302.207692
2178.624520	309.418881
2180.253814	314.279720
2181.882789	310.999301
2183.511444	306.764336
2185.139780	298.013287
2186.766113	296.679720
2188.392128	288.265734
2190.016142	285.397902
2191.641521	278.946853
2193.264899	280.493706
2194.889642	274.329371
2196.510703	277.018182
2198.131449	281.076923
2199.753558	288.323077
2201.373670	291.483217
2202.991786	294.092308
2204.609586	298.458042
2206.227070	305.784615
2207.844239	304.050350
2209.461093	303.186014
2211.077632	295.620280
2212.692177	296.645455
2214.304731	294.646853
2215.918648	291.472727
2217.530573	294.064336
2219.143863	293.614685
2220.755161	298.074825
2222.364471	294.563636
2223.975143	294.379720
2225.583827	292.616084
2227.192199	287.587413
2228.798583	290.023077
2230.406331	288.479720
2232.012092	295.232867
2233.617543	297.131469
2235.221008	298.850350
2236.825836	308.343357
2238.428680	307.365734
2240.029541	314.853846
2241.631765	310.142657
2243.232007	310.137063
2244.833611	308.965035
2246.431562	302.024476
2248.030876	299.142657
2249.628210	297.509790
2251.225236	296.843357
2252.823623	290.316783
2254.418362	288.704196
2256.011125	289.185315
2257.605249	288.824476
2259.200736	286.886713
2260.792577	285.877622
2262.384112	287.932867
2263.977008	284.581119
2265.564595	280.032867
2267.156879	278.620979
2268.743855	278.781119
2270.333860	281.137762
2271.918560	283.465734
2273.507954	292.678322
2275.092045	293.262238
2276.677498	295.909091
2278.260982	300.035664
2279.847491	302.027972
2281.430367	298.279021
2283.012939	295.288811
2284.595209	292.817483
2286.173848	296.170629
2287.755512	294.378322
2289.333547	294.297203
2290.914605	284.792308
2292.492036	283.369930
2294.067504	277.736364
2295.645994	280.333566
2297.220859	285.434266
2298.795425	285.832168
2300.369689	283.299301
2301.943653	286.913986
2303.517317	296.924476
2305.090680	300.225874
2306.660425	298.181818
2308.229871	292.250350
2309.802336	284.734266
2311.369526	288.520979
2312.939733	287.772727
2314.506327	290.118881
2316.074279	287.590909
2317.640277	290.255245
2319.205977	292.428671
2320.771379	307.310490
2322.334828	315.946853
2323.899636	319.837063
2325.460835	324.967133
2327.025049	321.522378
2328.584002	317.061538
2330.145968	315.157343
2331.705984	302.567832
2333.265704	287.765035
2334.823475	271.313986
2336.380952	266.589510
2337.938133	265.888112
2339.493368	274.604196
2341.048308	274.694406
2342.602955	278.860839
2344.157308	281.104196
2345.711367	283.269930
2347.265133	284.341958
2348.816954	291.990909
2350.366832	287.544056
2351.919718	281.989510
2353.467362	282.939161
2355.018013	291.037762
2356.565074	294.276224
2358.113492	303.218881
2359.661618	302.941958
2361.206157	304.998601
2362.752053	302.031469
2364.296010	300.554545
2365.841325	297.136364
2367.383055	293.720979
2368.926143	287.753846
2370.467294	276.362238
2372.008156	271.144056
2373.548729	270.641958
2375.089013	272.247552
2376.629008	281.269930
2378.165424	283.055245
2379.704842	289.967832
2381.240683	285.545455
2382.777880	289.853846
2384.311503	288.355245
2385.848125	281.486014
2387.382817	282.179021
2388.915578	274.376923
2390.448054	267.123077
2391.978601	263.165734
2393.512146	269.886014
2395.040480	270.551049
2396.570170	282.612587
2398.099575	287.495804
2399.628695	288.058042
2401.157529	286.797902
2402.681159	280.386713
2404.209424	282.622378
2405.732486	287.887413
2407.260183	284.746154
2408.781039	277.629371
2410.306529	278.488811
2411.828459	283.656643
2413.351743	290.070629
2414.873107	298.878322
2416.392551	293.667832
2417.913350	290.124476
2419.432230	283.283916
2420.950828	287.048252
2422.467509	297.744056
2423.985545	287.389510
2425.503299	281.314685
2427.017501	269.020979
2428.531423	268.520979
2430.045066	266.445455
2431.560062	272.000699
2433.071511	266.021678
2434.584313	265.380420
2436.095203	266.268531
2437.605813	273.511888
2439.114512	285.675524
2440.626198	287.631469
2442.134340	286.232168
2443.642203	294.362937
2445.149789	291.439161
2446.653835	295.218182
2448.160865	299.361538
2449.665987	307.024476
2451.170832	299.758741
2452.673770	300.944755
2454.176431	298.837762
2455.678816	292.978322
2457.179296	286.771329
2458.681129	278.408392
2460.181058	278.344056
2461.680711	277.950350
2463.180089	275.990909
2464.677564	270.707692
2466.173137	275.523077
2467.671690	277.388811
2469.166715	277.817483
2470.663092	280.671329
2472.155943	276.131469
2473.650146	273.064336
2475.144077	270.427972
2476.634483	268.469930
2478.127867	265.637063
2479.619353	269.583916
2481.108942	275.995804
2482.598259	274.159441
2484.085680	284.583916
2485.576077	287.038462
2487.062955	286.955944
2488.551186	277.764336
2490.035899	273.586014
2491.520342	272.720979
2493.006137	274.165734
2494.490039	271.765734
2495.975293	269.048252
2497.455413	270.838462
2498.938505	274.548951
2500.419708	276.455944
2501.900640	282.816084
2503.379684	284.379720
2504.858460	284.930070
2506.336967	287.337063
2507.815205	295.187413
2509.293176	291.389510
2510.767641	292.639860
2512.245075	280.363636
2513.719006	273.556643
2515.194288	270.500699
2516.669302	269.893706
2518.140815	272.518881
2519.613679	272.788112
2521.084660	273.009091
2522.556991	273.027273
2524.024208	281.687413
2525.494392	281.151049
2526.962694	268.520280
2528.430732	265.727273
2529.898505	259.495804
2531.366013	260.360839
2532.833257	265.096503
2534.297008	269.156643
2535.762109	269.679021
2537.225333	264.641958
2538.689906	260.327273
2540.150991	257.746154
2541.613425	268.381818
2543.075596	269.758741
2544.534280	278.751748
2545.997537	286.519580
2547.455697	292.186014
2548.915206	295.794406
2550.369622	301.887413
2551.828608	299.979720
2553.285721	295.092308
2554.740964	282.543357
2556.195946	270.444056
2557.649058	264.279021
2559.103519	270.716084
2560.556111	276.270629
2562.008443	286.647552
2563.458907	284.741259
2564.912327	285.341958
2566.360665	289.609091
2567.811959	292.205594
2569.261386	287.186014
2570.707342	290.962937
2572.156252	281.225175
2573.601691	276.865035
2575.048479	277.656643
2576.493403	275.242657
2577.938070	276.234266
2579.384084	277.718881
2580.826631	276.160140
2582.270526	275.477622
2583.710956	282.666434
2585.152734	285.796503
2586.592652	289.804196
2588.033917	298.778322
2589.471720	294.796503
2590.912473	299.648951
2592.348163	299.345455
2593.786803	302.295105
2595.223586	303.895105
2596.658512	300.188112
2598.096387	295.574126
2599.529204	285.488811
2600.963368	283.153147
2602.395677	276.900000
2603.829334	272.938462
2605.261136	266.358042
2606.692686	261.213986
2608.123982	262.949650
2609.553427	270.797203
2610.982619	278.657343
2612.409960	276.579021
2613.838648	279.947552
2615.267083	284.673427
2616.692072	290.169930
2618.118406	297.741958
2619.542892	303.479021
2620.968724	302.537063
2622.391112	304.459441
2623.814846	300.390909
2625.236734	303.767832
2626.658371	301.453147
2628.078164	300.802797
2629.499301	295.968531
2630.920189	292.609790
2632.337639	293.492308
2633.758028	298.716783
2635.174980	300.100000
2636.591684	304.706294
2638.008139	302.210490
2639.424346	305.512587
2640.840304	305.783217
2642.254422	314.125175
2643.668293	312.026573
2645.080324	311.141259
2646.493700	301.273427
2647.903646	305.566434
2649.316528	310.525874
2650.725981	311.708392
2652.135188	307.595105
2653.542559	308.488811
2654.952864	309.036364
2656.361333	307.867832
2657.767967	310.388112
2659.174356	314.372028
2660.578911	310.209091
2661.984810	309.955944
2663.388876	315.655944
2664.792698	328.586713
2666.196275	334.992308
2667.598021	339.346154
2669.001110	343.179021
2670.400781	344.265035
2671.801796	349.490909
2673.199395	342.007692
2674.599923	339.494406
2675.997037	341.293007
2677.395494	335.777622
2678.792123	336.641259
2680.188511	327.946853
2681.584656	323.828671
2682.978975	326.111189
2684.374637	323.637762
2685.766889	317.451049
2687.160485	311.245455
2688.552256	308.979021
2689.945369	304.007692
2691.336659	304.514685
2692.726126	308.702797
2694.115354	311.020979
2695.504341	314.631469
2696.894671	314.142657
2698.280016	322.110490
2699.668286	321.260839
2701.054735	321.660839
2702.440945	311.242657
2703.826916	314.629371
2705.209489	312.448951
2706.593404	315.260140
2707.977080	315.776923
2709.360519	318.863636
2710.740562	321.002098
2712.121947	323.720280
2713.501516	322.574825
2714.882427	318.964336
2716.261523	305.380420
2717.638805	297.795105
2719.017428	286.209790
2720.394237	286.968531
2721.770811	280.624476
2723.147149	282.700699
2724.521675	284.196503
2725.897542	285.460140
2727.270022	286.866434
2728.645419	288.803497
2730.015854	290.005594
2731.387631	290.114685
2732.759174	291.111189
2734.128908	282.951049
2735.499982	281.558741
2736.869249	275.082517
2738.238282	272.477622
2739.605508	272.302098
2740.972502	270.906993
2742.339263	272.605594
2743.705791	272.320979
2745.070515	267.858042
2746.435006	273.447552
2747.799265	283.282517
2749.163293	284.586713
2750.527088	280.993007
2751.887510	279.204196
2753.250843	272.727972
2754.609233	275.250350
2755.970533	274.366434
2757.328462	282.160140
2758.689301	277.157343
2760.048339	270.634965
2761.404009	265.172028
2762.762588	271.401399
2764.117799	266.586713
2765.472781	261.983916
2766.825966	259.674126
2768.182058	258.172727
2769.534786	250.725874
2770.887285	249.165734
2772.239557	252.970629
2773.593166	266.753147
2774.943414	259.891608
2776.291869	262.780420
2777.643228	268.418182
2778.991228	269.883916
2780.340567	260.134965
2781.688113	257.689510
2783.035432	251.044056
2784.382525	248.658741
2785.727827	240.014685
2787.072903	238.195804
2788.417753	243.427972
2789.762377	246.016783
2791.103648	247.248951
2792.446258	250.785315
2793.788643	249.725874
2795.130802	244.604895
2796.469612	237.898601
2797.811322	237.230769
2799.149683	232.980420
2800.489382	238.932168
2801.827295	243.868531
2803.163424	247.397902
2804.499330	251.863636
2805.836572	252.959441
2807.172031	265.606993
2808.507267	260.865035
2809.840721	260.055944
2811.175511	257.834965
2812.506960	251.883916
2813.841305	249.230070
2815.170752	243.881119
2816.501536	250.372727
2817.832098	250.764336
2819.160881	255.136364
2820.491001	261.112587
2821.819341	260.737762
2823.147461	265.504196
2824.473804	261.252448
2825.801482	261.242657
2827.125828	253.738462
2828.451510	245.250350
2829.775416	237.741259
2831.099102	238.502797
2832.424124	239.232867
2833.745817	240.613287
2835.067290	249.204196
2836.388545	250.144056
2837.709581	247.812587
2839.028845	256.718182
2840.349444	250.234965
2841.668271	245.187413
2842.986880	242.804895
2844.303719	246.147552
2845.620340	244.074825
2846.936743	249.676224
2848.251378	246.904196
2849.567347	252.084615
2850.879997	260.657343
2852.193981	261.158741
2853.507749	265.862937
2854.821300	265.175524
2856.133084	256.259441
2857.443103	256.707692
2858.754456	261.100000
2860.062493	265.537063
2861.371866	262.344755
2862.681023	262.387413
2863.989965	259.651049
2865.297144	256.843357
2866.602559	259.541958
2867.909309	254.476923
2869.214297	248.751049
2870.519070	240.596503
2871.822083	239.899301
2873.127976	247.419580
2874.429015	254.430070
2875.731387	256.237063
2877.032000	256.983217
2878.333947	258.551748
2879.635681	252.086014
2880.934111	247.446853
2882.233874	247.982517
2883.531880	242.429371
2884.829674	236.381818
2886.125711	236.470629
2887.423082	238.054545
2888.718697	244.619580
2890.014102	244.925175
2891.309295	249.657343
2892.601190	250.841259
2893.895962	253.994406
2895.187438	255.154545
2896.480246	258.797203
2897.772844	258.495105
2899.062147	254.368531
2900.352783	245.226573
2901.641669	246.571329
2902.931886	241.492308
2904.218812	240.124476
2905.507070	248.212587
2906.793579	253.031469
2908.079879	251.373427
2909.365971	254.559441
2910.650315	256.013986
2911.937531	259.040559
2913.219920	253.832867
2914.503641	243.725175
2915.785615	240.289510
2917.067383	240.295804
2918.347405	235.878322
2919.630297	235.716783
2920.911444	238.659441
2922.189309	236.544056
2923.470043	235.095804
2924.747496	240.267133
2926.024744	246.728671
2927.300249	254.806294
2928.578622	250.483916
2929.852181	255.139860
2931.128606	255.880420
2932.403291	250.923776
2933.676236	243.727972
2934.950511	231.186014
2936.223047	224.244755
2937.495379	225.251049
2938.764438	227.274825
2940.036362	230.079021
2941.306548	234.712587
2942.576530	241.781818
2943.846309	246.128671
2945.114351	253.690210
2946.380658	252.439860
2947.646762	249.188811
2948.914197	248.730070
2950.179896	242.779720
2951.445393	242.184615
2952.710689	242.944056
2953.972719	242.369231
2955.236079	241.793706
2956.499238	238.325874
2957.760664	239.872028
2959.023420	237.833566
2960.284445	234.398601
2961.543739	231.790909
2962.802832	229.602797
2964.061725	233.253846
2965.320418	232.597902
2966.578911	233.267832
2967.835675	230.265734
2969.092240	228.468531
2970.347076	225.360839
2971.603242	219.548951
2972.856152	224.153147
2974.110392	220.627273
2975.364433	218.873427
2976.616748	221.512587
2977.868865	221.870629
2979.119257	232.092308
2980.372504	233.901399
2981.620974	238.762937
2982.872298	236.260140
2984.120374	234.657343
2985.368252	229.274126
2986.615933	228.469231
2987.863418	225.810490
2989.109181	220.290909
2990.354747	221.630070
2991.601642	220.624476
2992.845291	216.182517
2994.090269	221.940559
2995.332004	215.124476
2996.576590	216.217483
2997.819457	217.170629
2999.059082	218.255245
3000.301559	217.939860
3001.540795	219.539161
3002.781359	221.035664
3004.020206	227.015385
3005.258859	231.537762
3006.495796	229.797902
3007.734061	226.820280
3008.970610	222.176224
3010.206966	214.934965
3011.443128	216.645455
3012.677576	214.054545
3013.911831	211.830070
3015.145893	209.460140
3016.378243	208.841958
3017.608881	209.569930
3018.842365	208.440559
3020.074138	207.937063
3021.304199	211.383217
3022.534069	216.311888
3023.762229	219.309091
3024.991716	222.222378
3026.219493	231.255245
3027.447079	230.138462
3028.675991	234.395105
3029.900161	236.070629
3031.127174	241.637762
3032.350964	241.975524
3033.576079	233.885315
3034.799488	231.906294
3036.022708	236.451049
3037.244222	234.329371
3038.468577	229.518881
3039.688197	226.347552
3040.909143	222.902098
3042.129899	221.341259
3043.348952	220.383217
3044.569331	217.886014
3045.786493	215.043357
3047.004980	210.599301
3048.221766	202.906993
3049.438363	200.873427
3050.654773	201.061538
3051.867969	197.646853
3053.084003	197.838462
3054.296825	200.346154
3055.512484	196.304196
3056.723420	204.344755
3057.935682	211.897902
3059.147756	216.294406
3060.359644	215.806294
3061.569834	215.024476
3062.779839	212.261888
3063.989657	209.215385
3065.197779	208.291259
3066.405715	207.702797
3067.611957	205.693357
3068.819523	207.473427
3070.025394	205.072378
3071.231080	215.100699
3072.436582	220.593357
3073.640390	222.359441
3074.845522	216.572378
3076.048961	216.320280
3077.250708	210.557692
3078.452272	207.141958
3079.653652	202.528671
3080.854848	199.637762
3082.054354	199.711888
3083.253676	199.788112
3084.454322	198.339161
3085.653279	204.062238
3086.849040	203.338462
3088.047631	205.861538
3089.243028	202.512587
3090.439749	202.602797
3091.633277	197.547552
3092.829633	198.012587
3094.024302	199.555944
3095.215781	202.086713
3096.411591	206.124476
3097.602708	205.327273
3098.795148	207.209091
3099.984399	213.283916
3101.176477	213.379021
3102.366871	209.467832
3103.554078	199.765734
3104.742609	197.296503
3105.932462	193.176224
3107.119130	189.935664
3108.305619	191.929371
3109.491928	191.290909
3110.679560	189.680420
3111.864009	194.109091
3113.046778	198.411888
3114.232371	201.253147
3115.416283	204.827972
3116.598517	206.680420
3117.780573	207.688811
3118.962450	208.987413
3120.144149	200.010490
3121.324171	193.297902
3122.502516	192.432168
3123.683681	187.481119
3124.861671	183.435664
3126.039484	192.564336
3127.217120	192.369231
3128.393081	195.832867
3129.568866	201.551748
3130.745971	200.134965
3131.921403	201.119580
3133.095161	196.707692
3134.267246	191.385315
3135.440652	185.592308
3136.613883	186.537762
3137.785442	186.325874
3138.958321	189.353147
3140.128033	198.311888
3141.299066	197.148252
3142.468428	204.978322
3143.636121	209.395105
3144.806629	206.404895
3145.972478	209.451748
3147.142637	208.448951
3148.308138	207.044755
3149.473466	202.765035
3150.638620	199.017483
3151.803601	195.841958
3152.969901	191.900699
3154.131548	187.828671
3155.294516	186.559441
3156.457311	192.471329
3157.619932	191.881119
3158.780889	184.374825
3159.941674	182.875524
3161.102286	181.200699
3162.261234	176.620280
3163.420010	174.061538
3164.578615	171.746853
3165.737048	175.323077
3166.895309	172.104895
3168.051909	178.269231
3169.206846	186.090210
3170.363104	194.823776
3171.517700	193.623077
3172.672126	195.062937
3173.824891	197.855245
3174.977487	193.672028
3176.129913	189.532168
3177.282168	188.527972
3178.434254	185.682517
3179.583193	180.404895
3180.734939	176.211189
3181.885028	179.649650
3183.033459	177.855245
3184.181722	179.400699
3185.329816	178.453147
3186.477741	182.496503
3187.624010	183.990909
3188.770111	186.488811
3189.914558	193.003497
3191.058836	193.769231
3192.202947	190.339860
3193.348376	186.233566
3194.490666	189.347552
3195.632788	185.983916
3196.774744	180.461538
3197.916532	177.623776
3199.058153	178.723776
3200.196638	178.918182
3201.336442	177.293007
3202.477562	183.306993
3203.615548	186.962937
3204.751885	186.730769
3205.888056	186.211888
3207.025545	191.153846
3208.161385	192.057343
3209.298542	188.552448
3210.431086	182.546154
3211.567911	183.078322
3212.700125	186.125874
3213.833657	181.290909
3214.967023	178.176923
3216.097262	183.997203
3217.230300	184.256643
3218.360210	185.309091
3219.491438	188.025874
3220.619540	191.994406
3221.750440	180.728671
3222.879695	181.097902
3224.007307	180.823776
3225.131796	181.422378
3226.260561	182.120979
3227.386204	180.681818
3228.511684	184.723077
3229.635523	186.848252
3230.762157	182.608392
3231.884192	176.205594
3233.007544	174.108392
3234.130734	165.570629
3235.253762	159.167133
3236.375150	164.929371
3237.496377	161.962238
3238.615965	161.053147
3239.735392	164.063636
3240.853182	167.989510
3241.973763	172.065035
3243.091231	172.552448
3244.208538	171.463636
3245.325684	166.173427
3246.441195	168.209790
3247.558021	164.639161
3248.671736	167.225175
3249.788242	167.831469
3250.903112	163.697203
3252.014874	165.872727
3253.126477	165.093706
3254.239395	167.902797
3255.352153	168.976923
3256.461805	171.023077
3257.572772	175.078322
3258.683580	178.195105
3259.792756	188.568531
3260.900301	188.695804
3262.009161	190.622378
3263.117862	187.588811
3264.223461	182.881119
3265.330375	178.065734
3266.435659	175.569930
3267.542257	176.083916
3268.645755	176.197203
3269.750567	179.427972
3270.855222	180.965035
3271.956779	181.667133
3273.058179	189.937063
3274.160893	185.198601
3275.263450	181.869231
3276.362912	181.151748
3277.465156	182.637063
3278.564306	182.246853
3279.661830	182.933566
3280.759200	178.027972
3281.859351	177.413287
3282.956409	176.111189
3284.053313	174.391608
3285.150061	173.731469
3286.242250	173.820280
3287.338689	165.711888
3288.433505	163.905594
3289.528166	171.874825
3290.621206	175.295804
3291.714092	180.402098
3292.805357	183.198601
3293.897935	181.686713
3294.988893	186.186014
3296.078231	189.824476
3297.167416	186.786014
3298.257913	182.502797
3299.345326	179.346154
3300.432587	170.861538
3301.521160	166.147552
3302.609580	171.182517
3303.693453	172.072727
3304.781568	181.483916
3305.866602	190.388811
3306.950020	194.430070
3308.034750	194.496503
3309.117864	195.713287
3310.202290	182.303497
3311.283638	178.607692
3312.366298	175.413287
3313.447344	171.017483
3314.528239	165.006294
3315.607521	167.806294
3316.686652	163.402098
3317.767095	167.958042
3318.844463	172.479021
3319.923143	173.587413
3321.000211	168.690909
3322.077129	164.973427
3323.152437	153.584615
3324.227595	151.065035
3325.304064	147.939860
3326.377462	150.469231
3327.450712	141.885315
3328.525273	145.286713
3329.598224	152.311189
3330.669568	159.335664
3331.742222	165.234965
3332.811809	171.239860
3333.882707	171.887413
3334.951998	170.612587
3336.022600	170.301399
3337.091595	173.148252
3338.158985	170.895105
3339.224768	168.432867
3340.294778	165.033566
3341.361725	171.725874
3342.425610	173.304895
3343.492263	171.774825
3344.557312	174.299301
3345.620757	170.846154
3346.684055	164.279720
3347.747208	159.979021
3348.810214	166.137063
3349.873073	171.307692
3350.934331	170.558741
3351.992532	169.392308
3353.054954	172.393007
3354.114319	173.347552
3355.173540	170.843357
3356.234069	173.765734
3357.290089	170.125175
3358.348874	164.557343
3359.403151	158.753846
3360.460192	160.990210
3361.515634	169.331469
3362.572385	169.631469
3363.627539	171.377622
3364.681095	165.053846
3365.733054	168.635664
3366.787776	166.210490
3367.839448	163.861538
3368.890976	163.021678
3369.943814	160.036364
3370.993604	159.473427
3372.044703	159.341259
3373.092755	164.438462
3374.143568	165.950350
3375.191335	166.716084
3376.238960	170.602797
3377.286443	169.888811
3378.332332	179.140559
3379.379531	178.173427
3380.423686	173.776224
3381.470600	172.860140
3382.515923	167.364336
3383.558204	161.958042
3384.600344	161.750350
3385.643793	162.285315
3386.687100	154.611189
3387.728817	156.471329
3388.770394	158.444755
3389.811829	161.269930
3390.851676	165.452448
3391.889934	167.227273
3392.929500	164.637063
3393.968926	165.871329
3395.006764	163.070629
3396.043015	159.723077
3397.079126	160.186014
3398.116545	161.175524
3399.150931	152.972727
3400.186625	156.409091
3401.222179	159.504196
3402.254701	167.196503
3403.289977	171.968531
3404.322222	175.612587
3405.354329	178.999301
3406.384853	181.418881
3407.416683	181.319580
3408.448375	178.762238
3409.477039	178.960839
3410.505566	174.353846
3411.535399	169.829371
3412.565095	171.067832
3413.591765	174.755944
3414.619741	175.921678
3415.644693	171.831469
3416.672396	168.567832
3417.697074	171.532867
3418.723059	173.481119
3419.747465	172.746853
3420.771733	174.086014
3421.794424	177.083217
3422.816978	173.448951
3423.840838	175.033566
3424.861678	176.409091
3425.882382	174.054346
3426.904392	169.900699
3427.923384	163.728571
3428.942241	155.318382
3429.962404	144.450549
3430.979549	130.905495
