-118.277064	6.858791
-115.607463	4.942857
-112.940798	2.824575
-110.274885	0.696603
-107.611905	-1.248402
-104.947494	-2.817782
-102.286014	-3.818881
-99.623105	-2.809790
-96.965303	-1.800000
-94.306070	-1.538462
-91.647586	1.181119
-88.992027	5.041259
-86.335039	6.492308
-83.683148	4.990210
-81.029828	4.442657
-78.379427	7.289510
-75.727598	8.156643
-73.080859	6.248252
-70.432690	7.586014
-67.785265	9.544755
-65.140753	9.708392
-62.494812	8.806294
-59.853954	9.004196
-57.211665	8.500699
-54.572286	6.860839
-51.931478	2.150350
-49.291409	2.704895
-46.656414	3.330070
-44.019989	1.943357
-41.386468	-0.025175
-38.751517	1.330769
-36.121633	3.419580
-33.488155	5.636364
-30.859740	6.742657
-28.232059	6.513986
-25.602950	6.432168
-22.978897	-0.244056
-20.351254	-24.516783
-17.728666	-69.367133
-15.106808	-38.733566
-12.485681	125.018881
-9.865285	364.246154
-7.247776	556.926573
-4.628839	688.591608
-2.012788	755.927273
0.602536	757.886713
3.217131	696.045455
5.828845	574.222378
8.441986	393.362937
11.050095	176.937063
13.661784	-27.157343
16.268443	-103.730769
18.876530	-63.920280
21.483893	-5.641958
24.086231	3.044056
26.692147	4.583217
29.293042	4.909091
31.895364	4.537762
34.492668	7.039161
37.093548	5.995105
39.689414	8.600000
42.286707	9.974126
44.883281	7.555944
47.474846	5.644755
50.067839	3.430070
52.657972	0.995804
55.249531	-0.548951
57.838231	-3.053147
60.428359	-4.511888
63.013487	-5.153147
65.600043	-3.233566
68.185884	-2.293706
70.768872	1.282517
73.353287	4.313986
75.930572	7.628671
78.511424	8.290909
81.089427	10.427273
83.666720	10.649650
86.245440	10.304196
88.819177	10.920979
91.394341	6.929371
93.966662	6.243357
96.538276	3.696503
99.107049	3.015385
101.677249	1.280420
104.244610	3.176923
106.813398	4.557343
109.379349	4.114685
111.942464	3.745455
114.509137	3.682517
117.066587	4.778322
119.629723	8.590909
122.187900	9.253846
124.749631	15.203497
127.306405	17.629371
129.864605	26.511888
132.417853	35.914685
134.970402	48.586713
137.526503	60.081818
140.077655	71.306993
142.628110	83.205594
145.177867	96.988112
147.724805	106.266434
150.271048	113.858741
152.818716	116.237762
155.365688	118.616783
157.907724	116.524476
160.449068	117.113287
162.989718	115.939860
165.531793	115.479720
168.071058	115.216783
170.607513	116.054545
173.143278	117.988811
175.680468	118.358042
178.216967	119.198601
180.750660	119.621678
183.281549	118.981818
185.811750	121.359441
188.343376	121.753846
190.872202	122.653147
193.398228	119.879720
195.923568	119.061538
198.450333	118.584615
200.974302	115.157343
203.497585	112.681818
206.020184	110.508392
208.539990	109.236364
211.059113	109.923077
213.577553	112.357343
216.097418	114.873427
218.610280	115.340559
221.126674	116.074825
223.642387	116.529371
226.153209	120.101399
228.665456	122.309790
231.174920	119.976923
233.683706	119.395105
236.191814	118.910490
238.701346	117.287413
241.205997	117.578322
243.709972	118.602797
246.215371	118.660839
248.715895	118.516783
251.219942	118.982517
253.717019	120.169930
256.217618	122.008392
258.715446	123.979021
261.212601	121.868531
263.709084	122.746853
266.200703	124.404196
268.695841	122.683217
271.188214	121.634965
273.679916	124.404196
276.168855	125.809091
278.659217	125.199301
281.146818	124.330769
283.631659	126.683217
286.120014	126.725175
288.601431	127.228671
291.086361	122.583217
293.566445	122.656643
296.050042	127.362937
298.528797	125.965734
301.008974	128.000699
303.486400	129.834266
305.963162	131.525874
308.439260	134.006294
310.912610	141.840559
313.385299	149.089510
315.857326	155.060140
318.328691	159.800699
320.797313	163.585315
323.265275	167.834965
325.734660	170.614685
328.199222	166.409091
330.667287	161.639860
333.130533	153.202797
335.593122	148.051748
338.055053	143.590909
340.516328	141.948951
342.974869	140.616084
345.434832	143.612587
347.892063	143.237063
350.348639	144.420280
352.804560	144.709091
355.257753	144.988112
357.712368	146.161538
360.162181	146.046154
362.615490	142.469231
365.064000	140.762238
367.511860	136.778322
369.961141	135.257343
372.405629	136.537063
374.851539	136.516084
377.296800	134.760140
379.739342	136.155944
382.181236	136.971329
384.622482	137.562238
387.061013	140.009790
389.500966	140.153846
391.938205	137.495804
394.372732	138.885315
396.810747	137.443357
399.243985	138.432168
401.678645	141.214685
404.108532	140.767133
406.541904	142.734965
408.970506	144.547552
411.398466	141.870629
413.827847	140.757343
416.252464	139.322378
418.678501	135.951049
421.103899	134.626573
423.528656	136.281119
425.948654	136.445455
428.370074	137.398601
430.788797	138.117483
433.208941	139.022378
435.626390	141.216783
438.045259	142.413986
440.461435	141.358042
442.872864	141.391608
445.287769	137.593007
447.699984	136.814685
450.111565	139.513986
452.522513	141.318881
454.930773	142.453147
457.338402	143.090909
459.745398	143.558042
462.151762	145.224476
464.555445	144.154545
466.958497	143.466434
469.360919	140.736364
471.762711	140.205594
474.161825	136.257343
476.562359	136.622378
478.962264	135.083916
481.357447	133.813287
483.756095	134.449650
486.150024	135.205594
488.543327	135.582517
490.936004	133.115385
493.328056	129.800699
495.721527	125.375524
498.110285	119.958741
500.496377	116.387413
502.883889	107.446154
505.270777	102.501399
507.655002	98.095105
510.040646	95.370629
512.423627	92.779720
514.803948	92.858741
517.185688	90.675524
519.564770	89.369231
521.945269	87.602098
524.323111	86.433566
526.698298	84.916084
529.072867	83.573427
531.448855	83.837063
533.822189	84.137063
536.196942	84.868531
538.567008	85.442657
540.936459	84.518182
543.307329	86.674825
545.673517	83.911888
548.041124	82.890210
550.406085	80.414685
552.770434	79.464336
555.134169	76.820979
557.499322	74.460839
559.859803	74.737762
562.221701	73.260839
564.580960	74.505594
566.937580	74.782517
569.297646	70.620280
571.651020	70.844755
574.007839	70.685315
576.362023	72.262238
578.715598	73.498601
581.068565	74.258741
583.418901	73.095105
585.770654	71.841259
588.115729	73.932168
590.466269	74.800699
592.810136	73.496503
595.159464	72.906294
597.504143	67.450350
599.846198	66.790909
602.189670	67.017483
604.530519	68.127972
606.870765	67.318881
609.208391	66.062238
611.549452	66.353846
613.885876	68.386014
616.223716	69.825874
618.558938	69.095804
620.891545	68.758741
623.225569	68.920280
625.556978	66.541259
627.887789	66.624476
630.218002	67.311888
632.547618	66.743357
634.872610	64.862937
637.203044	65.067832
639.528856	63.641958
641.852062	63.565035
644.176684	60.401399
646.498700	59.732867
648.820122	57.860140
651.138941	59.587413
653.459176	61.118881
655.778818	61.110490
658.095859	61.131469
660.412309	62.481818
662.726160	61.998601
665.041426	63.796503
667.354096	61.900000
669.668181	64.184615
671.977667	64.861538
674.288567	66.921678
676.596875	65.061538
678.904595	64.511189
681.213730	61.490210
683.518272	57.549650
685.822228	54.829371
688.125597	57.205594
690.430381	56.506294
692.730579	57.504196
695.032192	58.921678
697.333219	61.428671
699.629665	62.434266
701.927525	62.424476
704.224803	60.547552
706.521496	58.306993
708.813614	56.621678
711.109143	53.528671
713.400099	52.639860
715.692469	56.787413
717.982263	56.477622
720.271478	57.237063
722.560113	57.837762
724.846175	57.387413
727.133651	56.946154
729.418557	56.593007
731.702884	57.654545
733.984644	58.865035
736.267817	59.756643
738.550413	58.264336
740.828453	59.718182
743.107907	61.777622
745.386786	60.616084
747.665090	61.987413
749.938843	62.175524
752.214011	63.472727
754.488605	61.346154
756.760640	59.155944
759.034088	57.161538
761.304978	58.040559
763.573312	55.663636
765.843059	53.955245
768.110251	54.945455
770.376873	53.873427
772.642926	54.007692
774.906427	57.598601
777.171340	58.877622
779.435685	61.512587
781.695499	61.827273
783.956727	63.266434
786.217387	65.658042
788.475500	69.571329
790.731070	69.176923
792.990029	68.351748
795.242490	65.342657
797.500318	63.830769
799.753627	62.735664
802.004395	62.423776
804.256576	61.202797
806.506219	64.462238
808.757273	66.267133
811.003816	65.534266
813.251772	67.258042
815.497192	66.825175
817.744025	62.533566
819.990295	59.223077
822.232062	54.718881
824.477211	54.189510
826.715888	51.572727
828.957948	50.442657
831.195509	52.279720
833.434481	54.624476
835.670928	51.751748
837.908785	51.266434
840.144117	52.319580
842.376925	54.414685
844.611145	52.566434
846.842843	54.311888
849.073986	53.412587
851.304574	54.446853
853.534608	55.918182
855.764087	57.453147
857.989086	58.218881
860.217458	56.690210
862.441352	52.375524
864.666656	54.037063
866.887485	51.559441
869.111687	52.334965
871.331415	50.631469
873.552553	51.062238
875.773141	53.804895
877.991220	57.714685
880.210708	62.994406
882.425730	67.028671
884.640204	66.953147
886.854131	63.458741
889.067510	61.179720
891.280343	60.423077
893.492628	57.040559
895.702412	55.805594
897.911650	53.924476
900.120342	52.492308
902.326536	54.737063
904.534139	59.383916
906.739245	61.624476
908.943807	60.037063
911.145874	57.471329
913.349350	54.635664
915.550332	55.060140
917.750772	53.607692
919.952621	55.067832
922.148079	57.528671
924.346895	56.793706
926.541274	56.138462
928.739010	57.011189
930.932310	57.086014
933.127018	55.850350
935.319241	50.185315
937.510926	50.286014
939.702073	48.266434
941.890737	48.508392
944.078864	50.065734
946.264511	53.625175
948.453511	57.456643
950.638086	58.207692
952.822127	59.342657
955.009518	61.130070
957.188606	62.269930
959.371044	68.558042
961.552947	70.147552
963.732377	73.306294
965.909334	72.331469
968.087699	69.918182
970.267470	70.740559
972.440893	68.635664
974.617663	69.166434
976.790025	69.617483
978.963795	66.523776
981.133161	64.999301
983.305871	66.987413
985.476115	72.301399
987.645831	73.751049
989.815018	73.501399
991.979808	75.627972
994.147940	76.692308
996.311676	79.396503
998.476820	81.601399
1000.639504	83.438462
1002.801663	87.186014
1004.961364	83.653147
1007.120542	82.572727
1009.281126	86.074126
1011.439255	85.929371
1013.596860	85.052448
1015.753942	87.491608
1017.910501	91.321678
1020.062680	92.827972
1022.216266	91.278322
1024.369330	94.220280
1026.519945	96.441259
1028.671966	97.800000
1030.819615	97.949650
1032.970594	95.904196
1035.117204	94.531469
1037.263294	95.332867
1039.408866	96.422378
1041.555842	95.361538
1043.696531	92.031469
1045.840548	88.887413
1047.982126	86.895105
1050.123186	86.693706
1052.265651	86.939161
1054.401837	85.786713
1056.541349	82.962937
1058.676505	80.626573
1060.814986	82.669231
1062.949114	89.276923
1065.082728	85.798601
1067.217746	86.398601
1069.348415	88.577622
1071.480490	87.460140
1073.610134	89.088112
1075.739267	87.094406
1077.867889	85.509091
1079.995999	83.430070
1082.121683	79.632867
1084.246857	79.365734
1086.373434	77.797203
1088.495675	80.065734
1090.619320	75.893706
1092.738630	78.047552
1094.863169	82.092308
1096.981464	80.206993
1099.101162	80.346154
1101.218442	79.914685
1103.335216	76.334266
1105.451483	75.931469
1107.565335	74.309790
1109.680590	71.206993
1111.791523	72.090210
1113.905768	74.212587
1116.015692	72.042657
1118.127019	74.628671
1120.237843	78.474825
1122.344350	76.827972
1124.454166	77.630070
1126.559668	77.609790
1128.666574	73.473427
1130.767264	72.934266
1132.873165	70.559441
1134.974758	67.703497
1137.077754	66.004196
1139.180249	63.251049
1141.276538	63.258042
1143.378033	65.753147
1145.475226	64.739860
1147.571920	62.645455
1149.668117	63.474825
1151.763815	62.790210
1153.859016	62.587413
1155.951820	64.751748
1158.046026	66.413986
1160.134041	65.813986
1162.227254	65.699301
1164.314279	65.751748
1166.404604	69.827972
1168.490640	69.539860
1170.579974	69.623077
1172.663127	67.220979
1174.747683	67.290909
1176.833639	66.029371
1178.915315	68.162937
1180.998391	71.170629
1183.079082	69.569930
1185.159282	67.818182
1187.238990	66.570629
1189.318207	64.917483
1191.395041	67.174825
1193.469495	62.319580
1195.547241	62.346154
1197.620716	61.020280
1199.695593	60.723077
1201.766202	60.192308
1203.838212	63.301399
1205.907846	64.855245
1207.978881	62.258741
1210.049428	63.871329
1212.115715	63.199301
1214.183401	66.186713
1216.248716	66.532168
1218.315431	65.806294
1220.377890	68.056643
1222.443635	67.310490
1224.505125	66.496503
1226.568015	66.244056
1228.628538	68.183217
1230.688578	68.551049
1232.748134	66.639860
1234.805326	67.882517
1236.862035	68.034266
1238.916382	71.998601
1240.974009	69.958042
1243.029274	71.517483
1245.080298	71.023776
1247.132723	66.441259
1249.184667	65.946154
1251.234253	64.843357
1253.283360	66.180420
1255.331988	64.573427
1257.380138	61.044056
1259.427810	61.860140
1261.471251	62.120280
1263.517967	61.402098
1265.562331	60.898601
1267.606217	62.104895
1269.647753	62.674126
1271.686939	61.825874
1273.729397	61.610490
1275.767634	61.063636
1277.807268	62.151748
1279.846428	63.350350
1281.881370	62.874126
1283.917710	69.032168
1285.951705	69.315385
1287.987099	68.013986
1290.018279	69.733566
1292.050858	71.395804
1294.082964	72.916084
1296.112730	72.747552
1298.143894	70.672727
1300.170850	70.693706
1302.199204	74.039161
1304.223354	76.425874
1306.250769	75.502797
1308.273981	78.021678
1310.298591	77.383217
1312.320866	78.041259
1314.344539	79.019580
1316.365879	80.508392
1318.386752	80.744056
1320.407157	83.998601
1322.423369	88.165734
1324.440978	90.706993
1326.456259	95.146853
1328.474799	94.938462
1330.489149	96.199301
1332.501174	96.806294
1334.516457	98.454545
1336.527554	98.201399
1338.540047	98.339161
1340.548358	99.265035
1342.559925	98.955944
1344.565453	102.308392
1346.574235	104.071329
1348.578841	102.194406
1350.586700	102.497902
1352.594097	102.373427
1354.595462	101.251748
1356.598225	96.736364
1358.600528	92.918881
1360.602370	89.104895
1362.603754	87.472727
1364.602823	84.320979
1366.601434	81.534965
1368.599587	77.904895
1370.597282	77.378322
1372.590813	76.823776
1374.585741	74.905594
1376.580212	74.247552
1378.574226	74.558741
1380.565933	75.018182
1382.557184	72.951748
1384.546130	69.172028
1386.536471	67.769231
1388.526357	64.925175
1390.513940	63.791608
1392.501069	62.360839
1394.485896	65.671329
1396.472118	64.912587
1398.456039	66.493007
1400.439508	68.372028
1402.422525	72.102797
1404.403244	74.341958
1406.385357	73.995804
1408.365173	70.215385
1410.344539	69.239161
1412.319766	66.886014
1414.298231	65.080420
1416.274403	59.422378
1418.250125	57.541259
1420.225398	53.577622
1422.198381	56.173427
1424.170915	55.738462
1426.143001	55.822378
1428.114639	57.124476
1430.082150	59.698601
1432.054734	61.539161
1434.019512	62.546154
1435.989363	62.385315
1437.955089	59.499301
1439.922209	53.462937
1441.887045	55.504895
1443.847761	56.116783
1445.813545	56.978322
1447.773374	55.127972
1449.734596	56.790909
1451.697211	59.678322
1453.655711	62.690909
1455.613769	65.730070
1457.571384	63.876923
1459.528558	63.845455
1461.483456	63.770629
1463.439746	63.595804
1465.393762	65.825874
1467.347338	64.504196
1469.298641	62.880420
1471.251336	60.455245
1473.201760	62.234965
1475.151745	60.048951
1477.101291	62.713287
1479.048567	62.716783
1480.993577	61.012587
1482.939979	61.255944
1484.885943	61.416783
1486.831470	61.997203
1488.774731	61.678322
1490.717556	59.388811
1492.658118	57.954545
1494.600072	56.142657
1496.539763	57.647552
1498.479019	59.923077
1500.417841	65.981119
1502.354403	66.948252
1504.292355	67.286014
1506.228050	67.361538
1508.163311	69.434266
1510.096315	71.232168
1512.028887	70.530070
1513.961027	65.831469
1515.892735	62.668531
1517.822190	62.597203
1519.753034	61.241958
1521.683448	61.535664
1523.609789	59.141958
1525.537520	59.091608
1527.463001	62.055944
1529.388053	65.372727
1531.312676	66.364336
1533.236870	68.747552
1535.158817	72.490909
1537.082153	72.876224
1539.003244	74.769930
1540.922090	76.646154
1542.842326	74.868531
1544.760318	76.251049
1546.677884	73.377622
1548.593209	74.646853
1550.509922	81.155245
1552.422581	83.163636
1554.338444	80.233566
1556.252068	84.231469
1558.163453	88.298601
1560.076227	89.181119
1561.984953	92.156643
1563.895067	92.529371
1565.804758	90.633566
1567.714026	92.110490
1569.621059	89.748951
1571.525860	90.397902
1573.432050	94.747552
1575.336009	94.158042
1577.239546	95.104895
1579.142662	96.276224
1581.043550	95.358741
1582.945826	93.185315
1584.845873	90.920280
1586.747309	87.979720
1588.644710	84.869231
1590.541694	82.020979
1592.438259	77.916084
1594.336211	75.319580
1596.228329	74.581818
1598.123641	73.601399
1600.018534	75.349650
1601.911207	75.490909
1603.803462	73.590210
1605.693498	73.038462
1607.583118	70.219580
1609.472323	72.329371
1611.361112	72.105594
1613.247685	71.861538
1615.135645	71.830769
1617.019588	71.348252
1618.904918	73.903497
1620.789835	75.383916
1622.672538	73.248951
1624.556628	73.735664
1626.436706	72.986014
1628.318171	72.501399
1630.197426	68.653846
1632.078067	69.188112
1633.952905	67.867133
1635.832723	67.241259
1637.708536	65.644056
1639.583940	62.241259
1641.460729	64.875524
1643.331721	64.474825
1645.205896	60.990909
1647.076071	61.579021
1648.949427	60.571329
1650.820580	57.527273
1652.689531	53.802098
1654.559868	52.134965
1656.426211	49.641958
1658.293941	48.548252
1660.159471	45.948951
1662.026386	43.132867
1663.889313	45.997902
1665.753625	46.704196
1667.615742	48.576224
1669.477453	52.253147
1671.340549	53.153846
1673.201451	52.135664
1675.060159	52.744056
1676.918465	54.157343
1678.778154	54.697203
1680.632077	55.103497
1682.489173	55.934266
1684.345865	51.897203
1686.198582	50.413287
1688.054470	49.997902
1689.906384	48.922378
1691.757897	50.423776
1693.609009	50.619580
1695.459720	49.992308
1697.310031	48.425874
1699.158158	46.125874
1701.007668	43.178322
1702.851430	41.480420
1704.700142	42.602797
1706.543107	37.449650
1708.389238	37.104196
1710.231408	37.800000
1712.076742	39.812587
1713.916336	44.532168
1715.757314	49.579720
1717.599676	53.857343
1719.438080	51.190210
1721.277868	50.228671
1723.115481	51.297902
1724.952698	52.267832
1726.787742	52.276923
1728.624169	49.469930
1730.458424	45.726573
1732.292285	45.170629
1734.125751	44.241958
1735.955271	45.213287
1737.787950	47.027972
1739.616685	47.392308
1741.448578	46.210490
1743.276528	46.529371
1745.104086	52.428671
1746.931253	56.574126
1748.758028	59.600699
1750.584411	61.350350
1752.406858	55.693706
1754.232459	53.301399
1756.054126	49.358042
1757.877175	47.753147
1759.698063	41.521678
1761.518561	38.058042
1763.340441	35.859441
1765.156621	34.429371
1766.975953	40.878322
1768.791358	42.425874
1770.609914	45.750350
1772.424544	50.476224
1774.238787	49.733566
1776.052644	53.463636
1777.866114	53.827273
1779.677430	49.871329
1781.490128	44.961538
1783.302439	45.078322
1785.110833	42.327972
1786.920608	42.127972
1788.726467	42.365734
1790.535473	41.104196
1792.340565	46.605594
1794.147037	51.687413
1795.953126	56.158042
1797.755305	59.181818
1799.560627	61.058741
1801.362041	57.165035
1803.164835	57.014685
1804.963724	57.223077
1806.763992	54.899301
1808.563880	50.870629
1810.361625	43.563636
1812.158990	41.762238
1813.955974	42.944755
1815.752578	40.446853
1817.547043	42.214685
1819.342888	42.981818
1821.133077	47.368531
1822.928163	48.002797
1824.717596	52.356643
1826.510167	52.021678
1828.300602	51.862937
1830.088902	48.302797
1831.880338	44.632168
1833.666129	45.281818
1835.453298	45.334266
1837.238337	41.312587
1839.026508	43.465734
1840.810794	43.866434
1842.592951	42.889510
1844.376487	44.001399
1846.157894	44.867832
1847.940679	46.111189
1849.719585	48.593007
1851.499869	50.693007
1853.278028	53.975524
1855.057564	59.434965
1856.834976	58.398601
1858.610264	55.576224
1860.386931	54.329371
1862.161475	51.174825
1863.937396	45.070629
1865.707698	44.206294
1867.481127	39.955944
1869.252436	39.306294
1871.023374	37.566434
1872.795689	38.229371
1874.562392	42.233566
1876.332219	49.542657
1878.098183	49.820979
1879.867271	52.593007
1881.632497	54.321678
1883.397355	55.273427
1885.163589	55.165734
1886.925965	55.044755
1888.687974	51.192308
1890.449616	48.695804
1892.210890	45.312587
1893.971798	45.920979
1895.732338	46.641958
1897.490770	46.608392
1899.248835	47.689510
1901.004793	45.894406
1902.762127	44.867133
1904.519095	44.915385
1906.273958	47.695105
1908.026715	48.037762
1909.779109	48.945455
1911.532879	51.141259
1913.284545	52.506993
1915.034108	55.817483
1916.785048	54.301399
1918.535624	53.479021
1920.282362	54.881818
1922.030475	49.984615
1923.776489	50.697902
1925.523879	49.448252
1927.269170	48.225874
1929.012364	48.032867
1930.756934	50.053147
1932.499407	49.486014
1934.241520	48.288112
1935.983274	47.277273
1937.724667	46.282517
1939.463967	48.398951
1941.202908	49.905594
1942.941490	47.614336
1944.677980	49.925874
1946.414113	47.891958
1948.151620	48.555245
1949.885306	52.391259
1951.620366	53.330070
1953.353337	51.948601
1955.085952	48.990210
1956.818210	49.387063
1958.550112	48.056643
1960.279928	51.320280
1962.007660	51.006993
1963.736766	48.753147
1965.465516	49.858741
1967.192183	47.850350
1968.918496	51.572028
1970.646182	52.346154
1972.368333	50.510490
1974.093584	52.238462
1975.815028	51.552448
1977.539572	53.316783
1979.262037	51.643357
1980.980698	53.736364
1982.702458	53.196503
1984.420416	53.589510
1986.139748	54.295804
1987.855279	53.032168
1989.575632	53.683916
1991.292186	49.395105
1993.004943	49.065734
1994.720796	51.262937
1996.434577	50.323077
1998.148008	48.722378
1999.859367	46.928671
2001.572100	47.204895
2003.281041	48.417483
2004.993076	50.346154
2006.699601	52.211189
2008.409219	50.109091
2010.116769	51.035664
2011.823972	49.967832
2013.529109	51.040559
2015.233899	47.448951
2016.940061	44.741259
2018.642441	41.667133
2020.346193	41.402098
2022.047882	41.166434
2023.749225	41.162937
2025.450223	41.008392
2027.149161	45.005594
2028.849470	45.300000
2030.546003	49.985315
2032.243908	49.676224
2033.939755	48.646154
2035.638687	44.861538
2037.332133	44.115385
2039.026950	42.801399
2040.721424	42.312587
2042.412130	41.938462
2044.105920	40.794406
2045.795943	43.124476
2047.487337	48.300000
2049.176678	48.869231
2050.867389	51.120979
2052.554338	51.281119
2054.240946	50.962937
2055.928925	50.863636
2057.613144	50.662937
2059.298733	48.526573
2060.983983	48.078322
2062.667185	50.609790
2064.351757	51.407692
2066.030865	53.800699
2067.714759	54.806993
2069.393193	53.044755
2071.074704	51.783217
2072.752463	51.418182
2074.429886	49.614685
2076.108678	49.283217
2077.785427	49.952448
2079.460135	48.144056
2081.136212	48.079021
2082.810249	49.795804
2084.483950	47.941259
2086.157316	50.549650
2087.828644	52.630769
2089.499637	51.328671
2091.170296	49.169930
2092.840621	49.066434
2094.510611	50.137762
2096.178566	48.920979
2097.846188	48.837762
2099.511776	48.374126
2101.178732	44.319580
2102.843655	45.530070
2104.508245	43.153147
2106.170804	48.509091
2107.834732	50.455944
2109.496628	50.709790
2111.158193	49.770629
2112.819428	49.043357
2114.478633	48.416084
2116.137509	47.832168
2117.796054	50.319580
2119.454270	51.004895
2121.108763	48.265035
2122.766320	49.234965
2124.423547	47.316783
2126.077054	48.283217
2127.731928	50.328671
2129.383083	51.181818
2131.037301	50.018182
2132.687801	49.444056
2134.339669	52.213986
2135.986128	55.679021
2137.637341	57.855245
2139.284842	55.421678
2140.933709	54.586713
2142.580557	50.939860
2144.227080	46.719580
2145.873277	44.347552
2147.515765	44.583916
2149.161312	41.990909
2150.803152	41.609091
2152.448049	41.905594
2154.089241	43.186014
2155.730109	46.062238
2157.370654	47.311888
2159.009186	48.188811
2160.649084	47.546154
2162.285282	43.558741
2163.922846	43.295804
2165.560088	43.337063
2167.195320	42.630769
2168.830230	40.604196
2170.464819	40.793706
2172.099087	41.436364
2173.729661	43.637063
2175.363286	47.528671
2176.993220	47.547552
2178.624520	49.479720
2180.253814	48.438462
2181.882789	47.725175
2183.511444	48.432168
2185.139780	47.863636
2186.766113	47.862238
2188.392128	47.224476
2190.016142	48.986014
2191.641521	50.223077
2193.264899	50.355245
2194.889642	52.031469
2196.510703	50.806294
2198.131449	50.106294
2199.753558	50.067133
2201.373670	48.100699
2202.991786	48.448951
2204.609586	49.693706
2206.227070	50.304895
2207.844239	51.042657
2209.461093	52.692308
2211.077632	53.593007
2212.692177	50.946853
2214.304731	50.232168
2215.918648	46.297902
2217.530573	43.354545
2219.143863	41.818881
2220.755161	41.505594
2222.364471	44.811888
2223.975143	45.695105
2225.583827	44.408392
2227.192199	45.044056
2228.798583	44.393007
2230.406331	43.751049
2232.012092	41.028671
2233.617543	39.368531
2235.221008	38.608392
2236.825836	40.135664
2238.428680	41.509790
2240.029541	46.102797
2241.631765	50.066434
2243.232007	51.022378
2244.833611	49.091608
2246.431562	48.553147
2248.030876	48.836364
2249.628210	51.283217
2251.225236	51.586713
2252.823623	49.397203
2254.418362	47.355245
2256.011125	45.699301
2257.605249	44.564336
2259.200736	43.730070
2260.792577	41.549650
2262.384112	41.530769
2263.977008	40.713986
2265.564595	42.182517
2267.156879	47.881818
2268.743855	50.058741
2270.333860	48.134965
2271.918560	48.763636
2273.507954	48.720979
2275.092045	49.650350
2276.677498	49.678322
2278.260982	47.664336
2279.847491	48.856643
2281.430367	50.140559
2283.012939	50.184965
2284.595209	50.251049
2286.173848	50.331818
2287.755512	45.715385
2289.333547	43.296154
2290.914605	45.844755
2292.492036	42.171678
2294.067504	38.251049
2295.645994	37.221329
2297.220859	39.856643
2298.795425	43.097552
2300.369689	46.893706
2301.943653	49.180769
2303.517317	52.591608
2305.090680	51.593706
2306.660425	48.779021
2308.229871	46.211189
2309.802336	47.262937
2311.369526	42.021678
2312.939733	38.840559
2314.506327	41.661538
2316.074279	44.300699
2317.640277	48.167832
2319.205977	54.557343
2320.771379	57.635664
2322.334828	59.025874
2323.899636	57.138462
2325.460835	52.751049
2327.025049	50.362238
2328.584002	50.198601
2330.145968	47.979021
2331.705984	43.200000
2333.265704	43.293706
2334.823475	44.325874
2336.380952	46.797902
2337.938133	51.888811
2339.493368	52.083916
2341.048308	48.317483
2342.602955	48.051049
2344.157308	47.479720
2345.711367	49.745455
2347.265133	51.403497
2348.816954	52.244056
2350.366832	48.524476
2351.919718	51.446853
2353.467362	53.016783
2355.018013	51.125874
2356.565074	49.956643
2358.113492	44.612587
2359.661618	40.170629
2361.206157	40.191608
2362.752053	43.614685
2364.296010	44.811888
2365.841325	43.539161
2367.383055	43.309790
2368.926143	39.248252
2370.467294	40.664336
2372.008156	37.945455
2373.548729	34.600699
2375.089013	32.960839
2376.629008	33.490210
2378.165424	36.262238
2379.704842	37.306993
2381.240683	43.281818
2382.777880	46.222378
2384.311503	50.708392
2385.848125	53.616084
2387.382817	53.097902
2388.915578	52.347552
2390.448054	49.358042
2391.978601	45.437063
2393.512146	41.762937
2395.040480	42.459441
2396.570170	40.427972
2398.099575	36.254545
2399.628695	39.843357
2401.157529	41.683217
2402.681159	46.746154
2404.209424	46.931469
2405.732486	47.700699
2407.260183	44.642657
2408.781039	41.720979
2410.306529	42.169231
2411.828459	41.576923
2413.351743	43.488112
2414.873107	40.658042
2416.392551	43.271329
2417.913350	48.915385
2419.432230	52.908392
2420.950828	55.774126
2422.467509	54.918182
2423.985545	54.330070
2425.503299	52.131469
2427.017501	48.337762
2428.531423	48.260140
2430.045066	42.195804
2431.560062	42.029371
2433.071511	39.144056
2434.584313	44.998601
2436.095203	47.471329
2437.605813	47.748951
2439.114512	45.434965
2440.626198	47.732168
2442.134340	49.022378
2443.642203	49.774126
2445.149789	49.176923
2446.653835	49.657343
2448.160865	47.353846
2449.665987	47.205594
2451.170832	42.365035
2452.673770	41.621678
2454.176431	38.601399
2455.678816	33.220280
2457.179296	31.756643
2458.681129	33.862937
2460.181058	31.858042
2461.680711	34.308392
2463.180089	35.720979
2464.677564	38.142657
2466.173137	43.646853
2467.671690	46.451049
2469.166715	48.483217
2470.663092	52.871329
2472.155943	55.602098
2473.650146	56.619580
2475.144077	58.685315
2476.634483	56.163636
2478.127867	52.527972
2479.619353	48.311189
2481.108942	44.742657
2482.598259	42.780420
2484.085680	44.004895
2485.576077	42.482517
2487.062955	45.760140
2488.551186	47.040559
2490.035899	47.025175
2491.520342	49.330769
2493.006137	47.465035
2494.490039	48.124476
2495.975293	47.749650
2497.455413	44.325874
2498.938505	42.051049
2500.419708	42.660839
2501.900640	43.430769
2503.379684	41.546853
2504.858460	41.772727
2506.336967	40.037762
2507.815205	41.709790
2509.293176	41.177622
2510.767641	41.342657
2512.245075	42.507692
2513.719006	41.260839
2515.194288	41.998601
2516.669302	43.080420
2518.140815	48.469231
2519.613679	50.148252
2521.084660	49.906294
2522.556991	50.793706
2524.024208	57.065035
2525.494392	62.118881
2526.962694	63.325175
2528.430732	64.232168
2529.898505	58.658741
2531.366013	55.928671
2532.833257	51.605594
2534.297008	45.389510
2535.762109	41.040559
2537.225333	35.951748
2538.689906	33.803497
2540.150991	34.902098
2541.613425	42.897902
2543.075596	51.020280
2544.534280	54.626573
2545.997537	57.767832
2547.455697	59.116783
2548.915206	60.977622
2550.369622	57.108392
2551.828608	53.740559
2553.285721	50.692308
2554.740964	47.823077
2556.195946	44.878322
2557.649058	43.067832
2559.103519	44.111189
2560.556111	44.685315
2562.008443	44.474825
2563.458907	43.606993
2564.912327	44.141958
2566.360665	43.738462
2567.811959	42.951748
2569.261386	41.566434
2570.707342	46.837063
2572.156252	49.687413
2573.601691	49.198601
2575.048479	49.481818
2576.493403	50.863636
2577.938070	48.330769
2579.384084	51.686014
2580.826631	51.873427
2582.270526	50.026573
2583.710956	49.686014
2585.152734	46.431469
2586.592652	45.161538
2588.033917	50.909091
2589.471720	52.860140
2590.912473	52.884615
2592.348163	51.788112
2593.786803	50.562937
2595.223586	46.794406
2596.658512	48.248951
2598.096387	47.801399
2599.529204	43.469930
2600.963368	41.762238
2602.395677	38.860140
2603.829334	40.044056
2605.261136	43.286014
2606.692686	43.972727
2608.123982	44.834266
2609.553427	50.117483
2610.982619	53.893007
2612.409960	55.958741
2613.838648	57.851748
2615.267083	60.200699
2616.692072	58.192308
2618.118406	58.825175
2619.542892	58.134266
2620.968724	54.591608
2622.391112	54.569930
2623.814846	48.474126
2625.236734	46.387413
2626.658371	48.201399
2628.078164	45.938462
2629.499301	44.106294
2630.920189	47.360140
2632.337639	48.209091
2633.758028	45.950350
2635.174980	46.658741
2636.591684	49.012587
2638.008139	46.770629
2639.424346	54.625874
2640.840304	52.426573
2642.254422	55.989510
2643.668293	59.361538
2645.080324	60.203497
2646.493700	62.670629
2647.903646	69.667832
2649.316528	66.301399
2650.725981	62.892308
2652.135188	59.341259
2653.542559	56.917483
2654.952864	50.979720
2656.361333	51.070629
2657.767967	47.841958
2659.174356	49.576923
2660.578911	49.332168
2661.984810	51.050350
2663.388876	52.029371
2664.792698	57.689510
2666.196275	56.191608
2667.598021	57.745455
2669.001110	57.002797
2670.400781	54.611189
2671.801796	52.418881
2673.199395	51.325874
2674.599923	49.890210
2675.997037	52.521678
2677.395494	52.207692
2678.792123	55.295804
2680.188511	53.281818
2681.584656	56.893706
2682.978975	56.605594
2684.374637	61.795804
2685.766889	63.180420
2687.160485	62.844755
2688.552256	63.044056
2689.945369	64.318182
2691.336659	60.210490
2692.726126	63.962937
2694.115354	61.408392
2695.504341	60.092308
2696.894671	53.713986
2698.280016	49.172727
2699.668286	47.130769
2701.054735	48.431469
2702.440945	44.079720
2703.826916	40.859441
2705.209489	40.412587
2706.593404	43.580420
2707.977080	44.046154
2709.360519	49.957343
2710.740562	55.460140
2712.121947	56.469930
2713.501516	55.552448
2714.882427	55.232168
2716.261523	59.493007
2717.638805	59.623077
2719.017428	54.430769
2720.394237	53.283916
2721.770811	55.099301
2723.147149	55.104196
2724.521675	55.158042
2725.897542	54.622378
2727.270022	54.705594
2728.645419	53.155245
2730.015854	51.923077
2731.387631	51.199301
2732.759174	52.239161
2734.128908	48.904196
2735.499982	46.200000
2736.869249	47.908392
2738.238282	49.475524
2739.605508	48.938462
2740.972502	47.578322
2742.339263	48.140559
2743.705791	46.676923
2745.070515	46.537762
2746.435006	46.779021
2747.799265	41.784615
2749.163293	40.367133
2750.527088	40.117483
2751.887510	38.749650
2753.250843	40.492308
2754.609233	39.491608
2755.970533	42.360140
2757.328462	43.755944
2758.689301	50.516783
2760.048339	49.224476
2761.404009	50.259441
2762.762588	50.344755
2764.117799	47.345455
2765.472781	46.373427
2766.825966	46.811189
2768.182058	43.997203
2769.534786	45.059441
2770.887285	45.683217
2772.239557	49.906294
2773.593166	49.312587
2774.943414	50.751748
2776.291869	47.335664
2777.643228	47.999301
2778.991228	47.221678
2780.340567	50.186713
2781.688113	50.004895
2783.035432	51.367832
2784.382525	50.655944
2785.727827	52.348252
2787.072903	54.853147
2788.417753	54.225874
2789.762377	52.273427
2791.103648	50.333566
2792.446258	48.983916
2793.788643	46.482517
2795.130802	45.853147
2796.469612	46.306294
2797.811322	44.968531
2799.149683	41.439161
2800.489382	39.566434
2801.827295	42.172727
2803.163424	41.009091
2804.499330	41.842657
2805.836572	44.493007
2807.172031	44.369930
2808.507267	48.536364
2809.840721	47.886713
2811.175511	49.964336
2812.506960	52.514685
2813.841305	51.834965
2815.170752	50.885315
2816.501536	52.396503
2817.832098	51.899301
2819.160881	50.082517
2820.491001	51.917483
2821.819341	51.183916
2823.147461	48.693706
2824.473804	48.205594
2825.801482	44.606993
2827.125828	45.304895
2828.451510	46.059441
2829.775416	44.023077
2831.099102	44.059441
2832.424124	45.117483
2833.745817	45.769231
2835.067290	48.936364
2836.388545	52.713986
2837.709581	50.502797
2839.028845	47.772028
2840.349444	45.571329
2841.668271	44.338462
2842.986880	46.522378
2844.303719	44.317483
2845.620340	43.586014
2846.936743	41.093007
2848.251378	41.037063
2849.567347	38.474126
2850.879997	37.362238
2852.193981	36.027273
2853.507749	30.637063
2854.821300	29.187413
2856.133084	30.617483
2857.443103	32.209790
2858.754456	37.710490
2860.062493	40.917483
2861.371866	43.138462
2862.681023	44.009790
2863.989965	43.624476
2865.297144	41.808392
2866.602559	42.496503
2867.909309	42.476923
2869.214297	38.746154
2870.519070	37.468531
2871.822083	39.433566
2873.127976	40.770629
2874.429015	44.425874
2875.731387	47.350350
2877.032000	46.418182
2878.333947	46.161538
2879.635681	39.791608
2880.934111	39.802098
2882.233874	38.566434
2883.531880	37.842657
2884.829674	35.449650
2886.125711	36.190210
2887.423082	37.039860
2888.718697	38.255944
2890.014102	41.087413
2891.309295	45.663636
2892.601190	43.233566
2893.895962	43.929371
2895.187438	40.750350
2896.480246	42.046154
2897.772844	39.836364
2899.062147	40.195105
2900.352783	37.957343
2901.641669	36.572028
2902.931886	35.278322
2904.218812	37.418182
2905.507070	40.893007
2906.793579	42.673427
2908.079879	40.318881
2909.365971	43.809790
2910.650315	47.626573
2911.937531	48.358042
2913.219920	50.656643
2914.503641	48.923776
2915.785615	48.034266
2917.067383	50.474126
2918.347405	49.141259
2919.630297	50.865035
2920.911444	53.334965
2922.189309	51.381119
2923.470043	50.168531
2924.747496	52.259441
2926.024744	53.945455
2927.300249	51.290210
2928.578622	53.201399
2929.852181	53.003497
2931.128606	54.839161
2932.403291	55.331469
2933.676236	52.346853
2934.950511	54.241958
2936.223047	52.351748
2937.495379	48.079720
2938.764438	47.608392
2940.036362	46.835664
2941.306548	42.183217
2942.576530	41.875524
2943.846309	39.914685
2945.114351	40.629371
2946.380658	40.327273
2947.646762	40.985315
2948.914197	36.839161
2950.179896	35.840559
2951.445393	34.298601
2952.710689	33.274825
2953.972719	31.471329
2955.236079	26.621678
2956.499238	25.420979
2957.760664	25.676923
2959.023420	21.986014
2960.284445	26.139161
2961.543739	27.181818
2962.802832	30.811888
2964.061725	33.548252
2965.320418	39.451049
2966.578911	41.886014
2967.835675	43.421678
2969.092240	41.862238
2970.347076	38.210490
2971.603242	39.620979
2972.856152	35.100000
2974.110392	35.284615
2975.364433	37.865734
2976.616748	37.169930
2977.868865	40.851049
2979.119257	42.534965
2980.372504	46.647552
2981.620974	44.238462
2982.872298	42.602098
2984.120374	38.359441
2985.368252	35.446853
2986.615933	35.198601
2987.863418	31.627972
2989.109181	30.810490
2990.354747	32.574825
2991.601642	32.753846
2992.845291	35.124476
2994.090269	36.877622
2995.332004	41.370629
2996.576590	39.687413
2997.819457	39.669231
2999.059082	35.342657
3000.301559	33.186713
3001.540795	27.540559
3002.781359	23.638462
3004.020206	25.792308
3005.258859	30.779720
3006.495796	34.048951
3007.734061	36.672727
3008.970610	40.688811
3010.206966	44.080420
3011.443128	45.301399
3012.677576	47.413287
3013.911831	41.320280
3015.145893	36.718182
3016.378243	30.379720
3017.608881	31.348951
3018.842365	32.898601
3020.074138	32.243357
3021.304199	32.534266
3022.534069	32.799301
3023.762229	35.776224
3024.991716	37.698601
3026.219493	37.655245
3027.447079	38.585315
3028.675991	37.480420
3029.900161	40.815385
3031.127174	40.602098
3032.350964	42.644056
3033.576079	40.924476
3034.799488	41.253147
3036.022708	41.244056
3037.244222	42.616783
3038.468577	43.732867
3039.688197	42.263636
3040.909143	38.426573
3042.129899	37.430070
3043.348952	39.497203
3044.569331	42.643357
3045.786493	39.309790
3047.004980	36.415385
3048.221766	31.581818
3049.438363	34.189510
3050.654773	35.010490
3051.867969	36.602797
3053.084003	35.662238
3054.296825	35.283916
3055.512484	33.996503
3056.723420	37.074126
3057.935682	39.214685
3059.147756	39.414685
3060.359644	34.210490
3061.569834	30.927273
3062.779839	27.626573
3063.989657	28.769930
3065.197779	27.342657
3066.405715	26.000699
3067.611957	24.918881
3068.819523	23.981818
3070.025394	22.646154
3071.231080	24.972727
3072.436582	27.137063
3073.640390	28.300699
3074.845522	25.072727
3076.048961	24.568531
3077.250708	23.197902
3078.452272	21.872028
3079.653652	23.491608
3080.854848	24.967832
3082.054354	26.682517
3083.253676	26.545455
3084.454322	30.023776
3085.653279	31.708392
3086.849040	35.071329
3088.047631	36.107692
3089.243028	34.004895
3090.439749	35.279021
3091.633277	35.665734
3092.829633	37.778322
3094.024302	39.237063
3095.215781	39.738462
3096.411591	38.688811
3097.602708	37.772727
3098.795148	36.572028
3099.984399	35.492308
3101.176477	34.161538
3102.366871	35.125175
3103.554078	33.525175
3104.742609	33.476224
3105.932462	33.934965
3107.119130	33.883217
3108.305619	32.932867
3109.491928	33.825175
3110.679560	31.476224
3111.864009	31.379021
3113.046778	31.333566
3114.232371	31.781119
3115.416283	29.811888
3116.598517	31.980420
3117.780573	29.101399
3118.962450	26.098601
3120.144149	28.097203
3121.324171	27.704196
3122.502516	30.680420
3123.683681	34.551748
3124.861671	33.329371
3126.039484	33.965035
3127.217120	34.695804
3128.393081	34.556643
3129.568866	33.772028
3130.745971	33.151748
3131.921403	32.304196
3133.095161	32.259441
3134.267246	34.279720
3135.440652	35.149650
3136.613883	37.266434
3137.785442	36.497203
3138.958321	31.255944
3140.128033	27.867832
3141.299066	27.769231
3142.468428	32.109091
3143.636121	31.827273
3144.806629	32.537762
3145.972478	35.265734
3147.142637	38.494406
3148.308138	35.698601
3149.473466	36.953147
3150.638620	39.583916
3151.803601	35.861538
3152.969901	33.637063
3154.131548	31.116084
3155.294516	31.690210
3156.457311	35.802098
3157.619932	32.896503
3158.780889	34.721678
3159.941674	35.497902
3161.102286	35.932867
3162.261234	32.886014
3163.420010	33.370629
3164.578615	34.044056
3165.737048	30.588112
3166.895309	31.278322
3168.051909	31.288811
3169.206846	31.210490
3170.363104	31.159441
3171.517700	27.259441
3172.672126	28.348951
3173.824891	28.811888
3174.977487	27.875524
3176.129913	28.506993
3177.282168	26.436364
3178.434254	28.376923
3179.583193	31.573427
3180.734939	35.903497
3181.885028	37.025874
3183.033459	36.908392
3184.181722	35.040559
3185.329816	34.083916
3186.477741	35.803497
3187.624010	34.553846
3188.770111	31.452448
3189.914558	27.488112
3191.058836	23.725175
3192.202947	24.171329
3193.348376	26.631469
3194.490666	24.144755
3195.632788	25.416084
3196.774744	26.839860
3197.916532	31.818881
3199.058153	37.384615
3200.196638	40.023776
3201.336442	39.007692
3202.477562	37.742657
3203.615548	34.429371
3204.751885	36.825175
3205.888056	35.093007
3207.025545	34.869231
3208.161385	30.974825
3209.298542	32.113986
3210.431086	27.606993
3211.567911	30.839860
3212.700125	29.348951
3213.833657	29.197203
3214.967023	27.243357
3216.097262	27.744056
3217.230300	30.541958
3218.360210	33.581818
3219.491438	32.273427
3220.619540	36.365734
3221.750440	36.332168
3222.879695	35.920979
3224.007307	35.293706
3225.131796	37.418182
3226.260561	35.676224
3227.386204	32.913986
3228.511684	31.088811
3229.635523	31.732867
3230.762157	31.703497
3231.884192	30.170629
3233.007544	29.218881
3234.130734	29.809091
3235.253762	24.174825
3236.375150	23.639161
3237.496377	25.217483
3238.615965	24.890210
3239.735392	21.930070
3240.853182	23.239161
3241.973763	27.358042
3243.091231	28.246853
3244.208538	30.474126
3245.325684	31.344755
3246.441195	32.158042
3247.558021	31.576923
3248.671736	30.434965
3249.788242	31.423776
3250.903112	32.165734
3252.014874	30.704895
3253.126477	31.623776
3254.239395	35.197203
3255.352153	33.215385
3256.461805	29.429371
3257.572772	30.426573
3258.683580	28.100699
3259.792756	24.729371
3260.900301	24.241958
3262.009161	27.508392
3263.117862	26.727273
3264.223461	28.252448
3265.330375	33.527273
3266.435659	38.959441
3267.542257	40.693706
3268.645755	38.838462
3269.750567	39.710490
3270.855222	39.127273
3271.956779	32.053147
3273.058179	24.868531
3274.160893	24.526573
3275.263450	22.624476
3276.362912	24.230070
3277.465156	26.168531
3278.564306	29.927273
3279.661830	29.150350
3280.759200	32.097203
3281.859351	34.245455
3282.956409	33.744755
3284.053313	31.511888
3285.150061	30.788112
3286.242250	28.586014
3287.338689	30.468531
3288.433505	30.699301
3289.528166	34.909091
3290.621206	34.915385
3291.714092	34.314685
3292.805357	35.355245
3293.897935	36.844056
3294.988893	35.690210
3296.078231	30.332867
3297.167416	24.846853
3298.257913	25.910490
3299.345326	24.539860
3300.432587	27.229371
3301.521160	27.876224
3302.609580	29.120280
3303.693453	30.916783
3304.781568	31.832867
3305.866602	37.113287
3306.950020	35.916783
3308.034750	35.262937
3309.117864	29.701399
3310.202290	24.823776
3311.283638	24.051049
3312.366298	24.174825
3313.447344	25.501399
3314.528239	24.537063
3315.607521	23.530769
3316.686652	25.351748
3317.767095	26.101399
3318.844463	27.577622
3319.923143	28.673427
3321.000211	32.557343
3322.077129	32.109091
3323.152437	33.989510
3324.227595	32.620979
3325.304064	37.454545
3326.377462	37.706993
3327.450712	36.495105
3328.525273	34.884615
3329.598224	34.399301
3330.669568	33.747552
3331.742222	33.046154
3332.811809	34.700699
3333.882707	35.295105
3334.951998	33.685315
3336.022600	31.432168
3337.091595	30.078322
3338.158985	31.544056
3339.224768	29.285315
3340.294778	25.504196
3341.361725	20.993007
3342.425610	22.668531
3343.492263	25.989510
3344.557312	26.423077
3345.620757	25.768531
3346.684055	24.983916
3347.747208	26.816783
3348.810214	25.315385
3349.873073	28.376923
3350.934331	31.098601
3351.992532	28.931469
3353.054954	25.273427
3354.114319	23.005594
3355.173540	26.567832
3356.234069	28.240559
3357.290089	25.060140
3358.348874	26.761538
3359.403151	25.816084
3360.460192	27.990909
3361.515634	28.957343
3362.572385	34.486014
3363.627539	36.609790
3364.681095	33.547552
3365.733054	28.455245
3366.787776	26.593706
3367.839448	27.560839
3368.890976	27.924476
3369.943814	26.665035
3370.993604	26.820979
3372.044703	24.272028
3373.092755	26.834266
3374.143568	29.577622
3375.191335	34.965035
3376.238960	34.283217
3377.286443	33.441958
3378.332332	30.700000
3379.379531	30.180420
3380.423686	28.484615
3381.470600	29.749650
3382.515923	29.979021
3383.558204	26.130070
3384.600344	25.452448
3385.643793	29.487413
3386.687100	31.234965
3387.728817	32.365734
3388.770394	26.547552
3389.811829	27.932867
3390.851676	24.439161
3391.889934	20.766434
3392.929500	20.129371
3393.968926	25.600699
3395.006764	25.643357
3396.043015	24.820280
3397.079126	26.465035
3398.116545	30.443357
3399.150931	29.074825
3400.186625	26.469231
3401.222179	23.125874
3402.254701	24.861538
3403.289977	22.503497
3404.322222	22.290909
3405.354329	27.129371
3406.384853	31.925874
3407.416683	30.030769
3408.448375	30.234965
3409.477039	32.757343
3410.505566	32.823077
3411.535399	31.800699
3412.565095	32.432867
3413.591765	32.089510
3414.619741	28.774825
3415.644693	26.489510
3416.672396	26.023776
3417.697074	27.543357
3418.723059	26.624476
3419.747465	23.999301
3420.771733	24.263636
3421.794424	25.140559
3422.816978	24.094406
3423.840838	22.284615
3424.861678	22.710490
3425.882382	20.478222
3426.904392	18.512088
3427.923384	17.230270
3428.942241	17.050949
3429.962404	18.392308
3430.979549	21.672527
