-118.277064	2.136264
-115.607463	8.052747
-112.940798	11.786513
-110.274885	13.659940
-107.611905	13.995405
-104.947494	13.115285
-102.286014	11.341958
-99.623105	8.588811
-96.965303	9.602797
-94.306070	3.590909
-91.647586	2.166434
-88.992027	3.072727
-86.335039	1.767133
-83.683148	4.416084
-81.029828	5.720280
-78.379427	4.177622
-75.727598	5.226573
-73.080859	6.211189
-70.432690	3.782517
-67.785265	2.151049
-65.140753	5.825175
-62.494812	5.502797
-59.853954	7.762937
-57.211665	8.269231
-54.572286	6.837762
-51.931478	11.365734
-49.291409	10.077622
-46.656414	6.767133
-44.019989	6.110490
-41.386468	4.337762
-38.751517	1.339161
-36.121633	0.816084
-33.488155	2.007692
-30.859740	0.582517
-28.232059	-0.960140
-25.602950	-3.784615
-22.978897	-22.204895
-20.351254	-89.834965
-17.728666	-185.535664
-15.106808	-126.269231
-12.485681	289.629371
-9.865285	864.007692
-7.247776	1325.536364
-4.628839	1639.775524
-2.012788	1797.837762
0.602536	1802.524476
3.217131	1655.609790
5.828845	1363.460839
8.441986	931.336364
11.050095	404.986014
13.661784	-62.060140
16.268443	-251.901399
18.876530	-135.656643
21.483893	-7.867133
24.086231	6.793706
26.692147	7.838462
29.293042	4.017483
31.895364	2.948252
34.492668	0.665035
37.093548	1.381818
39.689414	1.630070
42.286707	3.125175
44.883281	2.376923
47.474846	1.937063
50.067839	0.916783
52.657972	2.485315
55.249531	4.061538
57.838231	5.282517
60.428359	3.812587
63.013487	5.050350
65.600043	5.288112
68.185884	5.203497
70.768872	4.948252
73.353287	6.155944
75.930572	3.934266
78.511424	1.918182
81.089427	2.978322
83.666720	3.825874
86.245440	4.661538
88.819177	5.206993
91.394341	3.339161
93.966662	4.965035
96.538276	5.353846
99.107049	5.371329
101.677249	4.292308
104.244610	5.819580
106.813398	5.460839
109.379349	5.176224
111.942464	3.403497
114.509137	4.632168
117.066587	7.842657
119.629723	14.048252
122.187900	15.722378
124.749631	21.878322
127.306405	32.813287
129.864605	49.253147
132.417853	74.033566
134.970402	107.353846
137.526503	137.680420
140.077655	171.738462
142.628110	204.064336
145.177867	237.812587
147.724805	264.165734
150.271048	283.848252
152.818716	292.926573
155.365688	297.985315
157.907724	298.821678
160.449068	297.858042
162.989718	296.800699
165.531793	292.344755
168.071058	286.735664
170.607513	289.218182
173.143278	289.802797
175.680468	287.313986
178.216967	286.875524
180.750660	285.194406
183.281549	285.834266
185.811750	287.904895
188.343376	286.235664
190.872202	284.907692
193.398228	281.818182
195.923568	278.390909
198.450333	278.785315
200.974302	283.006993
203.497585	280.787413
206.020184	275.457343
208.539990	276.051748
211.059113	275.228671
213.577553	279.869231
216.097418	284.713986
218.610280	282.244056
221.126674	280.506993
223.642387	280.457343
226.153209	282.892308
228.665456	286.643357
231.174920	289.951049
233.683706	288.870629
236.191814	286.644056
238.701346	289.060839
241.205997	291.343357
243.709972	294.811189
246.215371	294.907692
248.715895	290.687413
251.219942	290.969930
253.717019	293.009790
256.217618	297.213287
258.715446	298.289510
261.212601	299.441958
263.709084	300.097203
266.200703	299.897902
268.695841	301.011189
271.188214	303.472727
273.679916	303.543357
276.168855	303.297203
278.659217	304.472727
281.146818	308.170629
283.631659	309.099301
286.120014	308.630070
288.601431	310.025175
291.086361	309.857343
293.566445	308.781818
296.050042	311.141958
298.528797	311.320280
301.008974	313.993007
303.486400	314.955944
305.963162	321.969231
308.439260	331.231469
310.912610	351.881818
313.385299	372.088112
315.857326	392.642657
318.328691	407.997902
320.797313	411.358741
323.265275	413.251049
325.734660	409.251748
328.199222	392.172028
330.667287	376.634965
333.130533	360.912587
335.593122	347.935664
338.055053	338.427972
340.516328	341.229371
342.974869	340.946154
345.434832	344.572727
347.892063	341.661538
350.348639	343.047552
352.804560	348.323776
355.257753	347.300000
357.712368	343.347552
360.162181	346.318182
362.615490	348.867133
365.064000	347.304196
367.511860	344.181119
369.961141	339.845455
372.405629	335.789510
374.851539	336.469930
377.296800	333.104196
379.739342	336.597203
382.181236	333.572028
384.622482	331.706294
387.061013	329.969231
389.500966	332.423077
391.938205	336.160140
394.372732	337.176224
396.810747	337.173427
399.243985	340.065734
401.678645	346.479021
404.108532	351.539860
406.541904	351.424476
408.970506	354.121678
411.398466	349.555245
413.827847	346.161538
416.252464	341.464336
418.678501	339.074825
421.103899	337.053846
423.528656	335.130070
425.948654	333.960140
428.370074	335.562238
430.788797	336.743357
433.208941	338.406993
435.626390	338.530769
438.045259	345.278322
440.461435	345.326573
442.872864	345.765035
445.287769	345.081119
447.699984	347.176923
450.111565	347.142657
452.522513	346.100699
454.930773	342.195804
457.338402	339.230070
459.745398	339.372028
462.151762	337.230769
464.555445	332.286014
466.958497	332.150350
469.360919	328.479021
471.762711	327.324476
474.161825	324.732168
476.562359	327.965734
478.962264	325.797902
481.357447	329.545455
483.756095	332.918881
486.150024	338.739860
488.543327	339.187413
490.936004	332.412587
493.328056	322.601399
495.721527	313.861538
498.110285	301.291608
500.496377	285.455245
502.883889	270.532168
505.270777	261.297203
507.655002	248.987413
510.040646	246.493706
512.423627	239.680420
514.803948	234.789510
517.185688	228.606294
519.564770	222.514685
521.945269	218.020979
524.323111	213.264336
526.698298	206.383916
529.072867	202.771329
531.448855	197.858741
533.822189	198.709091
536.196942	194.636364
538.567008	194.751049
540.936459	193.006294
543.307329	191.781119
545.673517	191.258042
548.041124	190.095804
550.406085	192.338462
552.770434	192.661538
555.134169	189.899301
557.499322	188.416084
559.859803	183.723077
562.221701	183.262937
564.580960	181.155944
566.937580	181.965035
569.297646	180.878322
571.651020	176.236364
574.007839	174.753846
576.362023	175.720280
578.715598	171.665734
581.068565	170.048951
583.418901	167.070629
585.770654	165.078322
588.115729	165.296503
590.466269	167.168531
592.810136	169.855944
595.159464	172.570629
597.504143	171.864336
599.846198	171.810490
602.189670	172.411189
604.530519	171.303497
606.870765	165.917483
609.208391	168.937063
611.549452	169.639860
613.885876	167.456643
616.223716	166.309790
618.558938	163.995105
620.891545	161.202098
623.225569	161.072727
625.556978	157.304196
627.887789	154.362937
630.218002	152.540559
632.547618	149.343357
634.872610	146.454545
637.203044	145.628671
639.528856	146.174126
641.852062	143.167133
644.176684	140.884615
646.498700	139.069231
648.820122	139.415385
651.138941	142.995804
653.459176	141.832867
655.778818	143.223077
658.095859	145.276923
660.412309	142.888811
662.726160	143.490909
665.041426	145.271329
667.354096	146.034965
669.668181	144.806294
671.977667	142.327972
674.288567	140.841958
676.596875	139.072028
678.904595	139.548951
681.213730	136.468531
683.518272	139.203497
685.822228	138.864336
688.125597	137.975524
690.430381	138.729371
692.730579	138.948252
695.032192	137.106993
697.333219	135.302797
699.629665	132.365035
701.927525	132.050350
704.224803	130.912587
706.521496	132.586014
708.813614	131.127972
711.109143	132.522378
713.400099	133.535664
715.692469	133.860839
717.982263	134.165035
720.271478	134.358042
722.560113	129.941259
724.846175	128.146154
727.133651	128.505594
729.418557	130.306993
731.702884	131.056643
733.984644	133.348951
736.267817	133.029371
738.550413	133.633566
740.828453	139.490210
743.107907	141.599301
745.386786	142.802098
747.665090	143.761538
749.938843	140.688811
752.214011	142.931469
754.488605	140.526573
756.760640	141.595105
759.034088	140.613986
761.304978	139.320979
763.573312	140.032867
765.843059	139.260839
768.110251	140.395804
770.376873	142.965734
772.642926	143.822378
774.906427	146.236364
777.171340	148.981818
779.435685	152.443357
781.695499	154.948951
783.956727	157.367133
786.217387	155.937063
788.475500	154.755245
790.731070	152.452448
792.990029	143.390210
795.242490	138.809790
797.500318	135.762937
799.753627	127.881818
802.004395	125.309091
804.256576	126.490210
806.506219	128.807692
808.757273	133.357343
811.003816	134.011888
813.251772	135.981119
815.497192	140.047552
817.744025	141.355245
819.990295	138.806294
822.232062	139.766434
824.477211	139.286014
826.715888	137.002797
828.957948	137.933566
831.195509	134.200000
833.434481	132.979021
835.670928	129.624476
837.908785	123.836364
840.144117	122.125175
842.376925	122.034266
844.611145	120.458042
846.842843	117.340559
849.073986	117.944056
851.304574	122.339161
853.534608	123.618881
855.764087	128.392308
857.989086	126.688112
860.217458	130.077622
862.441352	130.248252
864.666656	129.921678
866.887485	131.612587
869.111687	132.578322
871.331415	132.621678
873.552553	131.871329
875.773141	132.678322
877.991220	131.441958
880.210708	129.323077
882.425730	130.276224
884.640204	128.209091
886.854131	128.855245
889.067510	127.675524
891.280343	126.515385
893.492628	124.916084
895.702412	124.255245
897.911650	121.895105
900.120342	119.340559
902.326536	114.108392
904.534139	112.281119
906.739245	115.158042
908.943807	119.267832
911.145874	121.753147
913.349350	127.263636
915.550332	131.626573
917.750772	135.933566
919.952621	139.236364
922.148079	137.933566
924.346895	135.341259
926.541274	133.260140
928.739010	130.323776
930.932310	130.730070
933.127018	127.938462
935.319241	125.630769
937.510926	126.351049
939.702073	129.785315
941.890737	132.972028
944.078864	134.104895
946.264511	133.314685
948.453511	132.861538
950.638086	136.923776
952.822127	140.052448
955.009518	141.693706
957.188606	143.070629
959.371044	146.572028
961.552947	147.551049
963.732377	150.497902
965.909334	151.767133
968.087699	153.510490
970.267470	156.928671
972.440893	161.986014
974.617663	169.753147
976.790025	179.223077
978.963795	181.886014
981.133161	186.301399
983.305871	192.283916
985.476115	194.737762
987.645831	189.064336
989.815018	185.569930
991.979808	177.618881
994.147940	171.324476
996.311676	171.908392
998.476820	173.517483
1000.639504	178.216783
1002.801663	176.976923
1004.961364	180.127972
1007.120542	184.338462
1009.281126	193.326573
1011.439255	198.717483
1013.596860	201.678322
1015.753942	200.151748
1017.910501	196.983916
1020.062680	198.864336
1022.216266	199.678322
1024.369330	197.486713
1026.519945	197.216783
1028.671966	187.807692
1030.819615	190.710490
1032.970594	192.143357
1035.117204	202.282517
1037.263294	208.511888
1039.408866	209.934965
1041.555842	210.372727
1043.696531	212.486014
1045.840548	213.948252
1047.982126	217.402098
1050.123186	217.333566
1052.265651	217.832168
1054.401837	213.540559
1056.541349	212.925175
1058.676505	220.553846
1060.814986	226.663636
1062.949114	228.286014
1065.082728	220.013986
1067.217746	223.406294
1069.348415	219.390210
1071.480490	209.735664
1073.610134	207.674825
1075.739267	200.788811
1077.867889	189.058042
1079.995999	188.601399
1082.121683	188.924476
1084.246857	198.058042
1086.373434	198.609091
1088.495675	199.040559
1090.619320	198.037762
1092.738630	206.597203
1094.863169	201.730769
1096.981464	190.961538
1099.101162	186.824476
1101.218442	179.595105
1103.335216	175.785315
1105.451483	181.446853
1107.565335	183.052448
1109.680590	179.430070
1111.791523	179.541958
1113.905768	179.539161
1116.015692	182.721678
1118.127019	179.260839
1120.237843	176.670629
1122.344350	171.827273
1124.454166	168.062937
1126.559668	168.902098
1128.666574	170.940559
1130.767264	169.337762
1132.873165	169.328671
1134.974758	161.909790
1137.077754	169.618182
1139.180249	168.790210
1141.276538	170.844755
1143.378033	168.865734
1145.475226	166.854545
1147.571920	162.435664
1149.668117	160.410490
1151.763815	163.845455
1153.859016	159.737762
1155.951820	158.604895
1158.046026	155.877622
1160.134041	150.893007
1162.227254	153.433566
1164.314279	149.518182
1166.404604	153.144755
1168.490640	153.966434
1170.579974	151.079720
1172.663127	151.665734
1174.747683	159.649650
1176.833639	164.453147
1178.915315	163.192308
1180.998391	163.778322
1183.079082	159.302098
1185.159282	153.246853
1187.238990	150.707692
1189.318207	147.269231
1191.395041	151.070629
1193.469495	148.334266
1195.547241	148.763636
1197.620716	153.062937
1199.695593	162.720979
1201.766202	165.196503
1203.838212	168.183916
1205.907846	171.127972
1207.978881	168.641958
1210.049428	163.214685
1212.115715	159.581119
1214.183401	157.600699
1216.248716	159.661538
1218.315431	155.559441
1220.377890	148.660140
1222.443635	145.662238
1224.505125	144.461538
1226.568015	140.083217
1228.628538	144.113986
1230.688578	146.232867
1232.748134	146.444755
1234.805326	148.334266
1236.862035	150.028671
1238.916382	153.620280
1240.974009	158.945455
1243.029274	158.450350
1245.080298	153.696503
1247.132723	150.509091
1249.184667	146.977622
1251.234253	146.625874
1253.283360	149.338462
1255.331988	148.954545
1257.380138	150.111189
1259.427810	153.874126
1261.471251	152.269930
1263.517967	153.493706
1265.562331	154.188811
1267.606217	152.773427
1269.647753	152.206294
1271.686939	148.090909
1273.729397	148.493007
1275.767634	151.990210
1277.807268	150.412587
1279.846428	152.572028
1281.881370	157.010490
1283.917710	158.997203
1285.951705	163.709790
1287.987099	166.475524
1290.018279	168.755245
1292.050858	170.193706
1294.082964	171.256643
1296.112730	169.830769
1298.143894	171.638462
1300.170850	170.657343
1302.199204	168.706993
1304.223354	170.160140
1306.250769	174.784615
1308.273981	177.661538
1310.298591	186.911189
1312.320866	190.297203
1314.344539	202.246154
1316.365879	211.034266
1318.386752	218.255944
1320.407157	224.563636
1322.423369	234.196503
1324.440978	237.205594
1326.456259	242.974825
1328.474799	245.841259
1330.489149	251.983217
1332.501174	254.598601
1334.516457	260.906993
1336.527554	263.940559
1338.540047	268.290909
1340.548358	268.837063
1342.559925	263.946154
1344.565453	260.875524
1346.574235	259.937063
1348.578841	253.417483
1350.586700	248.172727
1352.594097	240.646154
1354.595462	237.734965
1356.598225	232.609790
1358.600528	230.241259
1360.602370	224.253846
1362.603754	217.620979
1364.602823	211.823077
1366.601434	202.954545
1368.599587	196.693007
1370.597282	192.127972
1372.590813	187.308392
1374.585741	181.424476
1376.580212	179.337762
1378.574226	177.417483
1380.565933	173.904895
1382.557184	172.048252
1384.546130	172.344755
1386.536471	168.719580
1388.526357	162.845455
1390.513940	158.798601
1392.501069	155.339161
1394.485896	155.848951
1396.472118	155.953147
1398.456039	155.406294
1400.439508	158.088112
1402.422525	161.696503
1404.403244	161.565734
1406.385357	163.009091
1408.365173	160.574126
1410.344539	158.108392
1412.319766	154.827972
1414.298231	154.653846
1416.274403	150.490210
1418.250125	150.162937
1420.225398	148.228671
1422.198381	148.702797
1424.170915	150.113287
1426.143001	149.220280
1428.114639	146.645455
1430.082150	145.176224
1432.054734	142.788112
1434.019512	146.972028
1435.989363	146.276224
1437.955089	145.681119
1439.922209	147.481119
1441.887045	148.111189
1443.847761	147.586713
1445.813545	147.360839
1447.773374	149.164336
1449.734596	146.379021
1451.697211	147.335664
1453.655711	145.459441
1455.613769	144.944056
1457.571384	144.733566
1459.528558	140.739161
1461.483456	142.381818
1463.439746	146.421678
1465.393762	142.867832
1467.347338	143.197203
1469.298641	143.228671
1471.251336	143.886014
1473.201760	140.690210
1475.151745	139.579720
1477.101291	138.158042
1479.048567	139.914685
1480.993577	139.437762
1482.939979	141.323776
1484.885943	146.195105
1486.831470	144.886713
1488.774731	142.196503
1490.717556	144.207692
1492.658118	146.643357
1494.600072	147.539161
1496.539763	150.232867
1498.479019	151.009091
1500.417841	152.545455
1502.354403	154.795105
1504.292355	154.158741
1506.228050	151.494406
1508.163311	150.778322
1510.096315	145.555944
1512.028887	139.383916
1513.961027	145.957343
1515.892735	150.120280
1517.822190	154.827273
1519.753034	156.678322
1521.683448	159.509091
1523.609789	160.450350
1525.537520	161.406993
1527.463001	157.000000
1529.388053	154.200699
1531.312676	155.080420
1533.236870	153.252448
1535.158817	150.203497
1537.082153	160.206294
1539.003244	162.824476
1540.922090	169.606993
1542.842326	172.760839
1544.760318	179.407692
1546.677884	182.023077
1548.593209	187.728671
1550.509922	188.139161
1552.422581	189.919580
1554.338444	189.532168
1556.252068	192.044056
1558.163453	195.738462
1560.076227	204.164336
1561.984953	209.679720
1563.895067	217.546154
1565.804758	223.251748
1567.714026	229.978322
1569.621059	232.204895
1571.525860	234.692308
1573.432050	229.580420
1575.336009	222.906294
1577.239546	218.744755
1579.142662	216.155944
1581.043550	214.347552
1582.945826	212.839161
1584.845873	210.195804
1586.747309	210.609091
1588.644710	212.229371
1590.541694	209.676224
1592.438259	208.423077
1594.336211	205.480420
1596.228329	199.923077
1598.123641	197.550350
1600.018534	194.955245
1601.911207	193.115385
1603.803462	193.152448
1605.693498	186.016783
1607.583118	184.572028
1609.472323	182.517483
1611.361112	181.100000
1613.247685	173.955944
1615.135645	171.362238
1617.019588	165.745455
1618.904918	161.039161
1620.789835	159.781818
1622.672538	152.892308
1624.556628	157.332867
1626.436706	154.411189
1628.318171	148.845455
1630.197426	146.481818
1632.078067	141.637762
1633.952905	142.098601
1635.832723	135.454545
1637.708536	133.088112
1639.583940	136.611888
1641.460729	137.882517
1643.331721	137.755245
1645.205896	137.867133
1647.076071	142.567133
1648.949427	138.451748
1650.820580	136.466434
1652.689531	130.138462
1654.559868	124.826573
1656.426211	127.084615
1658.293941	116.707692
1660.159471	115.404196
1662.026386	118.866434
1663.889313	121.174126
1665.753625	121.546154
1667.615742	124.611888
1669.477453	124.162238
1671.340549	125.211189
1673.201451	126.849650
1675.060159	125.088811
1676.918465	117.953846
1678.778154	119.154545
1680.632077	113.088811
1682.489173	119.442657
1684.345865	124.904196
1686.198582	125.269930
1688.054470	126.594406
1689.906384	123.639860
1691.757897	123.034965
1693.609009	126.848951
1695.459720	126.592308
1697.310031	123.407692
1699.158158	116.291608
1701.007668	117.077622
1702.851430	114.894406
1704.700142	115.186014
1706.543107	110.128671
1708.389238	104.795105
1710.231408	104.090909
1712.076742	100.283916
1713.916336	106.221678
1715.757314	109.083916
1717.599676	111.209091
1719.438080	118.137762
1721.277868	117.293007
1723.115481	118.969231
1724.952698	110.561538
1726.787742	102.679720
1728.624169	97.255944
1730.458424	102.923776
1732.292285	101.094406
1734.125751	102.740559
1735.955271	105.711189
1737.787950	106.952448
1739.616685	110.493706
1741.448578	115.318182
1743.276528	117.288811
1745.104086	118.858741
1746.931253	114.352448
1748.758028	117.339161
1750.584411	120.253846
1752.406858	129.018881
1754.232459	126.069231
1756.054126	126.509790
1757.877175	123.057343
1759.698063	121.281818
1761.518561	110.268531
1763.340441	109.089510
1765.156621	105.313986
1766.975953	102.260140
1768.791358	101.604895
1770.609914	106.582517
1772.424544	108.365035
1774.238787	117.068531
1776.052644	119.297203
1777.866114	119.608392
1779.677430	121.011189
1781.490128	116.319580
1783.302439	111.767832
1785.110833	115.557343
1786.920608	106.837762
1788.726467	105.167133
1790.535473	105.069930
1792.340565	106.558042
1794.147037	109.260839
1795.953126	116.783916
1797.755305	115.706294
1799.560627	116.672028
1801.362041	116.341259
1803.164835	107.425874
1804.963724	105.918182
1806.763992	102.009091
1808.563880	96.502098
1810.361625	97.967133
1812.158990	99.989510
1813.955974	103.636364
1815.752578	108.736364
1817.547043	115.125175
1819.342888	114.920979
1821.133077	117.677622
1822.928163	112.820280
1824.717596	107.208392
1826.510167	103.953846
1828.300602	100.634965
1830.088902	97.594406
1831.880338	99.860839
1833.666129	103.627273
1835.453298	106.226573
1837.238337	105.962937
1839.026508	106.441259
1840.810794	105.949650
1842.592951	106.862937
1844.376487	108.595105
1846.157894	111.148252
1847.940679	112.113287
1849.719585	108.230070
1851.499869	108.469231
1853.278028	113.220280
1855.057564	110.974126
1856.834976	108.659441
1858.610264	107.474126
1860.386931	107.077622
1862.161475	105.287413
1863.937396	105.213986
1865.707698	111.079720
1867.481127	107.753846
1869.252436	108.656643
1871.023374	109.251748
1872.795689	113.450350
1874.562392	114.646853
1876.332219	113.638462
1878.098183	115.013287
1879.867271	114.123776
1881.632497	112.355245
1883.397355	108.505594
1885.163589	108.302797
1886.925965	108.582517
1888.687974	100.562937
1890.449616	99.075524
1892.210890	103.854545
1893.971798	105.416084
1895.732338	109.494406
1897.490770	110.832168
1899.248835	111.385315
1901.004793	107.761538
1902.762127	106.560140
1904.519095	105.858741
1906.273958	106.338462
1908.026715	109.552448
1909.779109	109.490210
1911.532879	112.336364
1913.284545	118.175524
1915.034108	117.227972
1916.785048	121.805594
1918.535624	117.550350
1920.282362	114.246154
1922.030475	109.434266
1923.776489	108.432867
1925.523879	107.398601
1927.269170	110.976923
1929.012364	114.683916
1930.756934	115.576224
1932.499407	114.122378
1934.241520	110.388811
1935.983274	106.903497
1937.724667	106.119580
1939.463967	101.195804
1941.202908	101.166434
1942.941490	102.014685
1944.677980	108.488112
1946.414113	113.487413
1948.151620	117.941259
1949.885306	117.014685
1951.620366	118.276923
1953.353337	116.771329
1955.085952	115.583217
1956.818210	111.117483
1958.550112	108.014685
1960.279928	106.451748
1962.007660	103.495804
1963.736766	102.058042
1965.465516	105.639860
1967.192183	109.355245
1968.918496	105.235664
1970.646182	106.603497
1972.368333	107.831469
1974.093584	108.532867
1975.815028	111.339161
1977.539572	109.502098
1979.262037	112.446154
1980.980698	112.018182
1982.702458	113.198601
1984.420416	114.958741
1986.139748	118.779720
1987.855279	122.441259
1989.575632	119.411888
1991.292186	121.035664
1993.004943	119.476224
1994.720796	121.906294
1996.434577	122.237762
1998.148008	120.171329
1999.859367	116.845455
2001.572100	114.113986
2003.281041	119.222378
2004.993076	122.685315
2006.699601	121.853846
2008.409219	118.603497
2010.116769	117.600000
2011.823972	113.555245
2013.529109	110.776923
2015.233899	111.613986
2016.940061	106.051049
2018.642441	106.026573
2020.346193	101.997902
2022.047882	106.643357
2023.749225	112.718881
2025.450223	118.627972
2027.149161	120.877622
2028.849470	123.434266
2030.546003	126.960140
2032.243908	121.923077
2033.939755	118.057343
2035.638687	116.635664
2037.332133	112.130070
2039.026950	111.311888
2040.721424	107.829371
2042.412130	109.057343
2044.105920	107.025874
2045.795943	110.793007
2047.487337	113.125175
2049.176678	115.879720
2050.867389	115.739161
2052.554338	110.996503
2054.240946	112.469930
2055.928925	113.748252
2057.613144	114.612587
2059.298733	115.405594
2060.983983	116.844056
2062.667185	117.861538
2064.351757	119.776224
2066.030865	122.206993
2067.714759	122.906294
2069.393193	119.946853
2071.074704	116.349650
2072.752463	114.828671
2074.429886	118.920979
2076.108678	121.374126
2077.785427	119.938462
2079.460135	120.873427
2081.136212	120.048951
2082.810249	118.418881
2084.483950	119.619580
2086.157316	113.412587
2087.828644	110.285315
2089.499637	105.852448
2091.170296	109.383916
2092.840621	111.858741
2094.510611	114.664336
2096.178566	115.439860
2097.846188	114.271329
2099.511776	111.712587
2101.178732	108.079021
2102.843655	108.338462
2104.508245	107.886014
2106.170804	104.448252
2107.834732	108.091608
2109.496628	111.482517
2111.158193	114.951049
2112.819428	115.923077
2114.478633	117.195804
2116.137509	116.872028
2117.796054	116.353846
2119.454270	113.544056
2121.108763	116.718881
2122.766320	118.832867
2124.423547	117.408392
2126.077054	114.972028
2127.731928	117.359441
2129.383083	114.937762
2131.037301	114.176224
2132.687801	115.347552
2134.339669	112.849650
2135.986128	112.102098
2137.637341	115.003497
2139.284842	116.388112
2140.933709	121.602098
2142.580557	120.520979
2144.227080	122.373427
2145.873277	119.227972
2147.515765	120.990210
2149.161312	118.015385
2150.803152	117.267832
2152.448049	115.476923
2154.089241	113.655245
2155.730109	114.985315
2157.370654	113.888112
2159.009186	111.774825
2160.649084	114.497203
2162.285282	115.055245
2163.922846	117.930070
2165.560088	116.879720
2167.195320	118.996503
2168.830230	116.212587
2170.464819	116.287413
2172.099087	116.568531
2173.729661	114.181119
2175.363286	109.813287
2176.993220	110.163636
2178.624520	108.367133
2180.253814	110.483916
2181.882789	113.302098
2183.511444	115.352448
2185.139780	116.182517
2186.766113	114.439161
2188.392128	109.072028
2190.016142	110.910490
2191.641521	107.365734
2193.264899	100.527972
2194.889642	101.184615
2196.510703	103.371329
2198.131449	100.190210
2199.753558	104.080420
2201.373670	104.806993
2202.991786	106.153147
2204.609586	102.831469
2206.227070	99.206993
2207.844239	100.171329
2209.461093	105.534266
2211.077632	105.325175
2212.692177	104.952448
2214.304731	105.648252
2215.918648	104.769231
2217.530573	100.915385
2219.143863	103.900699
2220.755161	104.662937
2222.364471	102.618881
2223.975143	100.260140
2225.583827	99.646154
2227.192199	102.800000
2228.798583	106.245455
2230.406331	111.231469
2232.012092	110.926573
2233.617543	107.904895
2235.221008	108.366434
2236.825836	106.886713
2238.428680	110.763636
2240.029541	110.887413
2241.631765	110.511189
2243.232007	114.381119
2244.833611	113.391608
2246.431562	113.723077
2248.030876	115.825175
2249.628210	117.469930
2251.225236	111.379021
2252.823623	110.429371
2254.418362	113.297902
2256.011125	114.049650
2257.605249	112.506993
2259.200736	113.052448
2260.792577	115.894406
2262.384112	117.702098
2263.977008	118.798601
2265.564595	118.516084
2267.156879	117.088112
2268.743855	112.963636
2270.333860	109.360839
2271.918560	111.815385
2273.507954	111.046853
2275.092045	113.662937
2276.677498	112.896503
2278.260982	113.946853
2279.847491	117.502098
2281.430367	116.995804
2283.012939	118.024825
2284.595209	115.786713
2286.173848	109.238112
2287.755512	106.954545
2289.333547	104.797552
2290.914605	104.468531
2292.492036	97.830420
2294.067504	97.906294
2295.645994	98.123427
2297.220859	102.676923
2298.795425	104.357692
2300.369689	103.794406
2301.943653	106.775175
2303.517317	104.793706
2305.090680	101.334965
2306.660425	101.913986
2308.229871	101.753846
2309.802336	100.898601
2311.369526	99.722378
2312.939733	104.788811
2314.506327	111.399301
2316.074279	114.199301
2317.640277	116.174126
2319.205977	121.462937
2320.771379	126.594406
2322.334828	128.471329
2323.899636	126.281818
2325.460835	127.467133
2327.025049	131.155245
2328.584002	131.626573
2330.145968	134.553846
2331.705984	130.934965
2333.265704	122.355944
2334.823475	115.004196
2336.380952	110.763636
2337.938133	106.013986
2339.493368	104.247552
2341.048308	99.529371
2342.602955	98.054545
2344.157308	100.186713
2345.711367	100.827273
2347.265133	97.651049
2348.816954	98.863636
2350.366832	99.860839
2351.919718	101.339860
2353.467362	103.752448
2355.018013	104.096503
2356.565074	101.779021
2358.113492	101.625175
2359.661618	100.169930
2361.206157	105.736364
2362.752053	104.601399
2364.296010	102.554545
2365.841325	97.602797
2367.383055	101.409790
2368.926143	108.039860
2370.467294	111.104895
2372.008156	108.141259
2373.548729	110.922378
2375.089013	106.102098
2376.629008	104.597902
2378.165424	107.095105
2379.704842	109.744755
2381.240683	105.983217
2382.777880	108.824476
2384.311503	101.093007
2385.848125	100.549650
2387.382817	102.986014
2388.915578	100.006993
2390.448054	102.118182
2391.978601	107.011888
2393.512146	103.869930
2395.040480	103.162238
2396.570170	102.140559
2398.099575	102.207692
2399.628695	98.827972
2401.157529	100.035664
2402.681159	93.686014
2404.209424	100.165734
2405.732486	104.751748
2407.260183	110.378322
2408.781039	118.046853
2410.306529	123.316084
2411.828459	125.481119
2413.351743	124.240559
2414.873107	120.560839
2416.392551	117.246154
2417.913350	110.578322
2419.432230	106.848252
2420.950828	101.623776
2422.467509	100.753846
2423.985545	98.591608
2425.503299	98.237762
2427.017501	98.887413
2428.531423	103.194406
2430.045066	102.937762
2431.560062	106.148252
2433.071511	106.318182
2434.584313	109.132168
2436.095203	111.023077
2437.605813	110.497902
2439.114512	106.748951
2440.626198	104.846853
2442.134340	103.621678
2443.642203	102.577622
2445.149789	101.151049
2446.653835	102.695105
2448.160865	104.793706
2449.665987	106.139161
2451.170832	105.874126
2452.673770	107.690909
2454.176431	105.683217
2455.678816	107.325874
2457.179296	109.125874
2458.681129	109.837063
2460.181058	112.517483
2461.680711	114.118182
2463.180089	114.163636
2464.677564	115.044755
2466.173137	113.699301
2467.671690	105.902797
2469.166715	99.704895
2470.663092	93.860140
2472.155943	91.126573
2473.650146	92.565734
2475.144077	92.026573
2476.634483	95.116084
2478.127867	98.981818
2479.619353	102.613986
2481.108942	104.223776
2482.598259	105.053147
2484.085680	104.023077
2485.576077	102.163636
2487.062955	97.441259
2488.551186	94.842657
2490.035899	92.490210
2491.520342	90.946154
2493.006137	93.900000
2494.490039	100.629371
2495.975293	98.071329
2497.455413	99.455245
2498.938505	100.113287
2500.419708	101.341259
2501.900640	100.890210
2503.379684	104.793706
2504.858460	105.967133
2506.336967	105.275524
2507.815205	106.320979
2509.293176	109.668531
2510.767641	115.769231
2512.245075	115.670629
2513.719006	110.746154
2515.194288	111.550350
2516.669302	111.974825
2518.140815	114.255245
2519.613679	113.446154
2521.084660	115.494406
2522.556991	109.988811
2524.024208	107.027273
2525.494392	104.818881
2526.962694	102.471329
2528.430732	100.341259
2529.898505	92.926573
2531.366013	95.404895
2532.833257	99.118182
2534.297008	104.298601
2535.762109	107.353846
2537.225333	106.983217
2538.689906	107.366434
2540.150991	101.948951
2541.613425	104.262937
2543.075596	105.590909
2544.534280	105.406294
2545.997537	101.060140
2547.455697	98.583217
2548.915206	100.566434
2550.369622	100.988112
2551.828608	98.993007
2553.285721	97.707692
2554.740964	98.823776
2556.195946	95.311888
2557.649058	94.200699
2559.103519	99.253846
2560.556111	102.172028
2562.008443	104.658042
2563.458907	105.489510
2564.912327	111.230769
2566.360665	108.838462
2567.811959	104.524476
2569.261386	107.773427
2570.707342	107.109091
2572.156252	105.197203
2573.601691	98.469231
2575.048479	99.956643
2576.493403	100.621678
2577.938070	100.529371
2579.384084	106.618182
2580.826631	109.469930
2582.270526	116.188811
2583.710956	118.079021
2585.152734	115.648252
2586.592652	119.538462
2588.033917	120.789510
2589.471720	120.004196
2590.912473	112.379021
2592.348163	111.376923
2593.786803	111.694406
2595.223586	110.205594
2596.658512	108.599301
2598.096387	104.409091
2599.529204	102.997902
2600.963368	99.519580
2602.395677	93.650350
2603.829334	94.670629
2605.261136	101.044755
2606.692686	101.072028
2608.123982	101.261538
2609.553427	104.286014
2610.982619	114.516783
2612.409960	117.155245
2613.838648	122.317483
2615.267083	122.833566
2616.692072	125.233566
2618.118406	125.656643
2619.542892	123.084615
2620.968724	123.937063
2622.391112	124.939161
2623.814846	122.688811
2625.236734	119.015385
2626.658371	113.154545
2628.078164	116.944755
2629.499301	115.113986
2630.920189	120.612587
2632.337639	120.593706
2633.758028	122.658741
2635.174980	120.604895
2636.591684	119.897902
2638.008139	122.658741
2639.424346	122.686713
2640.840304	121.467133
2642.254422	120.856643
2643.668293	120.101399
2645.080324	122.015385
2646.493700	119.022378
2647.903646	119.943357
2649.316528	115.834965
2650.725981	117.447552
2652.135188	114.596503
2653.542559	115.666434
2654.952864	114.382517
2656.361333	114.592308
2657.767967	119.830070
2659.174356	128.000699
2660.578911	135.041958
2661.984810	134.001399
2663.388876	133.009091
2664.792698	133.241958
2666.196275	132.720280
2667.598021	130.695105
2669.001110	124.316783
2670.400781	118.075524
2671.801796	113.133566
2673.199395	111.932867
2674.599923	115.800000
2675.997037	118.418881
2677.395494	118.664336
2678.792123	118.700000
2680.188511	126.565734
2681.584656	129.010490
2682.978975	133.427273
2684.374637	137.204196
2685.766889	137.334266
2687.160485	133.866434
2688.552256	133.802098
2689.945369	132.737762
2691.336659	128.165035
2692.726126	120.518881
2694.115354	118.312587
2695.504341	120.901399
2696.894671	122.383916
2698.280016	120.032168
2699.668286	122.381818
2701.054735	121.462238
2702.440945	121.707692
2703.826916	119.544056
2705.209489	123.316783
2706.593404	121.424476
2707.977080	116.023077
2709.360519	113.874126
2710.740562	114.179720
2712.121947	113.641958
2713.501516	109.319580
2714.882427	109.703497
2716.261523	107.959441
2717.638805	106.950350
2719.017428	105.739860
2720.394237	104.311888
2721.770811	107.040559
2723.147149	104.469930
2724.521675	100.772727
2725.897542	98.714685
2727.270022	94.720280
2728.645419	94.195804
2730.015854	99.099301
2731.387631	105.519580
2732.759174	108.967133
2734.128908	112.424476
2735.499982	114.778322
2736.869249	116.444755
2738.238282	114.416783
2739.605508	114.749650
2740.972502	111.582517
2742.339263	108.520280
2743.705791	105.539860
2745.070515	103.262937
2746.435006	107.491608
2747.799265	109.185315
2749.163293	109.929371
2750.527088	106.865035
2751.887510	106.834965
2753.250843	101.197902
2754.609233	95.615385
2755.970533	96.992308
2757.328462	98.003497
2758.689301	98.795804
2760.048339	99.617483
2761.404009	100.304895
2762.762588	108.086713
2764.117799	116.264336
2765.472781	117.273427
2766.825966	114.209790
2768.182058	115.755245
2769.534786	112.338462
2770.887285	110.232168
2772.239557	109.659441
2773.593166	108.403497
2774.943414	102.784615
2776.291869	99.358042
2777.643228	99.363636
2778.991228	102.100699
2780.340567	102.950350
2781.688113	102.696503
2783.035432	100.540559
2784.382525	104.848951
2785.727827	104.493706
2787.072903	106.231469
2788.417753	105.818881
2789.762377	107.000699
2791.103648	105.735664
2792.446258	104.757343
2793.788643	102.944056
2795.130802	103.380420
2796.469612	97.958741
2797.811322	98.855245
2799.149683	97.430769
2800.489382	97.108392
2801.827295	93.555245
2803.163424	90.951049
2804.499330	92.767133
2805.836572	94.037762
2807.172031	96.510490
2808.507267	90.479021
2809.840721	89.472727
2811.175511	92.070629
2812.506960	89.130070
2813.841305	88.784615
2815.170752	89.790909
2816.501536	88.734965
2817.832098	86.190210
2819.160881	83.269930
2820.491001	87.153846
2821.819341	85.909790
2823.147461	92.186014
2824.473804	89.789510
2825.801482	97.799301
2827.125828	100.141259
2828.451510	96.578322
2829.775416	97.336364
2831.099102	97.604196
2832.424124	94.802098
2833.745817	91.476224
2835.067290	90.341958
2836.388545	93.148951
2837.709581	93.856643
2839.028845	98.418881
2840.349444	95.934266
2841.668271	99.669930
2842.986880	96.529371
2844.303719	94.277622
2845.620340	99.675524
2846.936743	95.637063
2848.251378	97.036364
2849.567347	94.116084
2850.879997	96.716084
2852.193981	101.821678
2853.507749	107.356643
2854.821300	107.193706
2856.133084	108.251049
2857.443103	107.313986
2858.754456	104.579720
2860.062493	103.333566
2861.371866	100.539161
2862.681023	94.174126
2863.989965	95.800000
2865.297144	91.722378
2866.602559	96.867832
2867.909309	101.360140
2869.214297	102.279720
2870.519070	105.503497
2871.822083	102.813287
2873.127976	98.018182
2874.429015	95.115385
2875.731387	94.274825
2877.032000	91.258741
2878.333947	89.693007
2879.635681	97.574825
2880.934111	98.748252
2882.233874	99.746154
2883.531880	97.462937
2884.829674	94.568531
2886.125711	93.239161
2887.423082	87.603497
2888.718697	88.550350
2890.014102	89.189510
2891.309295	95.846853
2892.601190	97.983217
2893.895962	104.315385
2895.187438	112.974126
2896.480246	112.935664
2897.772844	109.075524
2899.062147	107.516084
2900.352783	101.171329
2901.641669	96.074825
2902.931886	93.893706
2904.218812	88.967133
2905.507070	89.277622
2906.793579	87.688811
2908.079879	86.920280
2909.365971	89.490210
2910.650315	88.683217
2911.937531	86.392308
2913.219920	88.358042
2914.503641	91.751049
2915.785615	92.243357
2917.067383	96.641259
2918.347405	94.967832
2919.630297	94.059441
2920.911444	97.770629
2922.189309	96.879021
2923.470043	98.602098
2924.747496	95.300000
2926.024744	90.254545
2927.300249	86.496503
2928.578622	85.843357
2929.852181	84.798601
2931.128606	85.072028
2932.403291	84.904196
2933.676236	81.906993
2934.950511	79.952448
2936.223047	82.102098
2937.495379	84.732168
2938.764438	84.553147
2940.036362	82.661538
2941.306548	83.588811
2942.576530	83.067133
2943.846309	81.911888
2945.114351	85.889510
2946.380658	86.227273
2947.646762	89.409790
2948.914197	87.641958
2950.179896	85.953846
2951.445393	85.883217
2952.710689	84.981818
2953.972719	84.818182
2955.236079	85.858741
2956.499238	83.939860
2957.760664	81.288811
2959.023420	80.555245
2960.284445	85.513287
2961.543739	82.967832
2962.802832	88.590210
2964.061725	89.600000
2965.320418	92.676224
2966.578911	93.967832
2967.835675	96.488811
2969.092240	99.911888
2970.347076	101.250350
2971.603242	97.736364
2972.856152	96.081818
2974.110392	93.008392
2975.364433	91.300000
2976.616748	86.862238
2977.868865	92.541259
2979.119257	91.268531
2980.372504	96.392308
2981.620974	97.259441
2982.872298	97.897902
2984.120374	99.080420
2985.368252	99.609790
2986.615933	93.132168
2987.863418	84.322378
2989.109181	78.706294
2990.354747	72.775524
2991.601642	72.676224
2992.845291	75.359441
2994.090269	76.666434
2995.332004	84.618182
2996.576590	84.339860
2997.819457	87.495804
2999.059082	86.690210
3000.301559	83.902098
3001.540795	85.218881
3002.781359	84.628671
3004.020206	84.169930
3005.258859	84.256643
3006.495796	85.194406
3007.734061	85.693007
3008.970610	86.795804
3010.206966	85.663636
3011.443128	82.199301
3012.677576	79.034965
3013.911831	71.076923
3015.145893	72.839860
3016.378243	77.911189
3017.608881	76.891608
3018.842365	73.933566
3020.074138	75.192308
3021.304199	76.181119
3022.534069	77.386014
3023.762229	78.396503
3024.991716	81.469231
3026.219493	84.086713
3027.447079	84.863636
3028.675991	86.225874
3029.900161	91.983916
3031.127174	92.516084
3032.350964	89.007692
3033.576079	82.036364
3034.799488	79.611888
3036.022708	75.153846
3037.244222	69.927273
3038.468577	69.318182
3039.688197	71.972727
3040.909143	70.201399
3042.129899	72.599301
3043.348952	76.584615
3044.569331	80.146853
3045.786493	80.856643
3047.004980	79.287413
3048.221766	78.024476
3049.438363	79.837762
3050.654773	78.627273
3051.867969	76.004895
3053.084003	72.934965
3054.296825	73.132168
3055.512484	71.676224
3056.723420	74.892308
3057.935682	72.749650
3059.147756	71.221678
3060.359644	71.377622
3061.569834	72.479720
3062.779839	74.394406
3063.989657	77.809091
3065.197779	77.242657
3066.405715	78.265734
3067.611957	72.400699
3068.819523	72.916783
3070.025394	66.830769
3071.231080	65.195105
3072.436582	61.920979
3073.640390	64.405594
3074.845522	64.062937
3076.048961	65.517483
3077.250708	67.978322
3078.452272	69.969930
3079.653652	74.661538
3080.854848	82.319580
3082.054354	80.698601
3083.253676	84.370629
3084.454322	82.608392
3085.653279	85.196503
3086.849040	82.985315
3088.047631	81.100000
3089.243028	78.158042
3090.439749	75.485315
3091.633277	75.594406
3092.829633	76.849650
3094.024302	82.753147
3095.215781	85.364336
3096.411591	85.484615
3097.602708	88.435664
3098.795148	88.518182
3099.984399	84.751748
3101.176477	79.804196
3102.366871	75.451748
3103.554078	70.913287
3104.742609	67.756643
3105.932462	72.655245
3107.119130	75.216084
3108.305619	76.701399
3109.491928	74.918182
3110.679560	76.320280
3111.864009	81.681818
3113.046778	85.503497
3114.232371	88.367832
3115.416283	88.425175
3116.598517	85.632168
3117.780573	84.976224
3118.962450	85.911888
3120.144149	84.576224
3121.324171	81.411189
3122.502516	76.634266
3123.683681	71.621678
3124.861671	68.743357
3126.039484	71.508392
3127.217120	72.415385
3128.393081	72.728671
3129.568866	74.384615
3130.745971	74.333566
3131.921403	76.938462
3133.095161	73.219580
3134.267246	74.980420
3135.440652	78.169930
3136.613883	80.208392
3137.785442	77.277622
3138.958321	76.565035
3140.128033	78.800699
3141.299066	78.914685
3142.468428	81.649650
3143.636121	80.709790
3144.806629	77.729371
3145.972478	78.348951
3147.142637	75.067832
3148.308138	77.434965
3149.473466	80.749650
3150.638620	80.402797
3151.803601	79.168531
3152.969901	80.437762
3154.131548	76.910490
3155.294516	76.146853
3156.457311	74.812587
3157.619932	68.277622
3158.780889	67.120979
3159.941674	67.254545
3161.102286	68.401399
3162.261234	66.813287
3163.420010	71.060140
3164.578615	69.200000
3165.737048	76.395804
3166.895309	78.128671
3168.051909	78.351049
3169.206846	79.263636
3170.363104	77.709091
3171.517700	79.983916
3172.672126	82.939161
3173.824891	84.667133
3174.977487	83.180420
3176.129913	80.358042
3177.282168	78.247552
3178.434254	74.588112
3179.583193	75.340559
3180.734939	72.046154
3181.885028	67.663636
3183.033459	63.749650
3184.181722	62.802797
3185.329816	64.309790
3186.477741	64.244755
3187.624010	63.757343
3188.770111	66.526573
3189.914558	71.094406
3191.058836	74.086713
3192.202947	75.927972
3193.348376	75.444056
3194.490666	72.493706
3195.632788	64.796503
3196.774744	63.123077
3197.916532	60.891608
3199.058153	57.995105
3200.196638	58.963636
3201.336442	61.542657
3202.477562	67.704196
3203.615548	69.413986
3204.751885	74.453147
3205.888056	75.572727
3207.025545	79.147552
3208.161385	79.953846
3209.298542	78.792308
3210.431086	78.832867
3211.567911	77.425874
3212.700125	77.272727
3213.833657	75.769930
3214.967023	73.457343
3216.097262	72.846154
3217.230300	69.239860
3218.360210	70.297203
3219.491438	67.357343
3220.619540	69.427273
3221.750440	66.097902
3222.879695	64.520280
3224.007307	60.609091
3225.131796	60.567133
3226.260561	61.130070
3227.386204	63.823077
3228.511684	65.140559
3229.635523	65.311189
3230.762157	67.255245
3231.884192	67.455944
3233.007544	67.347552
3234.130734	70.123776
3235.253762	61.865035
3236.375150	63.376224
3237.496377	57.848951
3238.615965	60.602098
3239.735392	64.268531
3240.853182	68.996503
3241.973763	68.262238
3243.091231	69.320280
3244.208538	72.909091
3245.325684	74.157343
3246.441195	77.875524
3247.558021	76.334266
3248.671736	72.077622
3249.788242	71.651748
3250.903112	68.027273
3252.014874	66.132168
3253.126477	66.662238
3254.239395	62.299301
3255.352153	63.736364
3256.461805	64.366434
3257.572772	65.776923
3258.683580	67.825874
3259.792756	69.657343
3260.900301	67.903497
3262.009161	71.966434
3263.117862	72.381119
3264.223461	71.806294
3265.330375	67.706294
3266.435659	69.719580
3267.542257	69.320979
3268.645755	73.678322
3269.750567	73.700000
3270.855222	76.083217
3271.956779	80.432867
3273.058179	78.831469
3274.160893	72.667832
3275.263450	72.742657
3276.362912	67.939161
3277.465156	63.647552
3278.564306	66.076923
3279.661830	67.837063
3280.759200	71.900699
3281.859351	75.605594
3282.956409	76.322378
3284.053313	78.813287
3285.150061	80.860140
3286.242250	73.914685
3287.338689	70.365035
3288.433505	68.447552
3289.528166	65.862238
3290.621206	69.276224
3291.714092	74.934965
3292.805357	75.505594
3293.897935	81.865035
3294.988893	80.841259
3296.078231	79.904895
3297.167416	78.238462
3298.257913	74.286014
3299.345326	68.081119
3300.432587	67.011888
3301.521160	64.081119
3302.609580	63.031469
3303.693453	63.628671
3304.781568	63.821678
3305.866602	63.333566
3306.950020	65.620280
3308.034750	58.735664
3309.117864	59.883217
3310.202290	57.016783
3311.283638	56.132867
3312.366298	56.217483
3313.447344	60.907692
3314.528239	63.790210
3315.607521	63.429371
3316.686652	64.887413
3317.767095	69.235664
3318.844463	68.817483
3319.923143	64.662937
3321.000211	62.750350
3322.077129	63.484615
3323.152437	61.881818
3324.227595	62.831469
3325.304064	61.639161
3326.377462	63.345455
3327.450712	60.472028
3328.525273	58.766434
3329.598224	56.992308
3330.669568	53.172727
3331.742222	49.693706
3332.811809	48.341958
3333.882707	48.755245
3334.951998	51.470629
3336.022600	52.490210
3337.091595	58.143357
3338.158985	58.418881
3339.224768	60.118881
3340.294778	58.804196
3341.361725	59.570629
3342.425610	56.594406
3343.492263	55.099301
3344.557312	60.418881
3345.620757	62.059441
3346.684055	60.924476
3347.747208	66.902797
3348.810214	66.776224
3349.873073	73.853147
3350.934331	70.927972
3351.992532	69.189510
3353.054954	63.860140
3354.114319	61.105594
3355.173540	58.486014
3356.234069	59.069231
3357.290089	58.255944
3358.348874	56.528671
3359.403151	57.118182
3360.460192	59.746853
3361.515634	60.070629
3362.572385	69.827972
3363.627539	72.411189
3364.681095	75.576224
3365.733054	77.287413
3366.787776	77.839860
3367.839448	77.696503
3368.890976	74.082517
3369.943814	67.214685
3370.993604	62.617483
3372.044703	58.623776
3373.092755	55.937762
3374.143568	56.906993
3375.191335	61.090909
3376.238960	60.200699
3377.286443	61.488811
3378.332332	64.182517
3379.379531	64.075524
3380.423686	64.944056
3381.470600	62.846154
3382.515923	61.049650
3383.558204	63.357343
3384.600344	63.300699
3385.643793	64.878322
3386.687100	67.718182
3387.728817	65.753846
3388.770394	62.594406
3389.811829	62.703497
3390.851676	61.769930
3391.889934	58.862937
3392.929500	59.381119
3393.968926	58.338462
3395.006764	60.183916
3396.043015	61.217483
3397.079126	61.060839
3398.116545	61.974126
3399.150931	63.451049
3400.186625	64.108392
3401.222179	65.356643
3402.254701	67.907692
3403.289977	66.711888
3404.322222	63.542657
3405.354329	63.648951
3406.384853	60.735664
3407.416683	64.701399
3408.448375	59.626573
3409.477039	60.137762
3410.505566	58.688811
3411.535399	58.634266
3412.565095	60.138462
3413.591765	65.078322
3414.619741	64.438462
3415.644693	63.974825
3416.672396	60.067133
3417.697074	57.469930
3418.723059	55.722378
3419.747465	58.360839
3420.771733	52.811888
3421.794424	51.730769
3422.816978	51.727972
3423.840838	51.072727
3424.861678	54.141259
3425.882382	57.600100
3426.904392	61.100649
3427.923384	64.174026
3428.942241	66.351349
3429.962404	67.163736
3430.979549	66.142308
