-118.277064	6.618956
-115.607463	5.393407
-112.940798	5.010240
-110.274885	5.224875
-107.611905	5.792732
-104.947494	6.469231
-102.286014	7.009790
-99.623105	4.133566
-96.965303	4.733566
-94.306070	5.274825
-91.647586	4.990909
-88.992027	4.141259
-86.335039	0.565035
-83.683148	-0.320979
-81.029828	0.863636
-78.379427	0.740559
-75.727598	2.432168
-73.080859	0.513287
-70.432690	-1.732168
-67.785265	-4.953846
-65.140753	-4.244755
-62.494812	-5.710490
-59.853954	-4.788112
-57.211665	-3.559441
-54.572286	-5.435664
-51.931478	-2.838462
-49.291409	-0.853846
-46.656414	3.304196
-44.019989	6.597902
-41.386468	8.848951
-38.751517	10.425175
-36.121633	10.621678
-33.488155	13.639161
-30.859740	13.361538
-28.232059	12.437063
-25.602950	8.061538
-22.978897	-4.779720
-20.351254	-39.978322
-17.728666	-91.595105
-15.106808	-63.515385
-12.485681	141.737063
-9.865285	432.103497
-7.247776	663.141259
-4.628839	815.564336
-2.012788	896.686014
0.602536	898.151049
3.217131	827.185315
5.828845	679.285315
8.441986	462.196503
11.050095	197.885315
13.661784	-37.032168
16.268443	-130.072028
18.876530	-70.428671
21.483893	-3.871329
24.086231	1.759441
26.692147	-2.304196
29.293042	-0.374825
31.895364	1.158042
34.492668	3.765035
37.093548	4.861538
39.689414	6.320979
42.286707	7.225175
44.883281	8.090210
47.474846	9.916783
50.067839	7.109790
52.657972	7.136364
55.249531	5.852448
57.838231	4.811189
60.428359	6.641958
63.013487	7.722378
65.600043	8.041259
68.185884	6.137762
70.768872	4.523077
73.353287	2.689510
75.930572	1.796503
78.511424	2.655944
81.089427	-0.293007
83.666720	-1.409790
86.245440	-0.716084
88.819177	0.244755
91.394341	2.579720
93.966662	4.541259
96.538276	4.755944
99.107049	2.682517
101.677249	3.343357
104.244610	4.773427
106.813398	5.326573
109.379349	6.920280
111.942464	4.781818
114.509137	4.635664
117.066587	6.291608
119.629723	4.886713
122.187900	8.174126
124.749631	13.558741
127.306405	19.848252
129.864605	26.053846
132.417853	38.531469
134.970402	54.086713
137.526503	72.326573
140.077655	91.346154
142.628110	105.258741
145.177867	120.550350
147.724805	131.603497
150.271048	138.342657
152.818716	145.638462
155.365688	149.951748
157.907724	150.842657
160.449068	150.199301
162.989718	153.484615
165.531793	153.800699
168.071058	155.219580
170.607513	153.660140
173.143278	151.126573
175.680468	150.840559
178.216967	151.142657
180.750660	151.735664
183.281549	150.294406
185.811750	151.454545
188.343376	151.256643
190.872202	151.600699
193.398228	152.212587
195.923568	150.897203
198.450333	151.699301
200.974302	150.009790
203.497585	148.159441
206.020184	145.988811
208.539990	143.394406
211.059113	140.864336
213.577553	138.943357
216.097418	138.243357
218.610280	135.427972
221.126674	135.373427
223.642387	136.589510
226.153209	139.624476
228.665456	143.300699
231.174920	147.886713
233.683706	151.920280
236.191814	151.555944
238.701346	150.518182
241.205997	150.748252
243.709972	154.079021
246.215371	151.613986
248.715895	150.658741
251.219942	150.841958
253.717019	149.481818
256.217618	148.467133
258.715446	149.196503
261.212601	150.542657
263.709084	152.251748
266.200703	151.725874
268.695841	150.389510
271.188214	151.885315
273.679916	154.885315
276.168855	151.839860
278.659217	154.981119
281.146818	155.444056
283.631659	155.057343
286.120014	154.679021
288.601431	154.873427
291.086361	155.004895
293.566445	158.013287
296.050042	158.959441
298.528797	157.907692
301.008974	158.312587
303.486400	157.755245
305.963162	158.393706
308.439260	165.954545
310.912610	173.573427
313.385299	185.971329
315.857326	195.056643
318.328691	201.193007
320.797313	204.820280
323.265275	209.253846
325.734660	207.074126
328.199222	199.900699
330.667287	189.553846
333.130533	180.171329
335.593122	173.944755
338.055053	170.571329
340.516328	170.132867
342.974869	172.325874
345.434832	172.246853
347.892063	173.148252
350.348639	175.038462
352.804560	178.120979
355.257753	177.083916
357.712368	177.387413
360.162181	176.274825
362.615490	174.721678
365.064000	174.591608
367.511860	174.765035
369.961141	172.690909
372.405629	173.432168
374.851539	175.060140
377.296800	176.710490
379.739342	176.920280
382.181236	174.245455
384.622482	173.197902
387.061013	171.800699
389.500966	168.493007
391.938205	165.168531
394.372732	166.660839
396.810747	167.989510
399.243985	167.190210
401.678645	167.993007
404.108532	169.427273
406.541904	170.613986
408.970506	172.234965
411.398466	174.883217
413.827847	175.072727
416.252464	177.176224
418.678501	179.230769
421.103899	179.018881
423.528656	178.844755
425.948654	177.044755
428.370074	176.857343
430.788797	176.976224
433.208941	177.278322
435.626390	178.193706
438.045259	179.902797
440.461435	181.343357
442.872864	179.879720
445.287769	180.567832
447.699984	178.367832
450.111565	175.732867
452.522513	172.799301
454.930773	174.961538
457.338402	175.215385
459.745398	176.795804
462.151762	176.591608
464.555445	174.786014
466.958497	173.202797
469.360919	169.963636
471.762711	167.851049
474.161825	163.432867
476.562359	162.513287
478.962264	161.987413
481.357447	159.039860
483.756095	162.594406
486.150024	161.602797
488.543327	162.297203
490.936004	159.182517
493.328056	155.062238
495.721527	150.343357
498.110285	143.909790
500.496377	139.709790
502.883889	134.455944
505.270777	131.453846
507.655002	126.284615
510.040646	124.899301
512.423627	123.971329
514.803948	123.046853
517.185688	119.955245
519.564770	116.882517
521.945269	114.034965
524.323111	112.137762
526.698298	110.312587
529.072867	109.415385
531.448855	109.207692
533.822189	109.941259
536.196942	108.348252
538.567008	107.654545
540.936459	102.579021
543.307329	104.602098
545.673517	101.866434
548.041124	99.086713
550.406085	97.661538
552.770434	97.316084
555.134169	93.641259
557.499322	94.194406
559.859803	91.997203
562.221701	91.791608
564.580960	92.043357
566.937580	91.186014
569.297646	90.980420
571.651020	96.270629
574.007839	99.334965
576.362023	100.511189
578.715598	102.720979
581.068565	100.167832
583.418901	97.223776
585.770654	96.564336
588.115729	91.874126
590.466269	87.912587
592.810136	88.879720
595.159464	86.575524
597.504143	85.028671
599.846198	86.668531
602.189670	90.106993
604.530519	89.705594
606.870765	89.276224
609.208391	88.808392
611.549452	87.036364
613.885876	87.992308
616.223716	86.423776
618.558938	81.924476
620.891545	85.976224
623.225569	83.371329
625.556978	81.660839
627.887789	81.683217
630.218002	84.216783
632.547618	83.066434
634.872610	80.883217
637.203044	81.846154
639.528856	80.183217
641.852062	83.175524
644.176684	80.863636
646.498700	78.106993
648.820122	80.979021
651.138941	77.839161
653.459176	78.823776
655.778818	77.518881
658.095859	76.879021
660.412309	74.673427
662.726160	74.940559
665.041426	75.337063
667.354096	77.162238
669.668181	78.763636
671.977667	78.930769
674.288567	78.400699
676.596875	82.246853
678.904595	82.130769
681.213730	81.747552
683.518272	79.695105
685.822228	78.240559
688.125597	77.304895
690.430381	75.651049
692.730579	72.646154
695.032192	68.962937
697.333219	65.976923
699.629665	64.983916
701.927525	63.095804
704.224803	67.171329
706.521496	68.885315
708.813614	69.895804
711.109143	72.305594
713.400099	75.260839
715.692469	75.841259
717.982263	74.974126
720.271478	74.112587
722.560113	69.300000
724.846175	67.828671
727.133651	67.077622
729.418557	67.141259
731.702884	66.939860
733.984644	66.856643
736.267817	68.048252
738.550413	69.529371
740.828453	70.442657
743.107907	71.511888
745.386786	74.872028
747.665090	76.981818
749.938843	80.695804
752.214011	82.910490
754.488605	82.762238
756.760640	80.909790
759.034088	78.281119
761.304978	78.620979
763.573312	79.705594
765.843059	77.678322
768.110251	75.893706
770.376873	76.794406
772.642926	79.587413
774.906427	80.581818
777.171340	81.275524
779.435685	80.014685
781.695499	78.923776
783.956727	78.918881
786.217387	76.920979
788.475500	77.203497
790.731070	77.788811
792.990029	75.508392
795.242490	76.812587
797.500318	74.176923
799.753627	75.265035
802.004395	76.239860
804.256576	74.072727
806.506219	77.006993
808.757273	80.433566
811.003816	78.633566
813.251772	75.293706
815.497192	74.830769
817.744025	71.542657
819.990295	68.484615
822.232062	67.408392
824.477211	64.144056
826.715888	66.510490
828.957948	68.999301
831.195509	67.886014
833.434481	69.895105
835.670928	72.292308
837.908785	73.137063
840.144117	73.893706
842.376925	72.113287
844.611145	69.933566
846.842843	70.720979
849.073986	66.546853
851.304574	65.835664
853.534608	64.951748
855.764087	63.748951
857.989086	60.842657
860.217458	59.914685
862.441352	60.427972
864.666656	60.000000
866.887485	58.248951
869.111687	57.795105
871.331415	60.613986
873.552553	62.618182
875.773141	60.989510
877.991220	62.761538
880.210708	66.084615
882.425730	70.262937
884.640204	70.604895
886.854131	73.495804
889.067510	73.612587
891.280343	70.244755
893.492628	68.793706
895.702412	72.479021
897.911650	73.264336
900.120342	70.542657
902.326536	69.496503
904.534139	68.253846
906.739245	66.479720
908.943807	64.171329
911.145874	62.487413
913.349350	66.304196
915.550332	65.925874
917.750772	64.091608
919.952621	65.541259
922.148079	67.779021
924.346895	65.556643
926.541274	67.283217
928.739010	66.700000
930.932310	64.548951
933.127018	63.004196
935.319241	65.239161
937.510926	66.945455
939.702073	70.581119
941.890737	69.239161
944.078864	69.139161
946.264511	69.633566
948.453511	66.823077
950.638086	69.080420
952.822127	72.555944
955.009518	72.380420
957.188606	74.312587
959.371044	77.360839
961.552947	78.199301
963.732377	77.533566
965.909334	76.861538
968.087699	77.108392
970.267470	77.780420
972.440893	80.320979
974.617663	81.718182
976.790025	88.837063
978.963795	92.796503
981.133161	95.941958
983.305871	99.168531
985.476115	100.108392
987.645831	98.077622
989.815018	99.602797
991.979808	97.195105
994.147940	96.129371
996.311676	94.603497
998.476820	99.504895
1000.639504	99.179720
1002.801663	101.476224
1004.961364	99.876923
1007.120542	99.238462
1009.281126	103.154545
1011.439255	101.488112
1013.596860	101.654545
1015.753942	101.966434
1017.910501	98.631469
1020.062680	97.670629
1022.216266	99.211189
1024.369330	96.045455
1026.519945	98.320280
1028.671966	98.236364
1030.819615	99.777622
1032.970594	103.335664
1035.117204	106.118881
1037.263294	106.832867
1039.408866	109.584615
1041.555842	109.544056
1043.696531	107.900000
1045.840548	107.444056
1047.982126	107.448951
1050.123186	99.086713
1052.265651	104.009790
1054.401837	100.405594
1056.541349	102.997203
1058.676505	106.483916
1060.814986	110.793706
1062.949114	116.134965
1065.082728	117.382517
1067.217746	118.248252
1069.348415	115.197203
1071.480490	115.489510
1073.610134	115.568531
1075.739267	109.156643
1077.867889	108.806294
1079.995999	108.830769
1082.121683	109.660140
1084.246857	108.512587
1086.373434	107.088112
1088.495675	103.774825
1090.619320	99.281119
1092.738630	96.322378
1094.863169	89.921678
1096.981464	89.127972
1099.101162	90.304196
1101.218442	93.860140
1103.335216	97.103497
1105.451483	100.514685
1107.565335	99.460839
1109.680590	95.347552
1111.791523	96.390909
1113.905768	96.065734
1116.015692	91.908392
1118.127019	88.151748
1120.237843	80.812587
1122.344350	81.411189
1124.454166	84.821678
1126.559668	86.390909
1128.666574	86.311888
1130.767264	86.706294
1132.873165	86.549650
1134.974758	85.425175
1137.077754	86.065035
1139.180249	89.859441
1141.276538	86.492308
1143.378033	86.133566
1145.475226	82.734266
1147.571920	85.276923
1149.668117	86.168531
1151.763815	86.874825
1153.859016	87.982517
1155.951820	89.462238
1158.046026	88.730769
1160.134041	87.374126
1162.227254	89.160839
1164.314279	94.927273
1166.404604	93.131469
1168.490640	91.810490
1170.579974	88.111888
1172.663127	85.610490
1174.747683	83.906294
1176.833639	80.567133
1178.915315	77.933566
1180.998391	78.883916
1183.079082	77.906993
1185.159282	76.385315
1187.238990	79.309091
1189.318207	80.633566
1191.395041	81.576923
1193.469495	82.183217
1195.547241	83.177622
1197.620716	83.519580
1199.695593	84.309790
1201.766202	81.528671
1203.838212	81.440559
1205.907846	81.261538
1207.978881	79.286014
1210.049428	75.251049
1212.115715	74.150350
1214.183401	71.148951
1216.248716	70.146853
1218.315431	72.449650
1220.377890	75.948951
1222.443635	77.165734
1224.505125	77.601399
1226.568015	79.327273
1228.628538	81.363636
1230.688578	83.272727
1232.748134	84.176224
1234.805326	82.588112
1236.862035	80.738462
1238.916382	78.341259
1240.974009	77.903497
1243.029274	77.359441
1245.080298	75.790909
1247.132723	76.809790
1249.184667	77.200699
1251.234253	79.755944
1253.283360	78.402098
1255.331988	80.350350
1257.380138	82.399301
1259.427810	82.405594
1261.471251	81.698601
1263.517967	79.095105
1265.562331	77.055944
1267.606217	71.741958
1269.647753	68.579720
1271.686939	70.290210
1273.729397	71.400699
1275.767634	72.265734
1277.807268	74.241958
1279.846428	80.897203
1281.881370	83.797203
1283.917710	85.250350
1285.951705	88.161538
1287.987099	87.979021
1290.018279	88.632867
1292.050858	88.858741
1294.082964	88.458042
1296.112730	91.193007
1298.143894	95.589510
1300.170850	95.391608
1302.199204	95.941259
1304.223354	95.999301
1306.250769	92.741259
1308.273981	93.900000
1310.298591	98.667133
1312.320866	100.376224
1314.344539	104.055245
1316.365879	107.313986
1318.386752	110.367832
1320.407157	113.196503
1322.423369	116.754545
1324.440978	115.960839
1326.456259	119.471329
1328.474799	122.790210
1330.489149	121.447552
1332.501174	123.934266
1334.516457	127.572727
1336.527554	129.160140
1338.540047	129.439860
1340.548358	126.327972
1342.559925	125.242657
1344.565453	120.097203
1346.574235	120.646154
1348.578841	117.304895
1350.586700	117.255944
1352.594097	115.722378
1354.595462	109.223077
1356.598225	105.886713
1358.600528	104.337063
1360.602370	101.304196
1362.603754	99.355245
1364.602823	96.348252
1366.601434	99.455944
1368.599587	98.380420
1370.597282	98.786713
1372.590813	96.167133
1374.585741	96.618182
1376.580212	97.949650
1378.574226	92.543357
1380.565933	86.453846
1382.557184	82.645455
1384.546130	78.721678
1386.536471	77.197203
1388.526357	77.012587
1390.513940	78.432867
1392.501069	75.919580
1394.485896	79.337762
1396.472118	83.132168
1398.456039	87.632867
1400.439508	89.134266
1402.422525	87.495804
1404.403244	85.342657
1406.385357	82.271329
1408.365173	76.911888
1410.344539	70.256643
1412.319766	68.453147
1414.298231	66.007692
1416.274403	64.989510
1418.250125	71.090909
1420.225398	73.539161
1422.198381	74.636364
1424.170915	72.162937
1426.143001	72.920979
1428.114639	73.911189
1430.082150	71.466434
1432.054734	67.666434
1434.019512	65.446853
1435.989363	68.765734
1437.955089	69.389510
1439.922209	72.587413
1441.887045	76.840559
1443.847761	77.989510
1445.813545	76.300699
1447.773374	74.999301
1449.734596	78.117483
1451.697211	79.385315
1453.655711	77.729371
1455.613769	74.422378
1457.571384	71.490210
1459.528558	69.020979
1461.483456	66.882517
1463.439746	66.539860
1465.393762	66.281818
1467.347338	67.508392
1469.298641	67.833566
1471.251336	71.020280
1473.201760	75.304895
1475.151745	75.240559
1477.101291	76.606993
1479.048567	74.525874
1480.993577	72.716084
1482.939979	69.730769
1484.885943	70.681818
1486.831470	70.141259
1488.774731	68.426573
1490.717556	70.610490
1492.658118	69.694406
1494.600072	69.365734
1496.539763	72.008392
1498.479019	70.675524
1500.417841	72.409790
1502.354403	69.879021
1504.292355	73.674126
1506.228050	75.209091
1508.163311	77.460839
1510.096315	78.767133
1512.028887	80.793007
1513.961027	83.655944
1515.892735	84.425874
1517.822190	84.046154
1519.753034	84.569930
1521.683448	83.974825
1523.609789	82.572028
1525.537520	80.030070
1527.463001	80.451049
1529.388053	81.809790
1531.312676	82.690210
1533.236870	85.520280
1535.158817	89.060839
1537.082153	89.960140
1539.003244	92.706993
1540.922090	94.339161
1542.842326	94.981119
1544.760318	96.554545
1546.677884	96.683916
1548.593209	99.923776
1550.509922	103.162238
1552.422581	105.516783
1554.338444	106.796503
1556.252068	107.444056
1558.163453	105.906294
1560.076227	106.573427
1561.984953	109.681818
1563.895067	112.077622
1565.804758	113.538462
1567.714026	117.352448
1569.621059	120.312587
1571.525860	127.006993
1573.432050	126.116084
1575.336009	122.169930
1577.239546	121.283217
1579.142662	116.394406
1581.043550	111.520979
1582.945826	110.875524
1584.845873	109.962238
1586.747309	105.998601
1588.644710	104.708392
1590.541694	104.595804
1592.438259	105.081818
1594.336211	107.739161
1596.228329	103.176224
1598.123641	102.775524
1600.018534	102.287413
1601.911207	103.211888
1603.803462	104.787413
1605.693498	106.253846
1607.583118	105.386014
1609.472323	102.298601
1611.361112	103.295105
1613.247685	103.135664
1615.135645	103.220979
1617.019588	102.896503
1618.904918	99.411888
1620.789835	98.013986
1622.672538	93.061538
1624.556628	91.353147
1626.436706	83.405594
1628.318171	75.442657
1630.197426	68.004895
1632.078067	63.036364
1633.952905	59.143357
1635.832723	56.437762
1637.708536	54.546853
1639.583940	58.418182
1641.460729	59.083916
1643.331721	64.039860
1645.205896	66.326573
1647.076071	70.990210
1648.949427	71.911189
1650.820580	72.946154
1652.689531	77.723776
1654.559868	80.634965
1656.426211	78.617483
1658.293941	77.086713
1660.159471	75.042657
1662.026386	72.539860
1663.889313	65.974825
1665.753625	62.279720
1667.615742	58.913287
1669.477453	56.620280
1671.340549	54.206993
1673.201451	53.790210
1675.060159	56.625175
1676.918465	55.439860
1678.778154	54.827972
1680.632077	55.700000
1682.489173	54.918881
1684.345865	52.192308
1686.198582	52.667832
1688.054470	52.244755
1689.906384	55.124476
1691.757897	55.956643
1693.609009	59.543357
1695.459720	61.753147
1697.310031	66.106294
1699.158158	67.818881
1701.007668	67.891608
1702.851430	65.481818
1704.700142	63.401399
1706.543107	63.673427
1708.389238	59.745455
1710.231408	57.080420
1712.076742	58.538462
1713.916336	56.474126
1715.757314	55.845455
1717.599676	55.618881
1719.438080	62.955245
1721.277868	61.564336
1723.115481	62.137762
1724.952698	59.785315
1726.787742	62.734266
1728.624169	61.177622
1730.458424	56.856643
1732.292285	59.818881
1734.125751	60.165734
1735.955271	56.246853
1737.787950	55.777622
1739.616685	57.904895
1741.448578	58.886713
1743.276528	54.816084
1745.104086	54.172727
1746.931253	52.641958
1748.758028	53.693007
1750.584411	52.435664
1752.406858	55.456643
1754.232459	57.446154
1756.054126	56.216783
1757.877175	59.003497
1759.698063	60.069930
1761.518561	62.020979
1763.340441	60.962238
1765.156621	60.376923
1766.975953	61.228671
1768.791358	62.353147
1770.609914	62.131469
1772.424544	67.252448
1774.238787	71.136364
1776.052644	69.275524
1777.866114	65.051049
1779.677430	64.851049
1781.490128	57.244056
1783.302439	57.023077
1785.110833	54.281818
1786.920608	51.144056
1788.726467	51.689510
1790.535473	50.316084
1792.340565	49.898601
1794.147037	52.402098
1795.953126	54.548951
1797.755305	58.544056
1799.560627	55.749650
1801.362041	59.496503
1803.164835	57.134965
1804.963724	61.347552
1806.763992	63.865035
1808.563880	65.329371
1810.361625	65.637063
1812.158990	58.927273
1813.955974	58.587413
1815.752578	57.706294
1817.547043	57.890909
1819.342888	59.088112
1821.133077	56.610490
1822.928163	57.369231
1824.717596	58.840559
1826.510167	61.409091
1828.300602	61.411888
1830.088902	59.554545
1831.880338	57.691608
1833.666129	55.785315
1835.453298	58.120979
1837.238337	57.866434
1839.026508	58.209091
1840.810794	60.432867
1842.592951	60.389510
1844.376487	59.869231
1846.157894	60.638462
1847.940679	58.109091
1849.719585	56.453147
1851.499869	54.990909
1853.278028	53.783916
1855.057564	52.472028
1856.834976	46.306294
1858.610264	51.237762
1860.386931	54.185315
1862.161475	56.951049
1863.937396	59.046154
1865.707698	61.062937
1867.481127	60.627273
1869.252436	64.483217
1871.023374	69.082517
1872.795689	67.892308
1874.562392	64.427972
1876.332219	63.436364
1878.098183	60.041958
1879.867271	62.180420
1881.632497	56.981818
1883.397355	59.309091
1885.163589	60.299301
1886.925965	59.818881
1888.687974	62.244056
1890.449616	63.067133
1892.210890	63.385315
1893.971798	60.385315
1895.732338	57.388112
1897.490770	58.448252
1899.248835	54.627972
1901.004793	51.082517
1902.762127	49.688112
1904.519095	55.049650
1906.273958	57.950350
1908.026715	57.809091
1909.779109	60.833566
1911.532879	59.750350
1913.284545	57.993706
1915.034108	60.460140
1916.785048	61.093706
1918.535624	62.876923
1920.282362	58.342657
1922.030475	56.861538
1923.776489	55.253147
1925.523879	54.088811
1927.269170	53.593706
1929.012364	50.446154
1930.756934	52.502098
1932.499407	53.349650
1934.241520	51.362937
1935.983274	57.495804
1937.724667	62.006294
1939.463967	65.272727
1941.202908	64.918182
1942.941490	65.503497
1944.677980	61.522378
1946.414113	61.030769
1948.151620	62.866434
1949.885306	64.140559
1951.620366	64.352448
1953.353337	62.390909
1955.085952	56.940559
1956.818210	55.502098
1958.550112	58.040559
1960.279928	59.945455
1962.007660	59.924476
1963.736766	57.483217
1965.465516	54.396503
1967.192183	57.124476
1968.918496	61.406294
1970.646182	61.644056
1972.368333	62.095804
1974.093584	63.594406
1975.815028	64.969930
1977.539572	67.669930
1979.262037	72.825874
1980.980698	70.597203
1982.702458	68.730070
1984.420416	63.827972
1986.139748	61.011189
1987.855279	60.996503
1989.575632	60.374126
1991.292186	58.442657
1993.004943	56.628671
1994.720796	58.358741
1996.434577	63.700699
1998.148008	68.883217
1999.859367	68.076224
2001.572100	63.676224
2003.281041	65.308392
2004.993076	62.383217
2006.699601	60.409790
2008.409219	61.478322
2010.116769	56.486014
2011.823972	53.467832
2013.529109	52.292308
2015.233899	53.737762
2016.940061	54.423077
2018.642441	55.076224
2020.346193	55.641958
2022.047882	55.644056
2023.749225	55.886713
2025.450223	58.106993
2027.149161	56.905594
2028.849470	58.086014
2030.546003	55.223776
2032.243908	57.237762
2033.939755	57.898601
2035.638687	53.190210
2037.332133	50.401399
2039.026950	51.590909
2040.721424	51.826573
2042.412130	50.472028
2044.105920	51.592308
2045.795943	57.034266
2047.487337	56.607692
2049.176678	61.080420
2050.867389	63.446154
2052.554338	63.012587
2054.240946	60.524476
2055.928925	58.241259
2057.613144	56.527972
2059.298733	55.139860
2060.983983	55.487413
2062.667185	58.430070
2064.351757	60.369231
2066.030865	62.260839
2067.714759	63.003497
2069.393193	67.583916
2071.074704	68.372028
2072.752463	68.913287
2074.429886	66.779021
2076.108678	62.465734
2077.785427	59.795804
2079.460135	58.915385
2081.136212	58.467133
2082.810249	56.439860
2084.483950	56.490909
2086.157316	55.767832
2087.828644	54.741958
2089.499637	56.774126
2091.170296	58.481818
2092.840621	60.623077
2094.510611	60.858042
2096.178566	63.409790
2097.846188	66.822378
2099.511776	67.580420
2101.178732	68.156643
2102.843655	69.089510
2104.508245	68.489510
2106.170804	64.708392
2107.834732	60.220280
2109.496628	58.751748
2111.158193	55.827273
2112.819428	56.934266
2114.478633	57.296503
2116.137509	61.660839
2117.796054	63.218182
2119.454270	67.737762
2121.108763	68.679021
2122.766320	69.051748
2124.423547	64.541259
2126.077054	60.948951
2127.731928	54.715385
2129.383083	52.537063
2131.037301	51.229371
2132.687801	53.637063
2134.339669	55.206294
2135.986128	59.116783
2137.637341	60.176224
2139.284842	63.882517
2140.933709	60.864336
2142.580557	59.027273
2144.227080	57.532168
2145.873277	55.049650
2147.515765	52.935664
2149.161312	53.495804
2150.803152	57.607692
2152.448049	58.770629
2154.089241	62.906294
2155.730109	61.888811
2157.370654	61.958042
2159.009186	63.204196
2160.649084	59.055245
2162.285282	60.211189
2163.922846	60.867832
2165.560088	57.290909
2167.195320	53.631469
2168.830230	51.993007
2170.464819	54.017483
2172.099087	50.764336
2173.729661	50.527972
2175.363286	51.081818
2176.993220	55.428671
2178.624520	56.894406
2180.253814	61.858042
2181.882789	67.596503
2183.511444	66.364336
2185.139780	65.307692
2186.766113	62.751049
2188.392128	63.467133
2190.016142	63.106993
2191.641521	58.806993
2193.264899	54.464336
2194.889642	54.441958
2196.510703	54.134266
2198.131449	57.363636
2199.753558	63.641259
2201.373670	63.996503
2202.991786	65.238462
2204.609586	65.641259
2206.227070	67.102797
2207.844239	69.006993
2209.461093	67.856643
2211.077632	65.594406
2212.692177	61.969231
2214.304731	61.653147
2215.918648	62.295105
2217.530573	63.390210
2219.143863	64.041958
2220.755161	61.108392
2222.364471	64.058042
2223.975143	62.281818
2225.583827	64.438462
2227.192199	65.962238
2228.798583	67.223776
2230.406331	68.024476
2232.012092	68.008392
2233.617543	63.462937
2235.221008	62.277622
2236.825836	62.002098
2238.428680	60.395105
2240.029541	58.069930
2241.631765	59.037762
2243.232007	57.188112
2244.833611	59.938462
2246.431562	62.037063
2248.030876	61.927273
2249.628210	60.291608
2251.225236	60.078322
2252.823623	58.479720
2254.418362	62.869930
2256.011125	64.273427
2257.605249	63.655245
2259.200736	66.522378
2260.792577	67.061538
2262.384112	65.497203
2263.977008	66.769930
2265.564595	62.495105
2267.156879	61.637762
2268.743855	58.636364
2270.333860	57.644755
2271.918560	56.772727
2273.507954	53.693007
2275.092045	49.769930
2276.677498	49.418881
2278.260982	49.334266
2279.847491	49.987413
2281.430367	51.434266
2283.012939	56.311888
2284.595209	58.743357
2286.173848	62.111888
2287.755512	61.269930
2289.333547	60.166434
2290.914605	60.336364
2292.492036	58.458741
2294.067504	58.810490
2295.645994	56.720280
2297.220859	58.935664
2298.795425	59.810490
2300.369689	64.167832
2301.943653	68.006993
2303.517317	67.758741
2305.090680	63.067133
2306.660425	57.824476
2308.229871	51.614685
2309.802336	49.143357
2311.369526	47.220979
2312.939733	47.395105
2314.506327	45.981119
2316.074279	49.696503
2317.640277	53.238462
2319.205977	62.106993
2320.771379	63.709091
2322.334828	66.624476
2323.899636	65.848951
2325.460835	69.341259
2327.025049	69.466434
2328.584002	68.739860
2330.145968	66.626573
2331.705984	63.472028
2333.265704	60.139161
2334.823475	57.979720
2336.380952	55.576923
2337.938133	54.536364
2339.493368	50.827972
2341.048308	51.304895
2342.602955	50.655944
2344.157308	55.386713
2345.711367	58.048252
2347.265133	58.116084
2348.816954	56.732867
2350.366832	57.913287
2351.919718	57.170629
2353.467362	54.190210
2355.018013	49.720280
2356.565074	52.349650
2358.113492	49.340559
2359.661618	48.572028
2361.206157	47.703497
2362.752053	50.732867
2364.296010	55.969231
2365.841325	54.316084
2367.383055	54.927972
2368.926143	58.583916
2370.467294	57.939860
2372.008156	57.928671
2373.548729	55.722378
2375.089013	56.203497
2376.629008	49.687413
2378.165424	49.588112
2379.704842	49.315385
2381.240683	54.525874
2382.777880	54.442657
2384.311503	54.548951
2385.848125	55.400000
2387.382817	57.861538
2388.915578	60.914685
2390.448054	59.688112
2391.978601	57.193706
2393.512146	56.227972
2395.040480	53.893706
2396.570170	54.518182
2398.099575	56.055944
2399.628695	59.597203
2401.157529	57.867832
2402.681159	58.807692
2404.209424	58.523077
2405.732486	57.879021
2407.260183	58.678322
2408.781039	56.252448
2410.306529	57.388112
2411.828459	60.339860
2413.351743	60.914685
2414.873107	61.585315
2416.392551	60.706294
2417.913350	61.055944
2419.432230	56.874126
2420.950828	54.144755
2422.467509	52.375524
2423.985545	49.820979
2425.503299	48.855245
2427.017501	48.562238
2428.531423	49.955245
2430.045066	55.907692
2431.560062	56.653147
2433.071511	55.731469
2434.584313	55.516084
2436.095203	55.733566
2437.605813	52.827972
2439.114512	51.069930
2440.626198	50.771329
2442.134340	53.783916
2443.642203	55.300699
2445.149789	57.941259
2446.653835	60.590909
2448.160865	63.549650
2449.665987	64.703497
2451.170832	65.455944
2452.673770	69.708392
2454.176431	74.000699
2455.678816	69.534965
2457.179296	63.248951
2458.681129	58.002797
2460.181058	58.255245
2461.680711	52.072727
2463.180089	49.729371
2464.677564	45.307692
2466.173137	43.836364
2467.671690	46.946853
2469.166715	52.904196
2470.663092	57.595804
2472.155943	60.689510
2473.650146	58.833566
2475.144077	57.188112
2476.634483	57.931469
2478.127867	58.719580
2479.619353	55.274126
2481.108942	55.423776
2482.598259	48.932867
2484.085680	47.048252
2485.576077	48.154545
2487.062955	52.311189
2488.551186	50.793706
2490.035899	49.695804
2491.520342	51.582517
2493.006137	54.127273
2494.490039	59.826573
2495.975293	63.581119
2497.455413	64.715385
2498.938505	65.619580
2500.419708	61.313986
2501.900640	62.280420
2503.379684	62.569231
2504.858460	61.758042
2506.336967	57.716783
2507.815205	54.213287
2509.293176	57.037762
2510.767641	57.666434
2512.245075	58.881818
2513.719006	58.565035
2515.194288	53.432867
2516.669302	51.939161
2518.140815	50.069231
2519.613679	52.849650
2521.084660	51.335664
2522.556991	50.997203
2524.024208	54.613986
2525.494392	54.279021
2526.962694	59.144755
2528.430732	57.506294
2529.898505	58.649650
2531.366013	58.955245
2532.833257	57.044755
2534.297008	60.562238
2535.762109	60.128671
2537.225333	61.134965
2538.689906	61.193007
2540.150991	63.084615
2541.613425	66.793007
2543.075596	61.202797
2544.534280	59.590210
2545.997537	59.425175
2547.455697	59.055944
2548.915206	58.372028
2550.369622	56.768531
2551.828608	54.885315
2553.285721	51.437063
2554.740964	52.332168
2556.195946	55.862238
2557.649058	57.755944
2559.103519	62.646853
2560.556111	60.847552
2562.008443	60.815385
2563.458907	64.435664
2564.912327	62.022378
2566.360665	62.028671
2567.811959	62.668531
2569.261386	59.969930
2570.707342	63.237762
2572.156252	60.306993
2573.601691	60.730769
2575.048479	61.250350
2576.493403	61.520979
2577.938070	58.281119
2579.384084	54.037762
2580.826631	51.398601
2582.270526	46.718182
2583.710956	46.770629
2585.152734	50.277622
2586.592652	50.542657
2588.033917	53.534965
2589.471720	54.823776
2590.912473	58.209790
2592.348163	60.832867
2593.786803	61.400699
2595.223586	63.055944
2596.658512	63.930070
2598.096387	62.679021
2599.529204	62.824476
2600.963368	61.986713
2602.395677	62.750350
2603.829334	66.164336
2605.261136	67.895105
2606.692686	68.616783
2608.123982	63.051748
2609.553427	61.553147
2610.982619	60.262937
2612.409960	60.555944
2613.838648	57.472028
2615.267083	55.082517
2616.692072	54.267832
2618.118406	53.207692
2619.542892	58.267832
2620.968724	61.990909
2622.391112	59.467133
2623.814846	58.707692
2625.236734	56.248252
2626.658371	59.471329
2628.078164	63.202098
2629.499301	61.997203
2630.920189	61.603497
2632.337639	60.320979
2633.758028	61.293706
2635.174980	61.777622
2636.591684	61.904196
2638.008139	58.501399
2639.424346	55.304196
2640.840304	58.172727
2642.254422	59.769231
2643.668293	62.950350
2645.080324	63.829371
2646.493700	64.211189
2647.903646	65.455944
2649.316528	60.163636
2650.725981	61.753147
2652.135188	59.267133
2653.542559	58.785315
2654.952864	58.232867
2656.361333	59.671329
2657.767967	64.388811
2659.174356	66.705594
2660.578911	69.673427
2661.984810	68.090210
2663.388876	71.703497
2664.792698	67.569231
2666.196275	63.493007
2667.598021	62.295105
2669.001110	59.024476
2670.400781	57.059441
2671.801796	55.327273
2673.199395	59.669231
2674.599923	64.538462
2675.997037	66.771329
2677.395494	69.041958
2678.792123	68.216084
2680.188511	69.422378
2681.584656	65.774126
2682.978975	64.904895
2684.374637	58.948951
2685.766889	54.320280
2687.160485	52.188811
2688.552256	52.846853
2689.945369	55.183217
2691.336659	56.231469
2692.726126	55.659441
2694.115354	56.522378
2695.504341	57.325175
2696.894671	56.148252
2698.280016	57.317483
2699.668286	60.058042
2701.054735	58.020979
2702.440945	58.977622
2703.826916	62.290909
2705.209489	66.693007
2706.593404	69.329371
2707.977080	73.493007
2709.360519	73.729371
2710.740562	73.355944
2712.121947	71.515385
2713.501516	68.590909
2714.882427	68.765734
2716.261523	64.606294
2717.638805	57.655944
2719.017428	53.793007
2720.394237	54.888112
2721.770811	57.102797
2723.147149	57.914685
2724.521675	58.734965
2725.897542	56.780420
2727.270022	58.472028
2728.645419	60.561538
2730.015854	62.555245
2731.387631	62.237762
2732.759174	57.962238
2734.128908	53.997902
2735.499982	52.574126
2736.869249	53.150350
2738.238282	55.306993
2739.605508	55.482517
2740.972502	50.995804
2742.339263	51.608392
2743.705791	54.159441
2745.070515	59.974825
2746.435006	61.939860
2747.799265	59.309790
2749.163293	59.667832
2750.527088	55.284615
2751.887510	58.223077
2753.250843	61.813986
2754.609233	65.887413
2755.970533	65.119580
2757.328462	60.053846
2758.689301	63.064336
2760.048339	64.917483
2761.404009	67.904196
2762.762588	64.309790
2764.117799	58.174126
2765.472781	53.648252
2766.825966	49.880420
2768.182058	55.682517
2769.534786	56.361538
2770.887285	55.960140
2772.239557	57.269231
2773.593166	57.641958
2774.943414	61.267133
2776.291869	63.882517
2777.643228	67.157343
2778.991228	65.093007
2780.340567	62.041259
2781.688113	61.886713
2783.035432	61.162937
2784.382525	62.160839
2785.727827	60.379021
2787.072903	59.305594
2788.417753	56.367133
2789.762377	54.086014
2791.103648	52.867133
2792.446258	52.779720
2793.788643	54.009091
2795.130802	53.718881
2796.469612	56.090909
2797.811322	58.255245
2799.149683	56.581818
2800.489382	57.895105
2801.827295	60.581119
2803.163424	59.017483
2804.499330	56.858042
2805.836572	58.209091
2807.172031	54.157343
2808.507267	49.955944
2809.840721	50.525175
2811.175511	51.993706
2812.506960	49.735664
2813.841305	43.171329
2815.170752	41.774825
2816.501536	39.583217
2817.832098	41.630070
2819.160881	42.348951
2820.491001	42.946154
2821.819341	47.269930
2823.147461	47.530070
2824.473804	50.788811
2825.801482	56.687413
2827.125828	59.718881
2828.451510	58.323077
2829.775416	56.752448
2831.099102	57.311888
2832.424124	56.389510
2833.745817	55.497203
2835.067290	52.951049
2836.388545	52.800000
2837.709581	55.441958
2839.028845	55.181818
2840.349444	53.918881
2841.668271	53.301399
2842.986880	51.062937
2844.303719	52.469231
2845.620340	51.970629
2846.936743	47.804196
2848.251378	46.676224
2849.567347	46.076224
2850.879997	44.925175
2852.193981	46.902797
2853.507749	48.874825
2854.821300	50.466434
2856.133084	45.976224
2857.443103	47.130070
2858.754456	46.754545
2860.062493	50.139860
2861.371866	48.108392
2862.681023	47.986713
2863.989965	48.088112
2865.297144	51.533566
2866.602559	51.520979
2867.909309	53.953846
2869.214297	55.395804
2870.519070	53.348951
2871.822083	51.002797
2873.127976	52.246853
2874.429015	53.920979
2875.731387	53.240559
2877.032000	51.267133
2878.333947	53.909790
2879.635681	50.884615
2880.934111	52.064336
2882.233874	51.127273
2883.531880	51.448951
2884.829674	49.988112
2886.125711	50.213287
2887.423082	50.881119
2888.718697	52.120280
2890.014102	56.680420
2891.309295	51.721678
2892.601190	53.006993
2893.895962	52.262937
2895.187438	49.204196
2896.480246	48.865734
2897.772844	46.737762
2899.062147	47.179021
2900.352783	48.454545
2901.641669	45.968531
2902.931886	44.107692
2904.218812	50.316084
2905.507070	51.739161
2906.793579	50.876923
2908.079879	54.112587
2909.365971	51.135664
2910.650315	51.185315
2911.937531	47.799301
2913.219920	46.880420
2914.503641	46.595105
2915.785615	47.247552
2917.067383	41.428671
2918.347405	43.794406
2919.630297	48.860140
2920.911444	48.693706
2922.189309	52.052448
2923.470043	49.629371
2924.747496	47.606993
2926.024744	48.069231
2927.300249	43.997203
2928.578622	45.281119
2929.852181	42.802797
2931.128606	42.699301
2932.403291	43.827972
2933.676236	46.013986
2934.950511	47.518881
2936.223047	49.588112
2937.495379	51.768531
2938.764438	48.904196
2940.036362	48.583217
2941.306548	49.823077
2942.576530	46.504895
2943.846309	44.258042
2945.114351	42.823776
2946.380658	43.041259
2947.646762	45.005594
2948.914197	45.444056
2950.179896	47.909790
2951.445393	50.972028
2952.710689	53.779021
2953.972719	51.671329
2955.236079	49.795804
2956.499238	47.881119
2957.760664	46.146154
2959.023420	45.567832
2960.284445	46.587413
2961.543739	42.100699
2962.802832	42.925874
2964.061725	47.003497
2965.320418	48.127972
2966.578911	50.346154
2967.835675	49.799301
2969.092240	46.772028
2970.347076	43.596503
2971.603242	40.472028
2972.856152	41.056643
2974.110392	41.755944
2975.364433	42.379720
2976.616748	42.002098
2977.868865	47.539860
2979.119257	50.946853
2980.372504	50.553147
2981.620974	48.669231
2982.872298	48.086713
2984.120374	50.275524
2985.368252	46.686014
2986.615933	42.734266
2987.863418	43.055944
2989.109181	43.625874
2990.354747	45.601399
2991.601642	46.368531
2992.845291	46.866434
2994.090269	43.274825
2995.332004	42.243357
2996.576590	43.458042
2997.819457	43.086713
2999.059082	46.050350
3000.301559	45.532168
3001.540795	45.822378
3002.781359	49.254545
3004.020206	51.667133
3005.258859	50.838462
3006.495796	47.870629
3007.734061	46.942657
3008.970610	41.105594
3010.206966	42.634965
3011.443128	40.926573
3012.677576	39.790210
3013.911831	42.363636
3015.145893	43.057343
3016.378243	41.302098
3017.608881	46.900699
3018.842365	45.848252
3020.074138	40.328671
3021.304199	41.610490
3022.534069	41.845455
3023.762229	40.240559
3024.991716	41.688811
3026.219493	40.730070
3027.447079	41.556643
3028.675991	40.616783
3029.900161	41.142657
3031.127174	46.557343
3032.350964	52.596503
3033.576079	50.375524
3034.799488	49.983217
3036.022708	53.679720
3037.244222	54.034266
3038.468577	53.736364
3039.688197	51.339161
3040.909143	45.938462
3042.129899	43.298601
3043.348952	42.861538
3044.569331	45.293706
3045.786493	51.592308
3047.004980	52.331469
3048.221766	54.568531
3049.438363	55.523077
3050.654773	55.521678
3051.867969	54.476923
3053.084003	53.610490
3054.296825	53.170629
3055.512484	49.561538
3056.723420	48.661538
3057.935682	47.637063
3059.147756	48.934965
3060.359644	47.445455
3061.569834	44.500000
3062.779839	43.743357
3063.989657	41.337063
3065.197779	39.431469
3066.405715	38.783916
3067.611957	39.080420
3068.819523	39.320280
3070.025394	37.083217
3071.231080	35.460140
3072.436582	35.637762
3073.640390	37.050350
3074.845522	33.669231
3076.048961	34.369930
3077.250708	34.085315
3078.452272	36.160140
3079.653652	37.508392
3080.854848	37.279720
3082.054354	37.610490
3083.253676	37.431469
3084.454322	36.267832
3085.653279	35.717483
3086.849040	35.097203
3088.047631	37.681119
3089.243028	39.365035
3090.439749	43.048252
3091.633277	42.918881
3092.829633	43.900699
3094.024302	43.340559
3095.215781	41.841259
3096.411591	43.313287
3097.602708	41.446853
3098.795148	43.269930
3099.984399	42.256643
3101.176477	41.143357
3102.366871	45.109790
3103.554078	46.972028
3104.742609	48.990210
3105.932462	47.062937
3107.119130	44.046154
3108.305619	42.047552
3109.491928	42.313287
3110.679560	44.858042
3111.864009	44.646853
3113.046778	47.041958
3114.232371	47.086014
3115.416283	45.682517
3116.598517	44.787413
3117.780573	44.337063
3118.962450	47.584615
3120.144149	44.517483
3121.324171	41.034266
3122.502516	39.984615
3123.683681	42.707692
3124.861671	41.484615
3126.039484	42.400699
3127.217120	42.804196
3128.393081	43.014685
3129.568866	40.035664
3130.745971	37.494406
3131.921403	37.737762
3133.095161	38.099301
3134.267246	36.937063
3135.440652	34.832168
3136.613883	35.277622
3137.785442	32.469231
3138.958321	29.216783
3140.128033	32.573427
3141.299066	33.227273
3142.468428	34.300699
3143.636121	35.887413
3144.806629	35.667133
3145.972478	35.710490
3147.142637	39.932168
3148.308138	41.586014
3149.473466	41.174825
3150.638620	42.986014
3151.803601	39.602098
3152.969901	40.386014
3154.131548	42.227972
3155.294516	39.833566
3156.457311	38.793706
3157.619932	41.474126
3158.780889	38.202098
3159.941674	35.319580
3161.102286	37.409091
3162.261234	34.425874
3163.420010	36.318182
3164.578615	38.130070
3165.737048	40.858042
3166.895309	40.011189
3168.051909	40.272727
3169.206846	39.604895
3170.363104	40.855245
3171.517700	43.993007
3172.672126	41.899301
3173.824891	39.447552
3174.977487	41.005594
3176.129913	40.344755
3177.282168	39.859441
3178.434254	40.783217
3179.583193	41.556643
3180.734939	38.129371
3181.885028	39.859441
3183.033459	38.890909
3184.181722	39.260839
3185.329816	42.520280
3186.477741	45.588112
3187.624010	42.816783
3188.770111	43.429371
3189.914558	45.272028
3191.058836	43.083916
3192.202947	47.462238
3193.348376	47.689510
3194.490666	47.151049
3195.632788	44.796503
3196.774744	40.972028
3197.916532	42.197902
3199.058153	43.086014
3200.196638	42.413986
3201.336442	39.055245
3202.477562	39.597902
3203.615548	38.577622
3204.751885	33.251049
3205.888056	34.970629
3207.025545	33.350350
3208.161385	30.949650
3209.298542	29.327273
3210.431086	28.964336
3211.567911	30.841259
3212.700125	34.169930
3213.833657	35.734266
3214.967023	35.967832
3216.097262	36.511888
3217.230300	36.898601
3218.360210	34.490210
3219.491438	36.924476
3220.619540	36.657343
3221.750440	37.279720
3222.879695	37.165734
3224.007307	34.974825
3225.131796	34.481119
3226.260561	34.693706
3227.386204	33.332867
3228.511684	31.079720
3229.635523	33.546853
3230.762157	39.487413
3231.884192	37.802098
3233.007544	39.052448
3234.130734	38.970629
3235.253762	41.158042
3236.375150	38.852448
3237.496377	35.098601
3238.615965	32.327972
3239.735392	29.374126
3240.853182	28.607692
3241.973763	28.508392
3243.091231	28.060839
3244.208538	31.786014
3245.325684	31.953147
3246.441195	35.288811
3247.558021	39.234266
3248.671736	43.044755
3249.788242	39.486713
3250.903112	42.234266
3252.014874	39.069930
3253.126477	39.598601
3254.239395	38.675524
3255.352153	37.693007
3256.461805	37.186713
3257.572772	39.083217
3258.683580	38.308392
3259.792756	39.416084
3260.900301	41.741259
3262.009161	41.253846
3263.117862	38.655245
3264.223461	41.779021
3265.330375	38.737063
3266.435659	41.246154
3267.542257	42.865734
3268.645755	43.547552
3269.750567	41.384615
3270.855222	40.686713
3271.956779	39.526573
3273.058179	40.884615
3274.160893	40.926573
3275.263450	41.204196
3276.362912	41.342657
3277.465156	44.741259
3278.564306	43.918182
3279.661830	42.537762
3280.759200	44.818881
3281.859351	41.441259
3282.956409	35.316084
3284.053313	37.516084
3285.150061	36.467832
3286.242250	34.461538
3287.338689	33.830769
3288.433505	33.899301
3289.528166	33.811888
3290.621206	33.778322
3291.714092	32.488112
3292.805357	31.339161
3293.897935	33.124476
3294.988893	29.683916
3296.078231	29.739860
3297.167416	32.989510
3298.257913	37.231469
3299.345326	37.273427
3300.432587	37.680420
3301.521160	37.032867
3302.609580	39.437063
3303.693453	36.143357
3304.781568	38.409091
3305.866602	37.762238
3306.950020	37.975524
3308.034750	33.726573
3309.117864	37.102098
3310.202290	41.439161
3311.283638	44.662937
3312.366298	42.641259
3313.447344	40.410490
3314.528239	36.911189
3315.607521	33.958042
3316.686652	29.409790
3317.767095	33.115385
3318.844463	36.867133
3319.923143	35.816084
3321.000211	34.330769
3322.077129	39.789510
3323.152437	41.526573
3324.227595	37.209790
3325.304064	36.723077
3326.377462	33.255944
3327.450712	29.393007
3328.525273	25.742657
3329.598224	28.134965
3330.669568	30.763636
3331.742222	33.492308
3332.811809	33.695105
3333.882707	35.851049
3334.951998	38.779720
3336.022600	36.146154
3337.091595	33.290210
3338.158985	35.119580
3339.224768	34.513986
3340.294778	32.253846
3341.361725	30.980420
3342.425610	32.551049
3343.492263	31.498601
3344.557312	31.362238
3345.620757	31.374126
3346.684055	28.495105
3347.747208	25.621678
3348.810214	24.062238
3349.873073	21.995105
3350.934331	23.545455
3351.992532	26.172028
3353.054954	31.465035
3354.114319	38.560839
3355.173540	42.594406
3356.234069	43.720979
3357.290089	42.154545
3358.348874	40.768531
3359.403151	38.086014
3360.460192	34.300699
3361.515634	33.907692
3362.572385	31.881119
3363.627539	34.855944
3364.681095	37.979720
3365.733054	44.446853
3366.787776	46.469930
3367.839448	45.559441
3368.890976	44.958741
3369.943814	43.368531
3370.993604	41.571329
3372.044703	40.825175
3373.092755	37.154545
3374.143568	37.937762
3375.191335	38.379720
3376.238960	36.595804
3377.286443	36.353846
3378.332332	37.208392
3379.379531	36.749650
3380.423686	37.565734
3381.470600	39.459441
3382.515923	38.829371
3383.558204	38.202098
3384.600344	35.860839
3385.643793	34.232867
3386.687100	34.965035
3387.728817	33.504196
3388.770394	30.975524
3389.811829	32.026573
3390.851676	30.425874
3391.889934	31.390210
3392.929500	32.597902
3393.968926	33.270629
3395.006764	36.199301
3396.043015	38.062937
3397.079126	36.229371
3398.116545	34.779720
3399.150931	32.115385
3400.186625	30.708392
3401.222179	27.522378
3402.254701	25.636364
3403.289977	23.439860
3404.322222	24.353147
3405.354329	25.490909
3406.384853	24.921678
3407.416683	30.000000
3408.448375	30.576923
3409.477039	30.769930
3410.505566	27.034965
3411.535399	27.896503
3412.565095	28.015385
3413.591765	27.330070
3414.619741	28.547552
3415.644693	28.729371
3416.672396	30.030769
3417.697074	31.091608
3418.723059	30.729371
3419.747465	35.329371
3420.771733	37.979021
3421.794424	39.792308
3422.816978	42.481818
3423.840838	46.394406
3424.861678	46.334965
3425.882382	45.587912
3426.904392	43.301673
3427.923384	39.298102
3428.942241	33.399051
3429.962404	25.426374
3430.979549	15.201923
