-118.277064	-8.260440
-115.607463	-1.987546
-112.940798	2.937796
-110.274885	6.589011
-107.611905	9.039527
-104.947494	10.362771
-102.286014	10.632168
-99.623105	6.082517
-96.965303	6.564569
-94.306070	5.484848
-91.647586	7.558508
-88.992027	6.216783
-86.335039	9.679720
-83.683148	8.738928
-81.029828	11.753380
-78.379427	11.548252
-75.727598	11.817716
-73.080859	7.890443
-70.432690	11.294172
-67.785265	5.630303
-65.140753	7.822378
-62.494812	6.654545
-59.853954	8.138462
-57.211665	8.183683
-54.572286	9.409790
-51.931478	9.344056
-49.291409	13.244289
-46.656414	10.798135
-44.019989	12.298368
-41.386468	13.685315
-38.751517	17.873660
-36.121633	15.919814
-33.488155	19.067133
-30.859740	19.050350
-28.232059	23.625641
-25.602950	17.015851
-22.978897	-21.902564
-20.351254	-173.893240
-17.728666	-444.047086
-15.106808	-283.036364
-12.485681	700.482984
-9.865285	2076.530070
-7.247776	3181.191142
-4.628839	3925.217249
-2.012788	4308.265268
0.602536	4324.346853
3.217131	3980.351049
5.828845	3273.427040
8.441986	2241.080653
11.050095	972.412587
13.661784	-180.452214
16.268443	-603.785082
18.876530	-332.827040
21.483893	-19.450350
24.086231	19.650816
26.692147	19.510023
29.293042	21.045221
31.895364	19.372028
34.492668	18.219580
37.093548	13.979953
39.689414	14.030303
42.286707	12.874126
44.883281	14.603263
47.474846	14.237296
50.067839	15.884848
52.657972	13.255944
55.249531	12.859207
57.838231	10.462471
60.428359	10.342657
63.013487	8.589744
65.600043	8.131935
68.185884	4.990676
70.768872	6.448485
73.353287	5.571096
75.930572	7.676457
78.511424	6.554779
81.089427	11.417716
83.666720	10.194872
86.245440	13.405128
88.819177	13.167832
91.394341	14.881585
93.966662	14.425175
96.538276	15.012121
99.107049	12.779021
101.677249	16.208858
104.244610	14.675524
106.813398	16.991608
109.379349	15.771096
111.942464	20.445221
114.509137	19.349184
117.066587	23.370629
119.629723	29.543590
122.187900	41.399534
124.749631	59.318881
127.306405	95.228904
129.864605	144.549184
132.417853	208.427972
134.970402	283.979021
137.526503	368.744988
140.077655	453.204196
142.628110	540.913287
145.177867	616.077855
147.724805	674.425175
150.271048	714.870396
152.818716	738.891841
155.365688	749.694639
157.907724	756.221445
160.449068	752.247552
162.989718	745.601399
165.531793	739.789277
168.071058	731.891375
170.607513	723.814452
173.143278	723.217716
175.680468	719.818648
178.216967	715.162238
180.750660	712.765501
183.281549	711.806993
185.811750	708.845221
188.343376	710.275991
190.872202	709.014452
193.398228	713.563170
195.923568	711.949650
198.450333	710.987879
200.974302	707.490909
203.497585	708.818648
206.020184	707.486713
208.539990	710.692308
211.059113	710.566900
213.577553	712.960839
216.097418	711.112821
218.610280	715.321678
221.126674	715.321212
223.642387	720.382751
226.153209	719.277389
228.665456	725.424242
231.174920	727.192075
233.683706	728.108159
236.191814	726.245688
238.701346	730.794406
241.205997	729.116550
243.709972	731.479254
246.215371	729.241492
248.715895	733.675058
251.219942	734.013520
253.717019	740.619114
256.217618	743.987879
258.715446	756.057343
261.212601	762.710023
263.709084	768.871795
266.200703	772.100233
268.695841	775.441026
271.188214	775.984615
273.679916	775.864802
276.168855	771.624242
278.659217	771.273193
281.146818	765.948718
283.631659	767.748252
286.120014	768.692308
288.601431	776.707226
291.086361	785.817716
293.566445	792.414918
296.050042	795.118881
298.528797	803.660140
301.008974	808.299301
303.486400	811.556643
305.963162	818.650350
308.439260	844.428904
310.912610	882.593939
313.385299	934.524476
315.857326	979.796737
318.328691	1018.557110
320.797313	1039.948252
323.265275	1042.960839
325.734660	1028.700233
328.199222	1002.832634
330.667287	960.225641
333.130533	916.668065
335.593122	878.107692
338.055053	859.853147
340.516328	855.366434
342.974869	857.107692
345.434832	856.670396
347.892063	858.133333
350.348639	856.521212
352.804560	863.012121
355.257753	862.003263
357.712368	864.358974
360.162181	863.907226
362.615490	865.826107
365.064000	864.489510
367.511860	867.197669
369.961141	863.648019
372.405629	861.619580
374.851539	858.917949
377.296800	856.817716
379.739342	854.853147
382.181236	858.719814
384.622482	853.161772
387.061013	853.142191
389.500966	852.450350
391.938205	855.254079
394.372732	853.184615
396.810747	855.836830
399.243985	852.410256
401.678645	854.556643
404.108532	854.663403
406.541904	856.584615
408.970506	856.352448
411.398466	858.848019
413.827847	859.683450
416.252464	866.951515
418.678501	869.077389
421.103899	872.670862
423.528656	872.148718
425.948654	877.385082
428.370074	874.150583
430.788797	877.009790
433.208941	875.621911
435.626390	878.430769
438.045259	876.045221
440.461435	877.300233
442.872864	876.829371
445.287769	876.791142
447.699984	870.612587
450.111565	869.273193
452.522513	864.747319
454.930773	864.852214
457.338402	857.856410
459.745398	857.735664
462.151762	850.340793
464.555445	847.432634
466.958497	839.508625
469.360919	834.872727
471.762711	827.767366
474.161825	826.339860
476.562359	825.087646
478.962264	827.030769
481.357447	825.603263
483.756095	830.478322
486.150024	828.117949
488.543327	825.786480
490.936004	809.809790
493.328056	793.462471
495.721527	766.718881
498.110285	739.793473
500.496377	706.249883
502.883889	677.809324
505.270777	647.655478
507.655002	623.006527
510.040646	598.314219
512.423627	584.492774
514.803948	570.395338
517.185688	560.515618
519.564770	545.576690
521.945269	537.918881
524.323111	526.699767
526.698298	520.091375
529.072867	508.727273
531.448855	505.741259
533.822189	500.185082
536.196942	494.756177
538.567008	488.117949
540.936459	486.855012
543.307329	483.858741
545.673517	481.881119
548.041124	476.470396
550.406085	474.175291
552.770434	469.567366
555.134169	466.366434
557.499322	461.992075
559.859803	460.174359
562.221701	455.878788
564.580960	452.720280
566.937580	449.528205
569.297646	449.913753
571.651020	449.198135
574.007839	447.841958
576.362023	442.322611
578.715598	439.622844
581.068565	433.372960
583.418901	433.194872
585.770654	428.879254
588.115729	429.574359
590.466269	430.160839
592.810136	431.593473
595.159464	429.876923
597.504143	435.092308
599.846198	434.180886
602.189670	431.325874
604.530519	426.222844
606.870765	424.177156
609.208391	418.421445
611.549452	417.128671
613.885876	407.676923
616.223716	405.421445
618.558938	397.964103
620.891545	392.748718
623.225569	387.244755
625.556978	385.070396
627.887789	380.487646
630.218002	381.034965
632.547618	383.754312
634.872610	385.663403
637.203044	384.265734
639.528856	386.606527
641.852062	379.990210
644.176684	377.586480
646.498700	371.317483
648.820122	365.838228
651.138941	363.397203
653.459176	359.801865
655.778818	358.518415
658.095859	358.605594
660.412309	356.878788
662.726160	354.278788
665.041426	352.362704
667.354096	352.886713
669.668181	348.370629
671.977667	349.738928
674.288567	350.156643
676.596875	352.616317
678.904595	353.924009
681.213730	353.311422
683.518272	350.019580
685.822228	348.189744
688.125597	343.084848
690.430381	341.533333
692.730579	336.657343
695.032192	334.092308
697.333219	329.942191
699.629665	329.561305
701.927525	326.497436
704.224803	327.253147
706.521496	325.384615
708.813614	326.411655
711.109143	325.798135
713.400099	329.533333
715.692469	330.399068
717.982263	332.427972
720.271478	330.598601
722.560113	331.091375
724.846175	326.877855
727.133651	331.150583
729.418557	328.731002
731.702884	332.066200
733.984644	335.303030
736.267817	338.499301
738.550413	342.636364
740.828453	348.080186
743.107907	350.842890
745.386786	353.405128
747.665090	352.351515
749.938843	353.687646
752.214011	355.341725
754.488605	359.697436
756.760640	355.864802
759.034088	357.114685
761.304978	359.509557
763.573312	361.071329
765.843059	359.759441
768.110251	362.979021
770.376873	365.559907
772.642926	368.540793
774.906427	367.175758
777.171340	370.999068
779.435685	372.464336
781.695499	374.016783
783.956727	373.333333
786.217387	377.399534
788.475500	378.010256
790.731070	379.613054
792.990029	375.296970
795.242490	377.497436
797.500318	372.564569
799.753627	371.317949
802.004395	364.268065
804.256576	362.018648
806.506219	356.402331
808.757273	357.330536
811.003816	352.206061
813.251772	355.122145
815.497192	352.353380
817.744025	354.117016
819.990295	350.508625
822.232062	351.973427
824.477211	347.055012
826.715888	347.958042
828.957948	341.082051
831.195509	339.359907
833.434481	333.803263
835.670928	333.267599
837.908785	328.022844
840.144117	330.812587
842.376925	328.855478
844.611145	329.471795
846.842843	327.639161
849.073986	328.737529
851.304574	324.967832
853.534608	324.912821
855.764087	318.527273
857.989086	319.884382
860.217458	315.629371
862.441352	311.833566
864.666656	309.634965
866.887485	312.731935
869.111687	309.300233
871.331415	310.002797
873.552553	310.351981
875.773141	312.998601
877.991220	315.904429
880.210708	324.158042
882.425730	323.281585
884.640204	331.213520
886.854131	329.531469
889.067510	328.086713
891.280343	329.461538
893.492628	332.896503
895.702412	324.738462
897.911650	323.655944
900.120342	319.365967
902.326536	315.224709
904.534139	313.148718
906.739245	319.095105
908.943807	315.636364
911.145874	320.076923
913.349350	319.663403
915.550332	325.497436
917.750772	331.179021
919.952621	334.206993
922.148079	330.187413
924.346895	331.206527
926.541274	327.240093
928.739010	322.508625
930.932310	322.723543
933.127018	322.128205
935.319241	314.830303
937.510926	317.330536
939.702073	320.345455
941.890737	326.186014
944.078864	330.462005
946.264511	332.569697
948.453511	340.200466
950.638086	351.027506
952.822127	359.383217
955.009518	371.390210
957.188606	381.076923
959.371044	385.789277
961.552947	394.217249
963.732377	408.121678
965.909334	417.022378
968.087699	416.441492
970.267470	417.689044
972.440893	418.157576
974.617663	418.896503
976.790025	423.413520
978.963795	428.288578
981.133161	434.095105
983.305871	438.198135
985.476115	447.752448
987.645831	451.972494
989.815018	457.022378
991.979808	462.250816
994.147940	462.206993
996.311676	462.975291
998.476820	460.398135
1000.639504	452.876457
1002.801663	455.401865
1004.961364	456.030303
1007.120542	462.432634
1009.281126	468.993473
1011.439255	476.688112
1013.596860	480.367366
1015.753942	492.557576
1017.910501	510.382751
1020.062680	517.246620
1022.216266	519.780420
1024.369330	520.024242
1026.519945	511.872261
1028.671966	517.093706
1030.819615	518.394406
1032.970594	525.617249
1035.117204	530.196737
1037.263294	536.296037
1039.408866	544.124942
1041.555842	554.078322
1043.696531	558.799068
1045.840548	556.739860
1047.982126	565.786946
1050.123186	561.999068
1052.265651	548.392541
1054.401837	556.282984
1056.541349	551.974359
1058.676505	551.846154
1060.814986	557.260140
1062.949114	554.089510
1065.082728	550.564103
1067.217746	553.810256
1069.348415	543.487179
1071.480490	546.268531
1073.610134	543.211655
1075.739267	530.276923
1077.867889	518.785548
1079.995999	518.057809
1082.121683	504.048019
1084.246857	496.889510
1086.373434	493.527273
1088.495675	484.880653
1090.619320	477.122611
1092.738630	479.230769
1094.863169	472.874592
1096.981464	471.975291
1099.101162	467.479720
1101.218442	469.243357
1103.335216	470.754312
1105.451483	471.013054
1107.565335	462.345455
1109.680590	459.795804
1111.791523	453.241492
1113.905768	444.778089
1116.015692	433.274126
1118.127019	427.800932
1120.237843	418.257809
1122.344350	402.779021
1124.454166	399.339860
1126.559668	394.527739
1128.666574	394.839161
1130.767264	398.098834
1132.873165	397.076457
1134.974758	402.566434
1137.077754	405.957576
1139.180249	411.116550
1141.276538	410.276923
1143.378033	412.832634
1145.475226	407.932401
1147.571920	405.559907
1149.668117	406.659207
1151.763815	406.299301
1153.859016	408.645688
1155.951820	414.033100
1158.046026	414.501166
1160.134041	416.875991
1162.227254	417.479720
1164.314279	415.900699
1166.404604	404.534732
1168.490640	402.515152
1170.579974	396.481119
1172.663127	400.089510
1174.747683	393.707226
1176.833639	394.382751
1178.915315	396.293706
1180.998391	397.194406
1183.079082	398.308625
1185.159282	398.893706
1187.238990	394.044755
1189.318207	392.463403
1191.395041	388.711888
1193.469495	391.643357
1195.547241	391.824242
1197.620716	396.547319
1199.695593	391.573893
1201.766202	396.158508
1203.838212	396.778555
1205.907846	396.219580
1207.978881	393.414452
1210.049428	392.088112
1212.115715	389.855012
1214.183401	389.820047
1216.248716	390.131469
1218.315431	387.608392
1220.377890	384.650816
1222.443635	387.324942
1224.505125	381.452214
1226.568015	382.071329
1228.628538	381.415385
1230.688578	381.117016
1232.748134	376.668998
1234.805326	380.244755
1236.862035	381.014918
1238.916382	380.326340
1240.974009	382.479254
1243.029274	382.441958
1245.080298	381.851748
1247.132723	385.757576
1249.184667	383.257343
1251.234253	383.817249
1253.283360	383.567832
1255.331988	386.434499
1257.380138	386.087179
1259.427810	388.883450
1261.471251	390.339394
1263.517967	395.595338
1265.562331	396.873193
1267.606217	400.361305
1269.647753	399.131002
1271.686939	405.085315
1273.729397	404.809790
1275.767634	406.013054
1277.807268	406.306294
1279.846428	412.525874
1281.881370	412.045688
1283.917710	414.592075
1285.951705	414.945455
1287.987099	424.095105
1290.018279	424.379953
1292.050858	433.951049
1294.082964	436.992075
1296.112730	446.012587
1298.143894	447.955245
1300.170850	453.423776
1302.199204	460.127739
1304.223354	472.264336
1306.250769	478.600000
1308.273981	489.704429
1310.298591	499.758042
1312.320866	519.543124
1314.344539	536.173893
1316.365879	555.328671
1318.386752	570.036830
1320.407157	588.163636
1322.423369	603.989744
1324.440978	622.676923
1326.456259	638.298834
1328.474799	653.741725
1330.489149	663.307692
1332.501174	673.756177
1334.516457	687.586946
1336.527554	702.146387
1338.540047	709.495105
1340.548358	714.179487
1342.559925	715.078788
1344.565453	713.173427
1346.574235	708.645221
1348.578841	697.746387
1350.586700	679.979487
1352.594097	662.955245
1354.595462	642.546853
1356.598225	624.538928
1358.600528	605.437762
1360.602370	585.783683
1362.603754	564.421445
1364.602823	550.232634
1366.601434	530.244755
1368.599587	517.579487
1370.597282	503.689977
1372.590813	492.830303
1374.585741	479.512354
1376.580212	471.335664
1378.574226	462.265268
1380.565933	453.982284
1382.557184	442.712821
1384.546130	440.602331
1386.536471	435.725408
1388.526357	433.954779
1390.513940	429.324009
1392.501069	429.850350
1394.485896	425.162704
1396.472118	425.218648
1398.456039	420.068065
1400.439508	418.489044
1402.422525	414.215385
1404.403244	410.988345
1406.385357	403.924942
1408.365173	400.177156
1410.344539	393.947786
1412.319766	392.103963
1414.298231	389.963170
1416.274403	391.383217
1418.250125	392.553380
1420.225398	394.812587
1422.198381	395.217249
1424.170915	397.101632
1426.143001	395.289044
1428.114639	396.355245
1430.082150	390.562238
1432.054734	388.992541
1434.019512	385.114685
1435.989363	380.493706
1437.955089	375.831235
1439.922209	377.587413
1441.887045	375.671795
1443.847761	371.496503
1445.813545	367.153846
1447.773374	368.756643
1449.734596	366.759441
1451.697211	373.735664
1453.655711	373.882051
1455.613769	378.793939
1457.571384	377.894639
1459.528558	377.329604
1461.483456	377.974359
1463.439746	381.203263
1465.393762	381.103497
1467.347338	379.737529
1469.298641	376.201865
1471.251336	377.887179
1473.201760	374.887646
1475.151745	377.386946
1477.101291	374.230303
1479.048567	375.819114
1480.993577	375.694172
1482.939979	375.501632
1484.885943	372.627506
1486.831470	376.691375
1488.774731	381.402797
1490.717556	384.096970
1492.658118	383.609324
1494.600072	386.305361
1496.539763	386.187879
1498.479019	386.792075
1500.417841	386.229371
1502.354403	389.253147
1504.292355	390.460140
1506.228050	387.898368
1508.163311	385.475991
1510.096315	390.700699
1512.028887	392.444289
1513.961027	391.591608
1515.892735	391.669930
1517.822190	394.577622
1519.753034	397.733800
1521.683448	399.791608
1523.609789	399.307226
1525.537520	403.680186
1527.463001	404.934732
1529.388053	411.060140
1531.312676	412.794872
1533.236870	423.786946
1535.158817	434.018648
1537.082153	442.534732
1539.003244	452.661072
1540.922090	461.872261
1542.842326	470.950117
1544.760318	480.297436
1546.677884	485.827972
1548.593209	498.953380
1550.509922	509.055944
1552.422581	521.219114
1554.338444	529.012587
1556.252068	546.986946
1558.163453	561.014452
1560.076227	572.337063
1561.984953	583.542191
1563.895067	591.641958
1565.804758	603.274592
1567.714026	609.349184
1569.621059	613.819580
1571.525860	624.483450
1573.432050	619.349184
1575.336009	614.974825
1577.239546	614.750117
1579.142662	612.097436
1581.043550	605.011655
1582.945826	600.610256
1584.845873	591.485315
1586.747309	582.789277
1588.644710	576.490443
1590.541694	563.618648
1592.438259	556.995804
1594.336211	552.941259
1596.228329	537.751981
1598.123641	538.364103
1600.018534	536.361772
1601.911207	529.724009
1603.803462	523.440559
1605.693498	516.186014
1607.583118	501.135664
1609.472323	492.531002
1611.361112	484.680653
1613.247685	473.067599
1615.135645	460.282051
1617.019588	449.109091
1618.904918	436.561772
1620.789835	434.965967
1622.672538	421.094639
1624.556628	413.212587
1626.436706	405.301632
1628.318171	395.632634
1630.197426	382.188345
1632.078067	374.326807
1633.952905	370.707692
1635.832723	363.999068
1637.708536	356.972028
1639.583940	356.790676
1641.460729	349.580420
1643.331721	352.069464
1645.205896	345.762238
1647.076071	345.849883
1648.949427	344.686713
1650.820580	346.882051
1652.689531	338.050350
1654.559868	340.362238
1656.426211	333.905361
1658.293941	329.682051
1660.159471	332.126807
1662.026386	330.258275
1663.889313	323.845221
1665.753625	324.820047
1667.615742	315.965035
1669.477453	311.445688
1671.340549	312.236830
1673.201451	315.931002
1675.060159	313.928671
1676.918465	317.864336
1678.778154	308.994406
1680.632077	310.906760
1682.489173	314.629837
1684.345865	316.450816
1686.198582	315.962238
1688.054470	316.518881
1689.906384	312.034965
1691.757897	311.070862
1693.609009	309.856876
1695.459720	305.685315
1697.310031	303.711888
1699.158158	302.055478
1701.007668	294.555711
1702.851430	295.645688
1704.700142	295.590210
1706.543107	296.447552
1708.389238	292.663869
1710.231408	300.235897
1712.076742	303.226107
1713.916336	299.483450
1715.757314	296.541259
1717.599676	294.827040
1719.438080	294.993939
1721.277868	291.143590
1723.115481	288.644755
1724.952698	285.855944
1726.787742	279.967832
1728.624169	278.376224
1730.458424	283.965967
1732.292285	288.200932
1734.125751	289.579953
1735.955271	294.459207
1737.787950	292.355245
1739.616685	292.750117
1741.448578	292.462471
1743.276528	295.744056
1745.104086	292.915152
1746.931253	286.108625
1748.758028	287.767366
1750.584411	289.301632
1752.406858	291.375758
1754.232459	287.099767
1756.054126	288.035431
1757.877175	290.928205
1759.698063	281.729138
1761.518561	285.277855
1763.340441	287.434965
1765.156621	295.634499
1766.975953	286.144988
1768.791358	282.148718
1770.609914	285.113753
1772.424544	278.098368
1774.238787	276.434033
1776.052644	276.379953
1777.866114	280.579021
1779.677430	279.328205
1781.490128	279.961772
1783.302439	286.742191
1785.110833	290.254079
1786.920608	297.067599
1788.726467	285.329138
1790.535473	286.657343
1792.340565	288.530070
1794.147037	279.669464
1795.953126	279.605128
1797.755305	283.225641
1799.560627	282.701632
1801.362041	277.384615
1803.164835	279.207459
1804.963724	282.880186
1806.763992	283.835431
1808.563880	284.203263
1810.361625	283.544988
1812.158990	291.809324
1813.955974	291.047552
1815.752578	294.037762
1817.547043	295.046154
1819.342888	295.733800
1821.133077	287.955245
1822.928163	283.122145
1824.717596	288.628904
1826.510167	286.784615
1828.300602	280.392541
1830.088902	279.213054
1831.880338	279.296037
1833.666129	276.912354
1835.453298	277.771562
1837.238337	283.021445
1839.026508	280.837762
1840.810794	277.683916
1842.592951	278.343124
1844.376487	282.968765
1846.157894	289.606527
1847.940679	287.328205
1849.719585	282.865734
1851.499869	287.064336
1853.278028	282.629371
1855.057564	280.097902
1856.834976	278.591142
1858.610264	279.889510
1860.386931	276.021445
1862.161475	274.245221
1863.937396	279.628438
1865.707698	279.119814
1867.481127	281.527273
1869.252436	283.094639
1871.023374	279.742657
1872.795689	284.443823
1874.562392	280.381818
1876.332219	277.694172
1878.098183	272.399534
1879.867271	281.118415
1881.632497	279.483450
1883.397355	283.955245
1885.163589	287.820513
1886.925965	288.544522
1888.687974	291.804196
1890.449616	293.857343
1892.210890	286.744056
1893.971798	282.945455
1895.732338	270.894172
1897.490770	265.754779
1899.248835	260.612121
1901.004793	263.408392
1902.762127	260.497436
1904.519095	262.243823
1906.273958	261.774825
1908.026715	259.379953
1909.779109	263.409324
1911.532879	271.140793
1913.284545	271.855478
1915.034108	273.977156
1916.785048	272.790676
1918.535624	277.270396
1920.282362	276.413520
1922.030475	278.848485
1923.776489	279.689044
1925.523879	278.274592
1927.269170	276.268998
1929.012364	275.018182
1930.756934	275.226573
1932.499407	278.899301
1934.241520	278.291375
1935.983274	277.307459
1937.724667	277.523543
1939.463967	278.827739
1941.202908	279.041492
1942.941490	284.369464
1944.677980	285.134266
1946.414113	289.017949
1948.151620	291.561305
1949.885306	292.101865
1951.620366	285.959441
1953.353337	288.096270
1955.085952	284.941725
1956.818210	283.867366
1958.550112	282.819114
1960.279928	282.479720
1962.007660	282.128205
1963.736766	287.995804
1965.465516	287.814452
1967.192183	288.071795
1968.918496	285.570629
1970.646182	285.704895
1972.368333	281.332401
1974.093584	286.127273
1975.815028	284.552914
1977.539572	283.825641
1979.262037	288.777622
1980.980698	290.440093
1982.702458	288.292774
1984.420416	287.415851
1986.139748	280.681119
1987.855279	275.809324
1989.575632	273.140326
1991.292186	275.667599
1993.004943	274.194872
1994.720796	276.478322
1996.434577	277.839161
1998.148008	283.967366
1999.859367	287.318415
2001.572100	288.342657
2003.281041	286.897902
2004.993076	286.506294
2006.699601	280.744522
2008.409219	279.355711
2010.116769	282.819114
2011.823972	283.607925
2013.529109	284.152914
2015.233899	288.743590
2016.940061	293.127273
2018.642441	296.103963
2020.346193	292.403263
2022.047882	296.604196
2023.749225	298.116550
2025.450223	299.939394
2027.149161	297.285781
2028.849470	298.447086
2030.546003	294.498834
2032.243908	289.658275
2033.939755	288.223310
2035.638687	287.654545
2037.332133	287.487646
2039.026950	286.971096
2040.721424	283.375758
2042.412130	290.408858
2044.105920	292.316550
2045.795943	296.767832
2047.487337	301.233566
2049.176678	301.663869
2050.867389	295.441026
2052.554338	295.458741
2054.240946	290.824242
2055.928925	286.751515
2057.613144	287.223776
2059.298733	280.358508
2060.983983	279.181352
2062.667185	280.242424
2064.351757	276.530070
2066.030865	280.585548
2067.714759	282.776224
2069.393193	284.807459
2071.074704	285.815851
2072.752463	290.414918
2074.429886	290.466667
2076.108678	294.237296
2077.785427	294.862937
2079.460135	291.558508
2081.136212	292.433100
2082.810249	291.132401
2084.483950	289.408858
2086.157316	291.077389
2087.828644	286.016317
2089.499637	287.280186
2091.170296	285.148718
2092.840621	285.212121
2094.510611	281.721678
2096.178566	285.300699
2097.846188	284.185082
2099.511776	283.427506
2101.178732	284.731469
2102.843655	290.699767
2104.508245	291.801399
2106.170804	296.320746
2107.834732	293.807925
2109.496628	297.362238
2111.158193	294.938928
2112.819428	294.663403
2114.478633	294.030769
2116.137509	293.825175
2117.796054	291.507226
2119.454270	290.760373
2121.108763	290.200466
2122.766320	294.705361
2124.423547	292.337063
2126.077054	293.049417
2127.731928	288.961305
2129.383083	289.341725
2131.037301	285.630769
2132.687801	287.211655
2134.339669	288.488578
2135.986128	286.869930
2137.637341	286.624709
2139.284842	290.655012
2140.933709	292.732401
2142.580557	296.227506
2144.227080	294.215385
2145.873277	298.258741
2147.515765	294.006061
2149.161312	294.555711
2150.803152	288.850816
2152.448049	286.615385
2154.089241	284.796737
2155.730109	283.980420
2157.370654	282.972494
2159.009186	287.120280
2160.649084	283.621911
2162.285282	279.793939
2163.922846	277.597203
2165.560088	279.584149
2167.195320	271.647552
2168.830230	273.397669
2170.464819	268.156177
2172.099087	270.982284
2173.729661	269.837762
2175.363286	274.580886
2176.993220	277.497436
2178.624520	283.251748
2180.253814	283.115152
2181.882789	282.848951
2183.511444	279.718415
2185.139780	284.823776
2186.766113	283.693706
2188.392128	289.127273
2190.016142	287.999068
2191.641521	289.265268
2193.264899	281.893240
2194.889642	283.151049
2196.510703	277.209324
2198.131449	276.776224
2199.753558	273.425641
2201.373670	269.573893
2202.991786	265.099767
2204.609586	271.946387
2206.227070	275.874126
2207.844239	280.589277
2209.461093	281.507226
2211.077632	279.388345
2212.692177	275.697902
2214.304731	278.265734
2215.918648	274.576690
2217.530573	274.156643
2219.143863	269.542191
2220.755161	272.928671
2222.364471	271.460606
2223.975143	277.738462
2225.583827	277.919814
2227.192199	279.151515
2228.798583	277.242890
2230.406331	276.973427
2232.012092	274.770629
2233.617543	276.471329
2235.221008	275.659674
2236.825836	274.351981
2238.428680	272.235431
2240.029541	276.775758
2241.631765	278.054545
2243.232007	278.255478
2244.833611	272.471329
2246.431562	275.599534
2248.030876	275.722611
2249.628210	281.672727
2251.225236	280.551981
2252.823623	285.641492
2254.418362	282.416317
2256.011125	284.389744
2257.605249	285.482517
2259.200736	288.275058
2260.792577	290.610256
2262.384112	286.977156
2263.977008	281.252214
2265.564595	284.056410
2267.156879	281.934732
2268.743855	278.854079
2270.333860	274.038695
2271.918560	273.604196
2273.507954	268.550583
2275.092045	274.646620
2276.677498	278.689510
2278.260982	286.333800
2279.847491	291.583217
2281.430367	291.336597
2283.012939	290.786713
2284.595209	292.754312
2286.173848	286.254312
2287.755512	282.720280
2289.333547	278.603030
2290.914605	276.670862
2292.492036	267.475758
2294.067504	266.162238
2295.645994	267.817949
2297.220859	268.566434
2298.795425	266.259441
2300.369689	264.844289
2301.943653	265.014685
2303.517317	271.553846
2305.090680	281.945455
2306.660425	289.038695
2308.229871	287.585082
2309.802336	286.636364
2311.369526	283.294639
2312.939733	290.912821
2314.506327	284.976224
2316.074279	282.503963
2317.640277	276.606527
2319.205977	284.604662
2320.771379	293.457343
2322.334828	311.419114
2323.899636	326.549650
2325.460835	333.191608
2327.025049	329.651282
2328.584002	333.316084
2330.145968	323.275524
2331.705984	313.280186
2333.265704	287.088112
2334.823475	275.730536
2336.380952	267.329138
2337.938133	267.997669
2339.493368	266.006993
2341.048308	269.189744
2342.602955	277.200000
2344.157308	285.510956
2345.711367	289.621445
2347.265133	297.834499
2348.816954	288.799068
2350.366832	283.380420
2351.919718	272.336597
2353.467362	281.408858
2355.018013	282.912821
2356.565074	274.835431
2358.113492	268.836830
2359.661618	265.653613
2361.206157	267.503497
2362.752053	271.217249
2364.296010	269.854079
2365.841325	270.779021
2367.383055	266.270396
2368.926143	270.330536
2370.467294	276.593939
2372.008156	289.707226
2373.548729	285.142191
2375.089013	283.531935
2376.629008	283.661538
2378.165424	281.718881
2379.704842	283.294639
2381.240683	288.909091
2382.777880	280.620047
2384.311503	283.074126
2385.848125	282.303030
2387.382817	291.070862
2388.915578	289.013520
2390.448054	285.811189
2391.978601	273.773427
2393.512146	274.608858
2395.040480	273.669930
2396.570170	275.689977
2398.099575	283.459674
2399.628695	287.617249
2401.157529	282.008392
2402.681159	287.248019
2404.209424	286.583683
2405.732486	290.665268
2407.260183	287.056410
2408.781039	281.345921
2410.306529	274.240093
2411.828459	277.343590
2413.351743	281.979487
2414.873107	288.585082
2416.392551	292.117483
2417.913350	290.500699
2419.432230	286.195338
2420.950828	294.988345
2422.467509	291.863403
2423.985545	296.643357
2425.503299	293.289510
2427.017501	291.028904
2428.531423	288.497902
2430.045066	292.807459
2431.560062	290.591142
2433.071511	286.608858
2434.584313	279.958974
2436.095203	282.562704
2437.605813	281.961772
2439.114512	287.826573
2440.626198	282.314219
2442.134340	286.113753
2443.642203	284.134732
2445.149789	291.852214
2446.653835	288.285315
2448.160865	289.350583
2449.665987	280.201865
2451.170832	277.694639
2452.673770	275.700233
2454.176431	282.826573
2455.678816	281.589744
2457.179296	282.787879
2458.681129	280.461072
2460.181058	286.156177
2461.680711	287.720746
2463.180089	296.656876
2464.677564	285.825641
2466.173137	284.335198
2467.671690	280.893706
2469.166715	279.175758
2470.663092	277.233100
2472.155943	275.796270
2473.650146	273.110490
2475.144077	273.895105
2476.634483	272.912821
2478.127867	277.200932
2479.619353	272.286713
2481.108942	280.233566
2482.598259	277.459674
2484.085680	278.648951
2485.576077	274.052681
2487.062955	272.958974
2488.551186	278.371096
2490.035899	284.864336
2491.520342	286.270862
2493.006137	286.896037
2494.490039	285.577622
2495.975293	281.333800
2497.455413	274.762704
2498.938505	283.934266
2500.419708	279.189277
2501.900640	276.229837
2503.379684	265.829837
2504.858460	263.364569
2506.336967	264.883450
2507.815205	265.129604
2509.293176	263.243823
2510.767641	261.496037
2512.245075	261.033566
2513.719006	264.747786
2515.194288	264.415851
2516.669302	274.993939
2518.140815	271.437296
2519.613679	274.329604
2521.084660	265.283450
2522.556991	264.400932
2524.024208	263.762704
2525.494392	265.127739
2526.962694	265.042890
2528.430732	265.629371
2529.898505	268.020979
2531.366013	276.331935
2532.833257	275.835431
2534.297008	280.593007
2535.762109	278.070396
2537.225333	276.193473
2538.689906	268.738928
2540.150991	268.309091
2541.613425	264.846620
2543.075596	260.143124
2544.534280	254.528205
2545.997537	256.233566
2547.455697	257.099301
2548.915206	267.676457
2550.369622	270.868065
2551.828608	275.195338
2553.285721	278.890443
2554.740964	276.267599
2556.195946	270.704429
2557.649058	272.266200
2559.103519	272.776690
2560.556111	272.206527
2562.008443	263.974359
2563.458907	266.025175
2564.912327	261.755245
2566.360665	267.670862
2567.811959	267.920746
2569.261386	271.951049
2570.707342	273.426573
2572.156252	271.531469
2573.601691	273.140326
2575.048479	278.030303
2576.493403	278.349184
2577.938070	273.462937
2579.384084	264.821445
2580.826631	264.524942
2582.270526	261.330536
2583.710956	265.586480
2585.152734	270.168298
2586.592652	276.396737
2588.033917	280.527739
2589.471720	281.021911
2590.912473	282.570163
2592.348163	280.055478
2593.786803	276.765035
2595.223586	275.496037
2596.658512	275.374825
2598.096387	275.012587
2599.529204	278.302564
2600.963368	286.462937
2602.395677	290.235431
2603.829334	298.058741
2605.261136	299.773427
2606.692686	294.495105
2608.123982	289.282517
2609.553427	282.860140
2610.982619	279.160839
2612.409960	277.904895
2613.838648	279.635897
2615.267083	273.676457
2616.692072	273.331469
2618.118406	280.297436
2619.542892	282.137063
2620.968724	288.838228
2622.391112	284.414452
2623.814846	287.043357
2625.236734	291.840559
2626.658371	298.944056
2628.078164	298.745455
2629.499301	302.442890
2630.920189	300.143124
2632.337639	296.814452
2633.758028	298.503497
2635.174980	297.101166
2636.591684	291.318415
2638.008139	288.648019
2639.424346	282.217249
2640.840304	286.358042
2642.254422	291.899767
2643.668293	294.950117
2645.080324	294.539394
2646.493700	300.275524
2647.903646	304.361305
2649.316528	318.034499
2650.725981	318.896503
2652.135188	316.096503
2653.542559	314.436364
2654.952864	322.278322
2656.361333	316.572960
2657.767967	320.053613
2659.174356	316.170629
2660.578911	316.495571
2661.984810	316.678322
2663.388876	313.470862
2664.792698	314.573893
2666.196275	318.730070
2667.598021	311.488112
2669.001110	310.223310
2670.400781	315.681585
2671.801796	323.532401
2673.199395	323.447086
2674.599923	333.268531
2675.997037	330.116550
2677.395494	336.944056
2678.792123	334.379487
2680.188511	333.415385
2681.584656	331.661072
2682.978975	335.305828
2684.374637	328.972960
2685.766889	325.802797
2687.160485	328.624242
2688.552256	331.183217
2689.945369	328.512821
2691.336659	324.465734
2692.726126	315.440093
2694.115354	317.461072
2695.504341	313.822378
2696.894671	311.314685
2698.280016	309.902098
2699.668286	313.019580
2701.054735	306.975291
2702.440945	308.978089
2703.826916	309.667133
2705.209489	312.321212
2706.593404	305.974825
2707.977080	302.308625
2709.360519	305.277389
2710.740562	307.403730
2712.121947	303.717949
2713.501516	306.372028
2714.882427	305.518881
2716.261523	303.107226
2717.638805	294.058275
2719.017428	298.133333
2720.394237	288.325408
2721.770811	287.468065
2723.147149	279.399534
2724.521675	276.702564
2725.897542	275.275058
2727.270022	274.778555
2728.645419	276.955245
2730.015854	287.248019
2731.387631	285.728205
2732.759174	283.291841
2734.128908	276.777622
2735.499982	285.480653
2736.869249	271.879254
2738.238282	274.489044
2739.605508	267.616783
2740.972502	264.270396
2742.339263	261.600932
2743.705791	262.572028
2745.070515	259.907692
2746.435006	268.556177
2747.799265	263.589744
2749.163293	258.893706
2750.527088	257.123543
2751.887510	261.715152
2753.250843	251.658275
2754.609233	258.771096
2755.970533	254.615851
2757.328462	254.658741
2758.689301	250.751981
2760.048339	249.986480
2761.404009	247.037762
2762.762588	253.353380
2764.117799	249.110490
2765.472781	250.073660
2766.825966	249.386014
2768.182058	249.928205
2769.534786	248.834033
2770.887285	255.324942
2772.239557	254.770163
2773.593166	257.612121
2774.943414	255.220979
2776.291869	262.220047
2777.643228	260.551049
2778.991228	266.869930
2780.340567	260.771096
2781.688113	261.295105
2783.035432	260.288578
2784.382525	262.692308
2785.727827	259.259207
2787.072903	254.519814
2788.417753	249.432168
2789.762377	247.614452
2791.103648	245.304429
2792.446258	246.119814
2793.788643	249.977622
2795.130802	251.273193
2796.469612	245.694639
2797.811322	252.097436
2799.149683	248.093240
2800.489382	249.847086
2801.827295	243.385082
2803.163424	241.601865
2804.499330	240.988345
2805.836572	240.746387
2807.172031	236.254079
2808.507267	239.915152
2809.840721	242.651282
2811.175511	240.653147
2812.506960	245.247552
2813.841305	248.118415
2815.170752	242.204196
2816.501536	250.617716
2817.832098	248.854079
2819.160881	253.358974
2820.491001	253.764103
2821.819341	254.739394
2823.147461	248.309557
2824.473804	251.043357
2825.801482	246.598135
2827.125828	248.532401
2828.451510	251.765035
2829.775416	248.290909
2831.099102	242.457343
2832.424124	243.186480
2833.745817	236.213054
2835.067290	236.714685
2836.388545	234.466200
2837.709581	239.601399
2839.028845	231.905361
2840.349444	238.260606
2841.668271	242.184149
2842.986880	245.104895
2844.303719	244.900699
2845.620340	249.564569
2846.936743	248.510490
2848.251378	248.495105
2849.567347	240.654545
2850.879997	238.645688
2852.193981	233.994406
2853.507749	233.568765
2854.821300	225.518881
2856.133084	230.437762
2857.443103	232.651282
2858.754456	239.773427
2860.062493	241.602797
2861.371866	251.327739
2862.681023	250.417716
2863.989965	257.435431
2865.297144	255.250350
2866.602559	253.744988
2867.909309	248.641026
2869.214297	245.782751
2870.519070	247.750583
2871.822083	248.747786
2873.127976	254.353380
2874.429015	259.664336
2875.731387	254.988345
2877.032000	252.871329
2878.333947	252.271795
2879.635681	260.489044
2880.934111	253.591142
2882.233874	245.697902
2883.531880	239.172028
2884.829674	237.357576
2886.125711	240.488112
2887.423082	236.563636
2888.718697	241.543124
2890.014102	245.399534
2891.309295	244.018182
2892.601190	247.573893
2893.895962	250.311888
2895.187438	254.543590
2896.480246	250.388345
2897.772844	245.632168
2899.062147	236.574825
2900.352783	234.409324
2901.641669	233.951981
2902.931886	230.666667
2904.218812	231.281585
2905.507070	235.801399
2906.793579	228.382284
2908.079879	233.532867
2909.365971	231.971562
2910.650315	235.216783
2911.937531	239.447086
2913.219920	239.966434
2914.503641	237.400466
2915.785615	241.949650
2917.067383	243.469930
2918.347405	239.054545
2919.630297	234.903963
2920.911444	234.356643
2922.189309	226.710490
2923.470043	223.052681
2924.747496	218.711422
2926.024744	219.618182
2927.300249	223.893706
2928.578622	227.872261
2929.852181	232.824709
2931.128606	243.757576
2932.403291	244.303963
2933.676236	247.261538
2934.950511	250.033100
2936.223047	250.404662
2937.495379	244.097902
2938.764438	232.398601
2940.036362	228.049883
2941.306548	224.867133
2942.576530	222.874126
2943.846309	221.862471
2945.114351	220.046620
2946.380658	225.734732
2947.646762	226.071795
2948.914197	232.784615
2950.179896	232.639161
2951.445393	236.671329
2952.710689	235.580420
2953.972719	237.911422
2955.236079	234.407925
2956.499238	238.858275
2957.760664	237.245221
2959.023420	233.600466
2960.284445	225.904429
2961.543739	229.784615
2962.802832	228.618182
2964.061725	231.123077
2965.320418	222.901166
2966.578911	228.539394
2967.835675	224.344988
2969.092240	223.247086
2970.347076	222.487179
2971.603242	230.180420
2972.856152	229.161305
2974.110392	229.925874
2975.364433	224.439161
2976.616748	231.490909
2977.868865	233.475524
2979.119257	233.830769
2980.372504	223.789277
2981.620974	227.604662
2982.872298	219.731469
2984.120374	221.751981
2985.368252	225.538462
2986.615933	233.419580
2987.863418	233.318881
2989.109181	237.064802
2990.354747	235.694172
2991.601642	239.285315
2992.845291	241.439627
2994.090269	236.479254
2995.332004	231.182284
2996.576590	229.225641
2997.819457	223.708625
2999.059082	224.412121
3000.301559	222.463869
3001.540795	222.237296
3002.781359	215.325874
3004.020206	217.719347
3005.258859	216.731469
3006.495796	213.301632
3007.734061	214.518881
3008.970610	215.630769
3010.206966	211.861072
3011.443128	212.470396
3012.677576	215.296503
3013.911831	219.360373
3015.145893	215.017249
3016.378243	219.229371
3017.608881	219.961772
3018.842365	223.110023
3020.074138	221.671329
3021.304199	220.568298
3022.534069	220.282517
3023.762229	221.377156
3024.991716	218.486713
3026.219493	212.845221
3027.447079	212.650350
3028.675991	212.478788
3029.900161	210.160839
3031.127174	216.981818
3032.350964	213.720746
3033.576079	213.973427
3034.799488	212.527739
3036.022708	211.650350
3037.244222	211.196737
3038.468577	213.061538
3039.688197	212.659207
3040.909143	205.497902
3042.129899	202.024242
3043.348952	199.655478
3044.569331	197.824242
3045.786493	198.193939
3047.004980	194.764103
3048.221766	196.444755
3049.438363	196.423310
3050.654773	199.014452
3051.867969	198.736597
3053.084003	201.114219
3054.296825	203.499301
3055.512484	207.337063
3056.723420	200.521678
3057.935682	200.956643
3059.147756	205.347786
3060.359644	208.495571
3061.569834	210.056410
3062.779839	212.160839
3063.989657	210.430303
3065.197779	214.067599
3066.405715	210.403263
3067.611957	214.093240
3068.819523	209.602797
3070.025394	211.369231
3071.231080	205.796270
3072.436582	206.304895
3073.640390	212.301632
3074.845522	214.069464
3076.048961	210.174825
3077.250708	209.812121
3078.452272	207.456876
3079.653652	210.395804
3080.854848	208.856410
3082.054354	208.695105
3083.253676	203.119814
3084.454322	204.850816
3085.653279	202.819580
3086.849040	201.760839
3088.047631	204.915618
3089.243028	205.358508
3090.439749	203.178089
3091.633277	208.792541
3092.829633	203.871329
3094.024302	203.812121
3095.215781	204.957110
3096.411591	204.611655
3097.602708	199.867133
3098.795148	198.230303
3099.984399	195.958974
3101.176477	192.237762
3102.366871	192.898368
3103.554078	193.159907
3104.742609	195.248485
3105.932462	196.811655
3107.119130	194.933333
3108.305619	194.573893
3109.491928	193.530070
3110.679560	192.037762
3111.864009	188.042890
3113.046778	189.847086
3114.232371	190.446620
3115.416283	190.459207
3116.598517	192.497436
3117.780573	192.034033
3118.962450	190.631702
3120.144149	195.662937
3121.324171	198.695571
3122.502516	198.909557
3123.683681	196.245688
3124.861671	196.831702
3126.039484	196.227972
3127.217120	194.572494
3128.393081	192.789744
3129.568866	189.733800
3130.745971	190.220513
3131.921403	186.637296
3133.095161	184.656876
3134.267246	190.945455
3135.440652	187.887179
3136.613883	191.728671
3137.785442	189.389277
3138.958321	193.892308
3140.128033	194.464336
3141.299066	192.764569
3142.468428	190.558508
3143.636121	191.471329
3144.806629	191.399068
3145.972478	196.051748
3147.142637	197.591608
3148.308138	202.176690
3149.473466	200.617716
3150.638620	205.346853
3151.803601	203.448485
3152.969901	200.303030
3154.131548	195.455944
3155.294516	193.900699
3156.457311	190.582751
3157.619932	189.419114
3158.780889	182.793007
3159.941674	189.086247
3161.102286	188.186480
3162.261234	193.199068
3163.420010	190.300699
3164.578615	191.123543
3165.737048	190.328671
3166.895309	187.476457
3168.051909	189.335198
3169.206846	191.355245
3170.363104	186.209790
3171.517700	182.923077
3172.672126	177.408392
3173.824891	175.909091
3174.977487	171.679720
3176.129913	171.007925
3177.282168	169.624709
3178.434254	173.842424
3179.583193	175.229371
3180.734939	182.338928
3181.885028	187.137995
3183.033459	190.448485
3184.181722	189.188345
3185.329816	198.268065
3186.477741	194.354779
3187.624010	192.825175
3188.770111	189.760373
3189.914558	188.661538
3191.058836	188.467133
3192.202947	190.445221
3193.348376	188.538462
3194.490666	191.907226
3195.632788	191.713753
3196.774744	192.646620
3197.916532	191.002797
3199.058153	190.619114
3200.196638	184.709557
3201.336442	183.955245
3202.477562	183.917483
3203.615548	181.467599
3204.751885	179.329604
3205.888056	184.876923
3207.025545	186.369231
3208.161385	184.077389
3209.298542	177.573427
3210.431086	178.944988
3211.567911	174.758042
3212.700125	173.346387
3213.833657	175.924476
3214.967023	174.473193
3216.097262	179.400932
3217.230300	179.075058
3218.360210	181.920280
3219.491438	187.896503
3220.619540	184.012121
3221.750440	180.917016
3222.879695	179.880186
3224.007307	183.066200
3225.131796	179.560839
3226.260561	179.918881
3227.386204	177.141259
3228.511684	173.935198
3229.635523	175.723543
3230.762157	175.706760
3231.884192	179.067133
3233.007544	181.609790
3234.130734	176.837762
3235.253762	176.206993
3236.375150	171.957576
3237.496377	168.912821
3238.615965	168.176224
3239.735392	170.844755
3240.853182	163.880653
3241.973763	166.276457
3243.091231	168.184149
3244.208538	176.226573
3245.325684	181.057809
3246.441195	187.594872
3247.558021	180.899767
3248.671736	175.660606
3249.788242	173.135664
3250.903112	169.947786
3252.014874	167.646620
3253.126477	164.556643
3254.239395	156.379487
3255.352153	163.008858
3256.461805	164.638228
3257.572772	169.613520
3258.683580	173.979021
3259.792756	180.061538
3260.900301	177.248019
3262.009161	178.546387
3263.117862	178.925408
3264.223461	176.099767
3265.330375	167.867133
3266.435659	163.476923
3267.542257	163.429371
3268.645755	166.642890
3269.750567	165.490443
3270.855222	169.382284
3271.956779	174.194406
3273.058179	174.934266
3274.160893	174.361772
3275.263450	177.082984
3276.362912	174.279254
3277.465156	172.090909
3278.564306	165.542657
3279.661830	165.756177
3280.759200	170.484848
3281.859351	170.323543
3282.956409	171.403263
3284.053313	173.681119
3285.150061	171.291841
3286.242250	174.402797
3287.338689	174.598601
3288.433505	175.837762
3289.528166	170.029837
3290.621206	168.467133
3291.714092	168.375291
3292.805357	165.802797
3293.897935	166.822378
3294.988893	164.329138
3296.078231	168.568298
3297.167416	169.396737
3298.257913	166.673193
3299.345326	168.886247
3300.432587	164.521212
3301.521160	164.986480
3302.609580	161.369231
3303.693453	160.727739
3304.781568	162.669464
3305.866602	162.833566
3306.950020	160.736597
3308.034750	162.056410
3309.117864	164.050350
3310.202290	164.673660
3311.283638	157.122145
3312.366298	159.369697
3313.447344	153.263869
3314.528239	159.391608
3315.607521	161.823776
3316.686652	165.393939
3317.767095	166.688578
3318.844463	166.969697
3319.923143	167.253613
3321.000211	165.812121
3322.077129	160.866667
3323.152437	158.952448
3324.227595	152.764103
3325.304064	153.347786
3326.377462	147.648019
3327.450712	155.063869
3328.525273	158.270862
3329.598224	159.396737
3330.669568	158.233100
3331.742222	162.712354
3332.811809	169.024242
3333.882707	169.483450
3334.951998	169.849417
3336.022600	169.734732
3337.091595	166.608392
3338.158985	167.063403
3339.224768	168.363170
3340.294778	170.020513
3341.361725	168.684848
3342.425610	170.100233
3343.492263	169.341725
3344.557312	170.152448
3345.620757	170.014918
3346.684055	164.031235
3347.747208	163.054079
3348.810214	160.411655
3349.873073	159.204196
3350.934331	158.890443
3351.992532	158.136597
3353.054954	151.105828
3354.114319	154.074126
3355.173540	158.594872
3356.234069	159.747319
3357.290089	159.839161
3358.348874	157.707226
3359.403151	159.434499
3360.460192	160.053147
3361.515634	162.569231
3362.572385	165.691841
3363.627539	167.859207
3364.681095	162.550583
3365.733054	162.889977
3366.787776	166.280186
3367.839448	168.052681
3368.890976	168.083916
3369.943814	166.427040
3370.993604	163.551981
3372.044703	168.303963
3373.092755	164.168298
3374.143568	169.903030
3375.191335	167.005594
3376.238960	169.901166
3377.286443	164.662937
3378.332332	167.682051
3379.379531	161.058741
3380.423686	160.924476
3381.470600	155.862471
3382.515923	159.374359
3383.558204	153.599068
3384.600344	158.991142
3385.643793	160.072261
3386.687100	164.826573
3387.728817	164.002331
3388.770394	167.704895
3389.811829	167.181352
3390.851676	165.811189
3391.889934	161.056410
3392.929500	160.839161
3393.968926	162.499301
3395.006764	166.379021
3396.043015	159.732401
3397.079126	163.861072
3398.116545	164.171562
3399.150931	167.611189
3400.186625	166.695105
3401.222179	163.192541
3402.254701	160.607925
3403.289977	163.152448
3404.322222	159.755711
3405.354329	160.562238
3406.384853	162.079254
3407.416683	161.927273
3408.448375	160.197669
3409.477039	160.508159
3410.505566	157.794872
3411.535399	157.556643
3412.565095	154.369231
3413.591765	155.842890
3414.619741	152.704895
3415.644693	157.697436
3416.672396	150.866667
3417.697074	153.744522
3418.723059	152.937529
3419.747465	157.804196
3420.771733	153.651282
3421.794424	155.159441
3422.816978	152.657343
3423.840838	152.880653
3424.861678	150.121678
3425.882382	147.565168
3426.904392	145.010922
3427.923384	142.713020
3428.942241	140.925541
3429.962404	139.902564
3430.979549	139.898168
