-118.277064	3.048352
-115.607463	1.183516
-112.940798	0.186613
-110.274885	-0.096903
-107.611905	0.178422
-104.947494	0.858042
-102.286014	1.787413
-99.623105	3.292308
-96.965303	1.051748
-94.306070	4.248951
-91.647586	5.241259
-88.992027	6.697203
-86.335039	4.347552
-83.683148	7.191608
-81.029828	7.863636
-78.379427	6.537063
-75.727598	6.567133
-73.080859	6.296503
-70.432690	4.806294
-67.785265	1.708392
-65.140753	-0.562937
-62.494812	2.265734
-59.853954	6.220979
-57.211665	7.151049
-54.572286	7.468531
-51.931478	8.487413
-49.291409	6.466434
-46.656414	7.734965
-44.019989	6.783217
-41.386468	6.536364
-38.751517	5.884615
-36.121633	6.133566
-33.488155	8.951748
-30.859740	13.858741
-28.232059	15.476224
-25.602950	4.321678
-22.978897	-43.008392
-20.351254	-200.162238
-17.728666	-496.037063
-15.106808	-274.983217
-12.485681	776.389510
-9.865285	2216.870629
-7.247776	3359.511189
-4.628839	4124.709091
-2.012788	4507.534965
0.602536	4506.864336
3.217131	4125.206993
5.828845	3372.997203
8.441986	2275.920979
11.050095	952.401399
13.661784	-249.130769
16.268443	-637.014685
18.876530	-353.055944
21.483893	-31.255944
24.086231	3.044755
26.692147	4.688112
29.293042	4.598601
31.895364	4.706294
34.492668	5.664336
37.093548	7.524476
39.689414	9.669231
42.286707	14.214685
44.883281	12.834266
47.474846	9.578322
50.067839	9.627273
52.657972	6.823776
55.249531	4.013986
57.838231	2.801399
60.428359	0.911888
63.013487	1.641958
65.600043	2.865035
68.185884	7.816084
70.768872	11.750350
73.353287	16.509790
75.930572	18.106294
78.511424	17.655944
81.089427	19.645455
83.666720	14.470629
86.245440	12.400000
88.819177	8.151748
91.394341	5.604196
93.966662	5.951748
96.538276	8.790909
99.107049	9.289510
101.677249	9.530769
104.244610	13.754545
106.813398	16.618182
109.379349	17.889510
111.942464	18.448252
114.509137	18.629371
117.066587	22.965035
119.629723	23.446853
122.187900	33.656643
124.749631	51.464336
127.306405	86.610490
129.864605	135.911189
132.417853	197.746154
134.970402	274.285315
137.526503	359.212587
140.077655	447.121678
142.628110	536.562238
145.177867	617.418881
147.724805	679.002098
150.271048	719.921678
152.818716	743.004196
155.365688	753.051049
157.907724	756.555245
160.449068	752.969930
162.989718	742.569231
165.531793	731.834965
168.071058	725.088112
170.607513	715.618881
173.143278	713.674126
175.680468	713.548951
178.216967	714.695804
180.750660	714.520979
183.281549	714.902098
185.811750	715.522378
188.343376	715.502797
190.872202	717.563636
193.398228	716.813287
195.923568	713.381818
198.450333	712.857343
200.974302	709.046154
203.497585	707.968531
206.020184	708.902797
208.539990	711.583916
211.059113	712.118182
213.577553	712.721678
216.097418	709.962238
218.610280	709.409091
221.126674	710.343357
223.642387	710.034266
226.153209	714.690909
228.665456	721.741259
231.174920	729.187413
233.683706	729.720280
236.191814	733.865734
238.701346	738.327972
241.205997	741.493007
243.709972	742.109091
246.215371	742.971329
248.715895	746.749650
251.219942	750.317483
253.717019	753.160839
256.217618	757.886713
258.715446	762.330769
261.212601	763.795804
263.709084	767.213287
266.200703	774.351748
268.695841	776.630070
271.188214	780.121678
273.679916	783.448951
276.168855	784.998601
278.659217	790.690210
281.146818	792.937063
283.631659	793.978322
286.120014	794.158042
288.601431	796.772028
291.086361	796.308392
293.566445	796.044056
296.050042	797.406993
298.528797	795.206993
301.008974	794.417483
303.486400	797.600699
305.963162	807.600699
308.439260	836.916783
310.912610	883.578322
313.385299	936.420280
315.857326	990.297203
318.328691	1029.634266
320.797313	1051.532168
323.265275	1050.968531
325.734660	1037.306294
328.199222	1006.494406
330.667287	961.941259
333.130533	918.364336
335.593122	877.304196
338.055053	861.065035
340.516328	860.243357
342.974869	862.332867
345.434832	868.926573
347.892063	872.852448
350.348639	880.887413
352.804560	881.276224
355.257753	883.231469
357.712368	881.670629
360.162181	877.387413
362.615490	875.398601
365.064000	868.955944
367.511860	871.048951
369.961141	863.032867
372.405629	858.159441
374.851539	856.167133
377.296800	858.461538
379.739342	862.949650
382.181236	862.930070
384.622482	864.107692
387.061013	863.623077
389.500966	861.948951
391.938205	863.539161
394.372732	864.671329
396.810747	864.155944
399.243985	863.182517
401.678645	864.842657
404.108532	865.474126
406.541904	864.920280
408.970506	866.709790
411.398466	872.605594
413.827847	873.213986
416.252464	878.560140
418.678501	878.873427
421.103899	881.746853
423.528656	881.885315
425.948654	881.095804
428.370074	882.756643
430.788797	880.922378
433.208941	880.610490
435.626390	882.308392
438.045259	882.055245
440.461435	882.844056
442.872864	879.798601
445.287769	883.267832
447.699984	877.257343
450.111565	873.379021
452.522513	866.277622
454.930773	863.272028
457.338402	859.246154
459.745398	856.186713
462.151762	854.423077
464.555445	851.085315
466.958497	843.652448
469.360919	840.004196
471.762711	837.194406
474.161825	837.380420
476.562359	836.653147
478.962264	840.647552
481.357447	842.569930
483.756095	843.999301
486.150024	840.539161
488.543327	832.786713
490.936004	817.968531
493.328056	798.997203
495.721527	778.725874
498.110285	751.012587
500.496377	720.499301
502.883889	691.883916
505.270777	665.638462
507.655002	640.105594
510.040646	619.902797
512.423627	599.535664
514.803948	584.113986
517.185688	570.018182
519.564770	557.109790
521.945269	550.174126
524.323111	541.732168
526.698298	532.986713
529.072867	524.067832
531.448855	515.020979
533.822189	507.844755
536.196942	500.153147
538.567008	496.808392
540.936459	489.930070
543.307329	486.151748
545.673517	483.077622
548.041124	481.162238
550.406085	481.456643
552.770434	477.709790
555.134169	475.946853
557.499322	471.114685
559.859803	467.659441
562.221701	466.083916
564.580960	464.719580
566.937580	460.074825
569.297646	453.632867
571.651020	451.829371
574.007839	448.253147
576.362023	445.370629
578.715598	443.215385
581.068565	439.410490
583.418901	440.087413
585.770654	441.745455
588.115729	448.869930
590.466269	452.997902
592.810136	455.531469
595.159464	452.323776
597.504143	452.102797
599.846198	452.625874
602.189670	445.579021
604.530519	440.953147
606.870765	432.727273
609.208391	424.783217
611.549452	419.195804
613.885876	415.228671
616.223716	411.139161
618.558938	406.811888
620.891545	402.957343
623.225569	400.422378
625.556978	402.316783
627.887789	402.883916
630.218002	397.808392
632.547618	397.110490
634.872610	390.950350
637.203044	390.360140
639.528856	391.125175
641.852062	389.300000
644.176684	384.402797
646.498700	387.332867
648.820122	385.862937
651.138941	383.867133
653.459176	381.196503
655.778818	379.437063
658.095859	371.797902
660.412309	369.466434
662.726160	369.116783
665.041426	372.086713
667.354096	371.265035
669.668181	368.033566
671.977667	368.896503
674.288567	371.836364
676.596875	370.053147
678.904595	366.006993
681.213730	362.433566
683.518272	361.597203
685.822228	354.515385
688.125597	350.822378
690.430381	351.223077
692.730579	347.551748
695.032192	343.632867
697.333219	341.188811
699.629665	342.950350
701.927525	342.252448
704.224803	342.164336
706.521496	343.011189
708.813614	341.217483
711.109143	342.140559
713.400099	341.925874
715.692469	343.990210
717.982263	345.488112
720.271478	343.779021
722.560113	347.534266
724.846175	347.910490
727.133651	351.819580
729.418557	354.326573
731.702884	360.121678
733.984644	364.160140
736.267817	362.193706
738.550413	363.951748
740.828453	365.473427
743.107907	368.076224
745.386786	364.027273
747.665090	362.321678
749.938843	367.668531
752.214011	365.211888
754.488605	365.105594
756.760640	365.647552
759.034088	368.627972
761.304978	368.481818
763.573312	363.579021
765.843059	365.962238
768.110251	368.913986
770.376873	369.600699
772.642926	370.615385
774.906427	373.709790
777.171340	379.937063
779.435685	381.439161
781.695499	386.760839
783.956727	390.292308
786.217387	392.090909
788.475500	393.541259
790.731070	390.939860
792.990029	391.656643
795.242490	394.244755
797.500318	389.051748
799.753627	388.417483
802.004395	385.218881
804.256576	381.937762
806.506219	379.976923
808.757273	378.003497
811.003816	372.844056
813.251772	369.959441
815.497192	368.477622
817.744025	368.632168
819.990295	368.411189
822.232062	371.209790
824.477211	369.382517
826.715888	368.693007
828.957948	364.690210
831.195509	358.922378
833.434481	354.880420
835.670928	350.622378
837.908785	345.196503
840.144117	343.020979
842.376925	342.239161
844.611145	337.239161
846.842843	332.950350
849.073986	328.669930
851.304574	325.622378
853.534608	321.456643
855.764087	315.802098
857.989086	312.875524
860.217458	313.962937
862.441352	316.616084
864.666656	318.144755
866.887485	319.276224
869.111687	326.730769
871.331415	327.986713
873.552553	335.779021
875.773141	337.360140
877.991220	340.640559
880.210708	341.972028
882.425730	340.487413
884.640204	340.558741
886.854131	340.330769
889.067510	340.182517
891.280343	337.831469
893.492628	338.723776
895.702412	345.258741
897.911650	345.013986
900.120342	348.712587
902.326536	350.265734
904.534139	352.236364
906.739245	348.225175
908.943807	345.495804
911.145874	344.878322
913.349350	345.227972
915.550332	345.994406
917.750772	336.333566
919.952621	333.910490
922.148079	332.703497
924.346895	328.629371
926.541274	333.223776
928.739010	335.826573
930.932310	337.132168
933.127018	341.519580
935.319241	350.813986
937.510926	354.830769
939.702073	356.353147
941.890737	356.243357
944.078864	349.681119
946.264511	353.041259
948.453511	357.199301
950.638086	361.791608
952.822127	372.095804
955.009518	374.974126
957.188606	381.553846
959.371044	390.121678
961.552947	393.988112
963.732377	396.497203
965.909334	401.432168
968.087699	408.227972
970.267470	409.979720
972.440893	410.086014
974.617663	411.133566
976.790025	418.639161
978.963795	422.360839
981.133161	423.480420
983.305871	428.279021
985.476115	428.425874
987.645831	434.923776
989.815018	448.288112
991.979808	461.337762
994.147940	465.448951
996.311676	473.451748
998.476820	476.748252
1000.639504	475.481818
1002.801663	483.257343
1004.961364	490.106993
1007.120542	490.989510
1009.281126	497.207692
1011.439255	504.698601
1013.596860	516.361538
1015.753942	524.058042
1017.910501	522.719580
1020.062680	517.936364
1022.216266	521.180420
1024.369330	514.316783
1026.519945	512.443357
1028.671966	521.716084
1030.819615	524.106294
1032.970594	520.500000
1035.117204	530.512587
1037.263294	544.354545
1039.408866	548.372727
1041.555842	561.132168
1043.696531	567.169930
1045.840548	573.011888
1047.982126	577.569231
1050.123186	582.276923
1052.265651	589.732867
1054.401837	592.850350
1056.541349	586.240559
1058.676505	581.039161
1060.814986	584.690210
1062.949114	579.346853
1065.082728	572.719580
1067.217746	577.850350
1069.348415	577.167832
1071.480490	569.351049
1073.610134	568.330070
1075.739267	565.504895
1077.867889	557.441958
1079.995999	552.901399
1082.121683	546.521678
1084.246857	539.713986
1086.373434	532.155944
1088.495675	518.997203
1090.619320	507.695804
1092.738630	500.626573
1094.863169	495.525874
1096.981464	487.693007
1099.101162	483.987413
1101.218442	480.439161
1103.335216	470.083217
1105.451483	467.556643
1107.565335	460.211189
1109.680590	450.815385
1111.791523	439.465734
1113.905768	437.202098
1116.015692	432.748951
1118.127019	433.132168
1120.237843	439.216084
1122.344350	445.123077
1124.454166	445.906993
1126.559668	445.348951
1128.666574	436.427273
1130.767264	436.727972
1132.873165	429.786713
1134.974758	422.090909
1137.077754	423.081818
1139.180249	417.796503
1141.276538	411.207692
1143.378033	413.044755
1145.475226	417.221678
1147.571920	417.955245
1149.668117	418.621678
1151.763815	417.566434
1153.859016	419.939161
1155.951820	425.691608
1158.046026	425.602098
1160.134041	421.757343
1162.227254	420.693706
1164.314279	412.667832
1166.404604	408.975524
1168.490640	405.673427
1170.579974	400.862238
1172.663127	395.538462
1174.747683	400.128671
1176.833639	406.647552
1178.915315	412.238462
1180.998391	417.228671
1183.079082	420.311189
1185.159282	414.791608
1187.238990	409.409790
1189.318207	408.961538
1191.395041	407.056643
1193.469495	400.690210
1195.547241	403.039161
1197.620716	403.438462
1199.695593	407.816783
1201.766202	407.830769
1203.838212	406.974825
1205.907846	407.120280
1207.978881	406.240559
1210.049428	399.267133
1212.115715	393.272028
1214.183401	388.460839
1216.248716	388.736364
1218.315431	388.004895
1220.377890	393.041958
1222.443635	397.200699
1224.505125	398.690909
1226.568015	398.097203
1228.628538	398.047552
1230.688578	397.746154
1232.748134	396.321678
1234.805326	392.953846
1236.862035	391.309091
1238.916382	387.284615
1240.974009	386.525874
1243.029274	386.142657
1245.080298	386.682517
1247.132723	392.704895
1249.184667	395.629371
1251.234253	399.556643
1253.283360	403.083217
1255.331988	404.606993
1257.380138	402.841958
1259.427810	402.684615
1261.471251	402.848951
1263.517967	400.425175
1265.562331	395.997203
1267.606217	396.030769
1269.647753	394.516084
1271.686939	398.021678
1273.729397	394.788811
1275.767634	396.344755
1277.807268	401.025175
1279.846428	407.012587
1281.881370	414.179021
1283.917710	415.790909
1285.951705	418.386713
1287.987099	422.205594
1290.018279	430.406993
1292.050858	444.377622
1294.082964	449.042657
1296.112730	457.118881
1298.143894	462.626573
1300.170850	470.881119
1302.199204	485.600699
1304.223354	496.696503
1306.250769	503.844056
1308.273981	505.679720
1310.298591	515.504895
1312.320866	534.795804
1314.344539	550.367133
1316.365879	566.568531
1318.386752	577.220280
1320.407157	592.642657
1322.423369	611.380420
1324.440978	631.067133
1326.456259	653.037762
1328.474799	666.830070
1330.489149	678.110490
1332.501174	684.534266
1334.516457	693.867133
1336.527554	701.414685
1338.540047	700.302098
1340.548358	700.404196
1342.559925	691.449650
1344.565453	689.672028
1346.574235	684.138462
1348.578841	676.587413
1350.586700	668.846154
1352.594097	651.362937
1354.595462	634.932168
1356.598225	616.730769
1358.600528	602.704895
1360.602370	581.732168
1362.603754	567.183217
1364.602823	547.267133
1366.601434	530.121678
1368.599587	520.978322
1370.597282	508.847552
1372.590813	499.634266
1374.585741	490.679021
1376.580212	482.023776
1378.574226	477.882517
1380.565933	469.427273
1382.557184	466.010490
1384.546130	458.006993
1386.536471	451.520979
1388.526357	442.595105
1390.513940	437.750350
1392.501069	435.925175
1394.485896	433.268531
1396.472118	428.010490
1398.456039	427.906294
1400.439508	427.246853
1402.422525	421.795804
1404.403244	412.890909
1406.385357	411.079720
1408.365173	409.237762
1410.344539	408.138462
1412.319766	410.304196
1414.298231	411.827273
1416.274403	414.272028
1418.250125	410.670629
1420.225398	408.741259
1422.198381	414.016783
1424.170915	408.924476
1426.143001	399.834965
1428.114639	391.928671
1430.082150	386.452448
1432.054734	386.051748
1434.019512	386.548252
1435.989363	385.709091
1437.955089	387.735664
1439.922209	386.446154
1441.887045	386.643357
1443.847761	389.954545
1445.813545	393.779021
1447.773374	392.397203
1449.734596	390.832168
1451.697211	389.611189
1453.655711	391.357343
1455.613769	392.081818
1457.571384	389.784615
1459.528558	389.762937
1461.483456	392.972727
1463.439746	388.260839
1465.393762	389.640559
1467.347338	387.578322
1469.298641	385.083217
1471.251336	382.871329
1473.201760	379.924476
1475.151745	380.416783
1477.101291	380.684615
1479.048567	377.727972
1480.993577	378.969930
1482.939979	384.083916
1484.885943	388.621678
1486.831470	388.140559
1488.774731	390.260839
1490.717556	394.420979
1492.658118	398.142657
1494.600072	397.485315
1496.539763	397.720280
1498.479019	400.281818
1500.417841	397.491608
1502.354403	396.609790
1504.292355	394.375524
1506.228050	393.111189
1508.163311	396.269930
1510.096315	395.904895
1512.028887	399.060839
1513.961027	407.090909
1515.892735	407.125874
1517.822190	409.809091
1519.753034	419.227972
1521.683448	425.476224
1523.609789	428.795804
1525.537520	427.764336
1527.463001	424.996503
1529.388053	426.655944
1531.312676	428.060140
1533.236870	431.740559
1535.158817	439.053147
1537.082153	450.090210
1539.003244	450.188112
1540.922090	459.239860
1542.842326	467.471329
1544.760318	472.914685
1546.677884	480.958741
1548.593209	492.019580
1550.509922	501.027273
1552.422581	517.255245
1554.338444	533.565734
1556.252068	550.963636
1558.163453	570.611888
1560.076227	587.497902
1561.984953	596.120979
1563.895067	604.602098
1565.804758	609.486713
1567.714026	616.497203
1569.621059	623.809091
1571.525860	629.135664
1573.432050	631.795804
1575.336009	636.795804
1577.239546	637.132168
1579.142662	630.009091
1581.043550	620.322378
1582.945826	609.409091
1584.845873	595.674126
1586.747309	581.084615
1588.644710	574.974126
1590.541694	568.304895
1592.438259	562.767832
1594.336211	560.591608
1596.228329	558.711888
1598.123641	555.687413
1600.018534	548.860839
1601.911207	537.116783
1603.803462	527.281119
1605.693498	517.193007
1607.583118	500.038462
1609.472323	493.369231
1611.361112	492.628671
1613.247685	486.311888
1615.135645	481.457343
1617.019588	473.273427
1618.904918	467.538462
1620.789835	457.265035
1622.672538	442.917483
1624.556628	431.509091
1626.436706	420.125874
1628.318171	402.735664
1630.197426	394.210490
1632.078067	391.349650
1633.952905	386.137063
1635.832723	380.600699
1637.708536	374.052448
1639.583940	373.234266
1641.460729	370.681119
1643.331721	368.382517
1645.205896	367.029371
1647.076071	366.656643
1648.949427	356.982517
1650.820580	352.486713
1652.689531	354.644755
1654.559868	354.077622
1656.426211	345.720979
1658.293941	340.401399
1660.159471	336.796503
1662.026386	336.506993
1663.889313	332.683916
1665.753625	335.591608
1667.615742	332.149650
1669.477453	332.917483
1671.340549	326.839161
1673.201451	329.181818
1675.060159	328.727972
1676.918465	329.537063
1678.778154	331.134266
1680.632077	328.810490
1682.489173	332.215385
1684.345865	328.676923
1686.198582	326.524476
1688.054470	322.920979
1689.906384	318.814685
1691.757897	318.800000
1693.609009	323.061538
1695.459720	324.096503
1697.310031	320.100699
1699.158158	316.878322
1701.007668	326.200699
1702.851430	318.146853
1704.700142	321.364336
1706.543107	322.072028
1708.389238	315.657343
1710.231408	316.878322
1712.076742	314.305594
1713.916336	316.309091
1715.757314	326.944056
1717.599676	322.805594
1719.438080	318.547552
1721.277868	318.984615
1723.115481	325.747552
1724.952698	325.114685
1726.787742	332.972028
1728.624169	332.618881
1730.458424	315.332867
1732.292285	308.215385
1734.125751	303.121678
1735.955271	298.418881
1737.787950	298.420280
1739.616685	293.379021
1741.448578	290.481119
1743.276528	282.711888
1745.104086	288.362238
1746.931253	299.169231
1748.758028	309.179720
1750.584411	312.332168
1752.406858	313.827273
1754.232459	323.236364
1756.054126	332.262238
1757.877175	328.309790
1759.698063	335.167832
1761.518561	332.149650
1763.340441	322.181818
1765.156621	308.491608
1766.975953	306.547552
1768.791358	302.279720
1770.609914	298.835664
1772.424544	293.794406
1774.238787	295.239161
1776.052644	296.516783
1777.866114	291.573427
1779.677430	283.198601
1781.490128	289.342657
1783.302439	287.755944
1785.110833	294.776923
1786.920608	300.279720
1788.726467	297.741259
1790.535473	303.462238
1792.340565	308.288112
1794.147037	312.679021
1795.953126	312.417483
1797.755305	314.559441
1799.560627	308.167133
1801.362041	302.076224
1803.164835	301.429371
1804.963724	294.044056
1806.763992	296.365035
1808.563880	298.034965
1810.361625	297.211888
1812.158990	303.102797
1813.955974	303.224476
1815.752578	306.892308
1817.547043	303.283217
1819.342888	309.478322
1821.133077	310.925874
1822.928163	311.637063
1824.717596	308.179021
1826.510167	301.654545
1828.300602	307.384615
1830.088902	307.328671
1831.880338	308.687413
1833.666129	301.190909
1835.453298	296.500000
1837.238337	298.121678
1839.026508	298.134965
1840.810794	295.439161
1842.592951	297.245455
1844.376487	293.200000
1846.157894	298.096503
1847.940679	299.085315
1849.719585	302.228671
1851.499869	295.962937
1853.278028	296.383217
1855.057564	290.235664
1856.834976	292.035664
1858.610264	298.141958
1860.386931	301.936364
1862.161475	295.798601
1863.937396	299.361538
1865.707698	308.848951
1867.481127	316.469930
1869.252436	310.706294
1871.023374	309.148252
1872.795689	299.300000
1874.562392	300.311888
1876.332219	299.690210
1878.098183	297.189510
1879.867271	301.090210
1881.632497	299.668531
1883.397355	296.547552
1885.163589	300.381119
1886.925965	308.381119
1888.687974	303.851748
1890.449616	296.976923
1892.210890	293.130769
1893.971798	288.165035
1895.732338	288.385315
1897.490770	285.027273
1899.248835	280.695804
1901.004793	277.393706
1902.762127	275.709790
1904.519095	269.294406
1906.273958	271.530769
1908.026715	273.530769
1909.779109	276.583916
1911.532879	280.551748
1913.284545	289.561538
1915.034108	296.088811
1916.785048	298.919580
1918.535624	306.364336
1920.282362	306.125874
1922.030475	303.935664
1923.776489	307.407692
1925.523879	298.113986
1927.269170	298.497902
1929.012364	294.779021
1930.756934	299.498601
1932.499407	300.555245
1934.241520	301.539161
1935.983274	298.477622
1937.724667	297.626573
1939.463967	298.326573
1941.202908	295.609091
1942.941490	292.189510
1944.677980	294.606294
1946.414113	292.004895
1948.151620	294.923776
1949.885306	295.610490
1951.620366	301.687413
1953.353337	302.132168
1955.085952	304.995105
1956.818210	308.548951
1958.550112	314.767832
1960.279928	317.060839
1962.007660	314.006294
1963.736766	311.727972
1965.465516	314.750350
1967.192183	312.571329
1968.918496	309.964336
1970.646182	308.805594
1972.368333	306.678322
1974.093584	306.571329
1975.815028	303.687413
1977.539572	301.495804
1979.262037	300.422378
1980.980698	299.993007
1982.702458	291.667133
1984.420416	292.265035
1986.139748	291.539860
1987.855279	288.827273
1989.575632	291.222378
1991.292186	296.758741
1993.004943	299.437762
1994.720796	306.232867
1996.434577	307.852448
1998.148008	311.197203
1999.859367	312.593007
2001.572100	312.368531
2003.281041	302.404895
2004.993076	301.387413
2006.699601	298.697203
2008.409219	294.242657
2010.116769	292.316084
2011.823972	290.745455
2013.529109	288.369231
2015.233899	293.909790
2016.940061	301.981818
2018.642441	305.080420
2020.346193	311.679720
2022.047882	310.625874
2023.749225	309.480420
2025.450223	317.051049
2027.149161	316.429371
2028.849470	315.513986
2030.546003	311.032168
2032.243908	306.305594
2033.939755	298.256643
2035.638687	302.511888
2037.332133	306.288112
2039.026950	307.773427
2040.721424	316.493706
2042.412130	315.395804
2044.105920	317.421678
2045.795943	323.355245
2047.487337	323.326573
2049.176678	317.978322
2050.867389	309.800000
2052.554338	298.806294
2054.240946	291.009091
2055.928925	292.206294
2057.613144	293.346853
2059.298733	295.148951
2060.983983	295.764336
2062.667185	297.694406
2064.351757	295.215385
2066.030865	298.172028
2067.714759	300.029371
2069.393193	295.388112
2071.074704	295.688811
2072.752463	291.186014
2074.429886	294.303497
2076.108678	298.217483
2077.785427	303.831469
2079.460135	305.793007
2081.136212	306.995804
2082.810249	308.516084
2084.483950	305.911888
2086.157316	312.209790
2087.828644	314.698601
2089.499637	314.359441
2091.170296	315.804895
2092.840621	311.953147
2094.510611	308.830769
2096.178566	307.027972
2097.846188	308.816084
2099.511776	304.709790
2101.178732	298.062937
2102.843655	297.995105
2104.508245	299.889510
2106.170804	305.712587
2107.834732	310.562238
2109.496628	314.939860
2111.158193	319.187413
2112.819428	321.107692
2114.478633	318.374825
2116.137509	314.718881
2117.796054	311.881119
2119.454270	301.137762
2121.108763	294.439860
2122.766320	296.222378
2124.423547	296.279720
2126.077054	300.293706
2127.731928	305.643357
2129.383083	310.008392
2131.037301	314.329371
2132.687801	318.934965
2134.339669	318.207692
2135.986128	314.715385
2137.637341	313.955944
2139.284842	311.878322
2140.933709	315.124476
2142.580557	318.069231
2144.227080	322.034965
2145.873277	317.573427
2147.515765	315.833566
2149.161312	312.292308
2150.803152	311.129371
2152.448049	308.938462
2154.089241	305.455245
2155.730109	302.589510
2157.370654	298.918881
2159.009186	298.215385
2160.649084	298.569231
2162.285282	301.768531
2163.922846	303.655245
2165.560088	302.660140
2167.195320	306.946853
2168.830230	312.505594
2170.464819	315.420979
2172.099087	312.661538
2173.729661	313.246853
2175.363286	310.048252
2176.993220	307.218182
2178.624520	301.521678
2180.253814	298.930769
2181.882789	296.882517
2183.511444	296.860140
2185.139780	297.911888
2186.766113	298.590210
2188.392128	299.555245
2190.016142	298.608392
2191.641521	296.746853
2193.264899	304.290210
2194.889642	303.417483
2196.510703	307.728671
2198.131449	303.241259
2199.753558	302.180420
2201.373670	300.013986
2202.991786	300.476923
2204.609586	296.551049
2206.227070	295.832867
2207.844239	295.099301
2209.461093	297.683217
2211.077632	301.153147
2212.692177	306.130769
2214.304731	308.284615
2215.918648	312.437063
2217.530573	312.086713
2219.143863	314.351748
2220.755161	313.665035
2222.364471	310.744755
2223.975143	307.953846
2225.583827	303.953147
2227.192199	301.272727
2228.798583	300.791608
2230.406331	293.730769
2232.012092	289.736364
2233.617543	290.570629
2235.221008	289.362238
2236.825836	289.911888
2238.428680	290.454545
2240.029541	294.823776
2241.631765	295.268531
2243.232007	293.767832
2244.833611	288.902098
2246.431562	292.191608
2248.030876	292.103497
2249.628210	291.521678
2251.225236	292.687413
2252.823623	296.313986
2254.418362	299.927972
2256.011125	301.552448
2257.605249	309.872727
2259.200736	319.376923
2260.792577	318.603497
2262.384112	313.565734
2263.977008	308.849650
2265.564595	305.646154
2267.156879	297.516084
2268.743855	292.762238
2270.333860	285.503497
2271.918560	288.701399
2273.507954	291.466434
2275.092045	291.471329
2276.677498	293.686014
2278.260982	296.002797
2279.847491	300.090210
2281.430367	300.967832
2283.012939	303.776224
2284.595209	304.387413
2286.173848	300.586713
2287.755512	300.157343
2289.333547	301.439860
2290.914605	303.406294
2292.492036	301.799301
2294.067504	293.930070
2295.645994	293.603497
2297.220859	295.420280
2298.795425	290.700699
2300.369689	287.365734
2301.943653	285.662238
2303.517317	276.325175
2305.090680	268.704196
2306.660425	258.189510
2308.229871	255.026573
2309.802336	255.174825
2311.369526	259.472028
2312.939733	260.911189
2314.506327	275.047552
2316.074279	282.182517
2317.640277	285.875524
2319.205977	290.540559
2320.771379	295.077622
2322.334828	304.373427
2323.899636	315.649650
2325.460835	319.343357
2327.025049	330.752448
2328.584002	333.241958
2330.145968	328.106294
2331.705984	319.009091
2333.265704	315.213986
2334.823475	303.322378
2336.380952	297.229371
2337.938133	289.209790
2339.493368	290.052448
2341.048308	292.642657
2342.602955	295.672727
2344.157308	294.035664
2345.711367	298.866434
2347.265133	295.446853
2348.816954	285.432867
2350.366832	283.507692
2351.919718	279.384615
2353.467362	279.410490
2355.018013	282.147552
2356.565074	281.619580
2358.113492	285.093007
2359.661618	286.696503
2361.206157	285.886014
2362.752053	285.975524
2364.296010	290.615385
2365.841325	294.263636
2367.383055	287.199301
2368.926143	287.098601
2370.467294	283.155245
2372.008156	285.576224
2373.548729	280.887413
2375.089013	278.746154
2376.629008	278.832867
2378.165424	277.811189
2379.704842	271.867832
2381.240683	270.431469
2382.777880	273.497203
2384.311503	273.589510
2385.848125	261.352448
2387.382817	259.395804
2388.915578	266.297902
2390.448054	270.082517
2391.978601	266.747552
2393.512146	272.693007
2395.040480	286.773427
2396.570170	296.120280
2398.099575	309.051049
2399.628695	314.232168
2401.157529	322.259441
2402.681159	322.979720
2404.209424	326.834965
2405.732486	325.351748
2407.260183	329.606294
2408.781039	319.920979
2410.306529	312.565035
2411.828459	301.644056
2413.351743	302.389510
2414.873107	299.990210
2416.392551	296.457343
2417.913350	285.412587
2419.432230	285.836364
2420.950828	297.800699
2422.467509	304.292308
2423.985545	306.629371
2425.503299	318.595804
2427.017501	322.725175
2428.531423	328.779720
2430.045066	322.600699
2431.560062	321.411888
2433.071511	311.854545
2434.584313	291.202797
2436.095203	279.418182
2437.605813	276.249650
2439.114512	273.109091
2440.626198	268.146154
2442.134340	267.792308
2443.642203	266.367832
2445.149789	262.776224
2446.653835	266.488811
2448.160865	273.906294
2449.665987	277.837762
2451.170832	280.158741
2452.673770	280.122378
2454.176431	291.916783
2455.678816	301.788112
2457.179296	306.488112
2458.681129	306.269930
2460.181058	297.781119
2461.680711	288.425175
2463.180089	280.901399
2464.677564	284.154545
2466.173137	285.097203
2467.671690	285.913287
2469.166715	278.589510
2470.663092	279.977622
2472.155943	292.250350
2473.650146	296.064336
2475.144077	286.141259
2476.634483	279.999301
2478.127867	274.904196
2479.619353	269.358741
2481.108942	268.783217
2482.598259	270.852448
2484.085680	258.383217
2485.576077	255.839161
2487.062955	258.497203
2488.551186	261.958741
2490.035899	264.018881
2491.520342	260.577622
2493.006137	252.916084
2494.490039	258.525175
2495.975293	254.176923
2497.455413	257.416084
2498.938505	268.623077
2500.419708	271.041958
2501.900640	270.903497
2503.379684	279.412587
2504.858460	285.044755
2506.336967	283.924476
2507.815205	286.135664
2509.293176	288.067133
2510.767641	292.579720
2512.245075	299.893706
2513.719006	297.890210
2515.194288	303.688811
2516.669302	302.978322
2518.140815	296.269231
2519.613679	299.132867
2521.084660	303.472727
2522.556991	296.586713
2524.024208	295.679720
2525.494392	288.571329
2526.962694	287.558741
2528.430732	289.588112
2529.898505	290.868531
2531.366013	286.313287
2532.833257	279.398601
2534.297008	277.355944
2535.762109	283.415385
2537.225333	288.791608
2538.689906	300.529371
2540.150991	296.836364
2541.613425	296.881818
2543.075596	295.003497
2544.534280	300.588112
2545.997537	297.332168
2547.455697	299.961538
2548.915206	297.915385
2550.369622	298.293007
2551.828608	301.273427
2553.285721	302.748252
2554.740964	294.050350
2556.195946	289.330769
2557.649058	278.216084
2559.103519	275.004895
2560.556111	266.227273
2562.008443	265.465734
2563.458907	268.020280
2564.912327	280.053147
2566.360665	289.024476
2567.811959	304.859441
2569.261386	314.618182
2570.707342	321.905594
2572.156252	324.151049
2573.601691	327.197203
2575.048479	329.351049
2576.493403	325.307692
2577.938070	309.662937
2579.384084	306.660839
2580.826631	305.156643
2582.270526	307.265035
2583.710956	306.036364
2585.152734	309.197203
2586.592652	308.143357
2588.033917	307.290210
2589.471720	306.409091
2590.912473	306.615385
2592.348163	299.230769
2593.786803	288.949650
2595.223586	279.047552
2596.658512	278.496503
2598.096387	278.936364
2599.529204	283.734965
2600.963368	291.620979
2602.395677	297.265035
2603.829334	297.863636
2605.261136	304.632867
2606.692686	304.111189
2608.123982	304.406294
2609.553427	294.453147
2610.982619	294.004196
2612.409960	292.731469
2613.838648	289.690909
2615.267083	291.252448
2616.692072	293.716783
2618.118406	302.454545
2619.542892	303.172028
2620.968724	299.125175
2622.391112	301.544056
2623.814846	298.127972
2625.236734	289.584615
2626.658371	283.579021
2628.078164	290.067832
2629.499301	289.737762
2630.920189	289.646154
2632.337639	293.730070
2633.758028	298.097203
2635.174980	308.902098
2636.591684	314.962238
2638.008139	318.202797
2639.424346	318.860839
2640.840304	317.213287
2642.254422	312.200000
2643.668293	314.355944
2645.080324	315.209091
2646.493700	314.631469
2647.903646	315.379021
2649.316528	317.180420
2650.725981	324.910490
2652.135188	333.141259
2653.542559	339.832867
2654.952864	332.525175
2656.361333	324.669930
2657.767967	326.728671
2659.174356	321.845455
2660.578911	319.322378
2661.984810	319.841259
2663.388876	318.437063
2664.792698	318.368531
2666.196275	327.766434
2667.598021	330.456643
2669.001110	334.905594
2670.400781	330.853147
2671.801796	331.446853
2673.199395	335.638462
2674.599923	341.085315
2675.997037	334.126573
2677.395494	338.319580
2678.792123	336.383217
2680.188511	330.453846
2681.584656	329.306294
2682.978975	329.839161
2684.374637	327.226573
2685.766889	325.845455
2687.160485	319.912587
2688.552256	324.687413
2689.945369	318.230070
2691.336659	320.617483
2692.726126	310.953846
2694.115354	311.429371
2695.504341	311.246853
2696.894671	314.975524
2698.280016	321.425874
2699.668286	326.483916
2701.054735	330.232867
2702.440945	331.865734
2703.826916	333.417483
2705.209489	329.724476
2706.593404	329.920979
2707.977080	329.152448
2709.360519	318.414685
2710.740562	318.402797
2712.121947	316.977622
2713.501516	311.348252
2714.882427	308.657343
2716.261523	304.014685
2717.638805	295.598601
2719.017428	293.323776
2720.394237	293.448252
2721.770811	296.811189
2723.147149	304.644755
2724.521675	302.038462
2725.897542	308.824476
2727.270022	305.193706
2728.645419	302.454545
2730.015854	298.126573
2731.387631	294.720979
2732.759174	292.839860
2734.128908	289.130070
2735.499982	282.389510
2736.869249	284.446154
2738.238282	290.663636
2739.605508	298.893706
2740.972502	294.757343
2742.339263	296.684615
2743.705791	285.788112
2745.070515	286.084615
2746.435006	281.839860
2747.799265	272.129371
2749.163293	275.463636
2750.527088	275.343357
2751.887510	274.055944
2753.250843	279.530070
2754.609233	280.177622
2755.970533	285.153846
2757.328462	279.702797
2758.689301	274.748252
2760.048339	274.889510
2761.404009	276.934965
2762.762588	269.269231
2764.117799	268.430769
2765.472781	270.121678
2766.825966	271.707692
2768.182058	269.376923
2769.534786	269.227972
2770.887285	257.897203
2772.239557	261.898601
2773.593166	259.263636
2774.943414	258.346154
2776.291869	262.808392
2777.643228	268.151748
2778.991228	266.511888
2780.340567	272.740559
2781.688113	269.571329
2783.035432	268.816783
2784.382525	268.407692
2785.727827	263.842657
2787.072903	258.041259
2788.417753	263.705594
2789.762377	263.065734
2791.103648	257.455245
2792.446258	252.891608
2793.788643	254.511189
2795.130802	253.467832
2796.469612	258.843357
2797.811322	258.168531
2799.149683	260.883217
2800.489382	263.273427
2801.827295	263.365734
2803.163424	263.953147
2804.499330	266.076224
2805.836572	268.446853
2807.172031	261.887413
2808.507267	267.217483
2809.840721	266.787413
2811.175511	270.623776
2812.506960	272.638462
2813.841305	271.676923
2815.170752	269.818881
2816.501536	270.046853
2817.832098	268.397902
2819.160881	259.501399
2820.491001	258.127972
2821.819341	257.281119
2823.147461	261.187413
2824.473804	264.896503
2825.801482	262.104895
2827.125828	260.132867
2828.451510	262.209091
2829.775416	256.206294
2831.099102	249.458042
2832.424124	250.239161
2833.745817	240.209091
2835.067290	242.879720
2836.388545	240.017483
2837.709581	241.474126
2839.028845	247.829371
2840.349444	253.937762
2841.668271	262.213287
2842.986880	258.089510
2844.303719	257.492308
2845.620340	249.269930
2846.936743	250.127273
2848.251378	250.058741
2849.567347	252.009091
2850.879997	261.262238
2852.193981	256.176224
2853.507749	256.635664
2854.821300	262.060839
2856.133084	265.847552
2857.443103	263.534266
2858.754456	253.858042
2860.062493	242.925874
2861.371866	239.526573
2862.681023	236.578322
2863.989965	234.578322
2865.297144	238.793007
2866.602559	239.534965
2867.909309	235.927972
2869.214297	240.121678
2870.519070	246.560839
2871.822083	253.741259
2873.127976	258.595804
2874.429015	260.986713
2875.731387	254.860839
2877.032000	259.402797
2878.333947	257.801399
2879.635681	259.365734
2880.934111	256.574126
2882.233874	253.468531
2883.531880	249.190909
2884.829674	250.395804
2886.125711	247.243357
2887.423082	248.088112
2888.718697	240.967133
2890.014102	239.217483
2891.309295	237.558741
2892.601190	242.565734
2893.895962	248.215385
2895.187438	254.965035
2896.480246	260.922378
2897.772844	265.609790
2899.062147	274.015385
2900.352783	274.785315
2901.641669	272.865035
2902.931886	264.203497
2904.218812	261.355245
2905.507070	257.853147
2906.793579	257.606993
2908.079879	255.724476
2909.365971	260.139860
2910.650315	258.641958
2911.937531	257.775524
2913.219920	250.909790
2914.503641	248.711189
2915.785615	240.035664
2917.067383	237.001399
2918.347405	234.315385
2919.630297	238.913287
2920.911444	240.002797
2922.189309	250.225175
2923.470043	255.989510
2924.747496	264.276224
2926.024744	264.602797
2927.300249	265.204895
2928.578622	261.183217
2929.852181	255.752448
2931.128606	247.898601
2932.403291	243.808392
2933.676236	240.246853
2934.950511	235.984615
2936.223047	231.683916
2937.495379	229.320979
2938.764438	236.359441
2940.036362	241.969231
2941.306548	244.901399
2942.576530	247.316084
2943.846309	253.289510
2945.114351	253.555245
2946.380658	245.163636
2947.646762	240.310490
2948.914197	239.935664
2950.179896	233.005594
2951.445393	229.402098
2952.710689	228.787413
2953.972719	241.784615
2955.236079	241.920979
2956.499238	244.708392
2957.760664	245.323776
2959.023420	245.921678
2960.284445	243.862238
2961.543739	235.719580
2962.802832	233.497902
2964.061725	238.381818
2965.320418	231.975524
2966.578911	232.591608
2967.835675	232.823077
2969.092240	236.441958
2970.347076	233.665035
2971.603242	233.176224
2972.856152	231.725874
2974.110392	232.976224
2975.364433	236.818881
2976.616748	238.283916
2977.868865	247.383916
2979.119257	253.989510
2980.372504	249.906993
2981.620974	247.841958
2982.872298	249.127972
2984.120374	243.284615
2985.368252	236.695105
2986.615933	229.333566
2987.863418	229.174126
2989.109181	224.702098
2990.354747	224.439860
2991.601642	226.934965
2992.845291	233.283217
2994.090269	233.348252
2995.332004	227.588811
2996.576590	228.134965
2997.819457	229.525874
2999.059082	223.796503
3000.301559	224.934965
3001.540795	224.202098
3002.781359	227.625175
3004.020206	229.213986
3005.258859	233.731469
3006.495796	231.646154
3007.734061	232.029371
3008.970610	222.586713
3010.206966	216.294406
3011.443128	216.193007
3012.677576	212.793706
3013.911831	207.542657
3015.145893	214.877622
3016.378243	221.674126
3017.608881	233.831469
3018.842365	236.829371
3020.074138	238.258741
3021.304199	235.308392
3022.534069	239.429371
3023.762229	231.053147
3024.991716	229.804895
3026.219493	225.165734
3027.447079	219.420280
3028.675991	211.904196
3029.900161	213.358042
3031.127174	219.635664
3032.350964	223.984615
3033.576079	224.220979
3034.799488	224.736364
3036.022708	223.975524
3037.244222	230.160839
3038.468577	227.404196
3039.688197	228.458042
3040.909143	223.751748
3042.129899	216.539860
3043.348952	209.830070
3044.569331	213.320280
3045.786493	215.432867
3047.004980	219.541958
3048.221766	215.566434
3049.438363	209.336364
3050.654773	205.545455
3051.867969	204.628671
3053.084003	201.967133
3054.296825	206.362238
3055.512484	207.358042
3056.723420	214.848951
3057.935682	226.595804
3059.147756	238.702098
3060.359644	237.434965
3061.569834	238.536364
3062.779839	234.237413
3063.989657	235.544755
3065.197779	231.317133
3066.405715	225.869231
3067.611957	219.929720
3068.819523	220.846853
3070.025394	227.074476
3071.231080	234.250350
3072.436582	231.843007
3073.640390	226.628671
3074.845522	218.236713
3076.048961	215.964336
3077.250708	216.940909
3078.452272	218.296503
3079.653652	211.966434
3080.854848	206.971329
3082.054354	205.739161
3083.253676	210.200000
3084.454322	219.966434
3085.653279	217.541958
3086.849040	215.461538
3088.047631	215.969231
3089.243028	217.227273
3090.439749	221.020979
3091.633277	213.538462
3092.829633	209.111189
3094.024302	198.429371
3095.215781	195.574126
3096.411591	195.769930
3097.602708	197.180420
3098.795148	199.774825
3099.984399	197.223776
3101.176477	200.741259
3102.366871	205.230070
3103.554078	207.667133
3104.742609	209.354545
3105.932462	207.686014
3107.119130	213.155944
3108.305619	207.779720
3109.491928	211.252448
3110.679560	212.597902
3111.864009	210.396503
3113.046778	208.331469
3114.232371	208.287413
3115.416283	207.857343
3116.598517	207.059441
3117.780573	208.595804
3118.962450	208.534965
3120.144149	211.043357
3121.324171	206.770629
3122.502516	203.570629
3123.683681	210.800699
3124.861671	214.767133
3126.039484	220.223776
3127.217120	222.623776
3128.393081	229.176224
3129.568866	229.930070
3130.745971	229.706294
3131.921403	228.451748
3133.095161	220.809790
3134.267246	208.482517
3135.440652	194.677622
3136.613883	189.686713
3137.785442	185.562937
3138.958321	188.379720
3140.128033	183.981119
3141.299066	184.504196
3142.468428	193.353846
3143.636121	197.873427
3144.806629	205.176224
3145.972478	213.305594
3147.142637	216.409091
3148.308138	211.435664
3149.473466	211.251748
3150.638620	206.971329
3151.803601	200.087413
3152.969901	195.056643
3154.131548	182.200000
3155.294516	181.418182
3156.457311	179.076224
3157.619932	174.732867
3158.780889	172.652448
3159.941674	178.358042
3161.102286	182.153846
3162.261234	184.132867
3163.420010	186.071329
3164.578615	186.786014
3165.737048	188.102098
3166.895309	189.495105
3168.051909	193.297902
3169.206846	193.363636
3170.363104	190.440559
3171.517700	184.746154
3172.672126	176.718182
3173.824891	177.179720
3174.977487	178.223776
3176.129913	175.570629
3177.282168	173.697203
3178.434254	171.067832
3179.583193	175.043357
3180.734939	180.695804
3181.885028	185.965734
3183.033459	186.388811
3184.181722	189.314685
3185.329816	190.486014
3186.477741	191.644056
3187.624010	190.583916
3188.770111	190.452448
3189.914558	192.690909
3191.058836	193.069231
3192.202947	191.186014
3193.348376	196.769930
3194.490666	199.793007
3195.632788	190.744755
3196.774744	195.251049
3197.916532	196.746853
3199.058153	197.298601
3200.196638	196.475524
3201.336442	191.025874
3202.477562	186.242657
3203.615548	185.155944
3204.751885	184.827273
3205.888056	188.830769
3207.025545	190.988112
3208.161385	190.415385
3209.298542	183.107692
3210.431086	191.353846
3211.567911	193.869930
3212.700125	200.809091
3213.833657	201.523776
3214.967023	202.509790
3216.097262	199.072028
3217.230300	194.467832
3218.360210	192.544056
3219.491438	193.734965
3220.619540	192.246154
3221.750440	185.613986
3222.879695	181.206294
3224.007307	183.264336
3225.131796	184.593007
3226.260561	183.481818
3227.386204	180.288811
3228.511684	185.776923
3229.635523	182.367133
3230.762157	182.402098
3231.884192	183.814685
3233.007544	188.228671
3234.130734	192.855245
3235.253762	195.704196
3236.375150	198.873427
3237.496377	196.811888
3238.615965	193.180420
3239.735392	186.572727
3240.853182	183.982517
3241.973763	180.844755
3243.091231	173.655944
3244.208538	179.149650
3245.325684	178.619580
3246.441195	181.169231
3247.558021	183.929371
3248.671736	188.676923
3249.788242	187.750350
3250.903112	185.079720
3252.014874	187.247552
3253.126477	183.290210
3254.239395	185.990909
3255.352153	190.111888
3256.461805	191.845455
3257.572772	195.816783
3258.683580	196.351748
3259.792756	197.176224
3260.900301	195.290210
3262.009161	194.830769
3263.117862	189.686713
3264.223461	184.201399
3265.330375	178.361538
3266.435659	170.937063
3267.542257	173.022378
3268.645755	176.214685
3269.750567	175.680420
3270.855222	176.081119
3271.956779	178.325874
3273.058179	181.755245
3274.160893	187.779021
3275.263450	195.677622
3276.362912	203.665035
3277.465156	205.644755
3278.564306	202.297902
3279.661830	199.191608
3280.759200	195.923776
3281.859351	193.348951
3282.956409	186.830769
3284.053313	175.502797
3285.150061	171.609790
3286.242250	167.186713
3287.338689	167.789510
3288.433505	169.900000
3289.528166	173.027972
3290.621206	173.078322
3291.714092	174.181119
3292.805357	173.946853
3293.897935	176.682517
3294.988893	175.615385
3296.078231	178.172028
3297.167416	177.021678
3298.257913	179.294406
3299.345326	172.058042
3300.432587	174.148252
3301.521160	168.386014
3302.609580	163.896503
3303.693453	171.144755
3304.781568	167.704895
3305.866602	169.046853
3306.950020	176.126573
3308.034750	173.770629
3309.117864	181.194406
3310.202290	181.127972
3311.283638	182.519580
3312.366298	181.776923
3313.447344	185.593007
3314.528239	182.497203
3315.607521	181.974126
3316.686652	185.036364
3317.767095	178.051049
3318.844463	179.090210
3319.923143	176.913986
3321.000211	171.202098
3322.077129	170.243357
3323.152437	167.515385
3324.227595	165.969231
3325.304064	169.049650
3326.377462	173.104895
3327.450712	175.579720
3328.525273	174.140559
3329.598224	176.832867
3330.669568	176.813287
3331.742222	179.351049
3332.811809	177.678322
3333.882707	178.269930
3334.951998	176.000000
3336.022600	171.125175
3337.091595	171.422378
3338.158985	171.938462
3339.224768	172.161538
3340.294778	174.724476
3341.361725	174.511189
3342.425610	174.773427
3343.492263	170.104895
3344.557312	170.598601
3345.620757	165.342657
3346.684055	166.872727
3347.747208	164.211189
3348.810214	162.267832
3349.873073	164.962238
3350.934331	164.862238
3351.992532	171.000699
3353.054954	176.046853
3354.114319	177.543357
3355.173540	174.975524
3356.234069	171.499301
3357.290089	172.181119
3358.348874	166.586713
3359.403151	165.312587
3360.460192	163.035664
3361.515634	162.653147
3362.572385	163.988112
3363.627539	166.475524
3364.681095	170.281119
3365.733054	170.379720
3366.787776	171.455245
3367.839448	171.757343
3368.890976	171.129371
3369.943814	171.767832
3370.993604	164.441259
3372.044703	161.371329
3373.092755	160.877622
3374.143568	157.568531
3375.191335	158.869231
3376.238960	160.905594
3377.286443	161.017483
3378.332332	158.281119
3379.379531	160.616783
3380.423686	162.437762
3381.470600	161.004895
3382.515923	158.915385
3383.558204	156.115385
3384.600344	156.940559
3385.643793	161.158741
3386.687100	161.248252
3387.728817	166.189510
3388.770394	165.495105
3389.811829	165.890909
3390.851676	164.543357
3391.889934	167.158741
3392.929500	163.449650
3393.968926	158.607692
3395.006764	157.309091
3396.043015	161.158042
3397.079126	164.755245
3398.116545	162.733566
3399.150931	163.146853
3400.186625	162.052448
3401.222179	153.624476
3402.254701	150.826573
3403.289977	146.501399
3404.322222	145.679720
3405.354329	142.439860
3406.384853	146.804196
3407.416683	149.446154
3408.448375	158.130769
3409.477039	164.293706
3410.505566	164.600699
3411.535399	172.534965
3412.565095	169.523077
3413.591765	165.879720
3414.619741	167.022378
3415.644693	165.632867
3416.672396	166.062238
3417.697074	162.965734
3418.723059	164.193007
3419.747465	163.118182
3420.771733	166.937063
3421.794424	167.118881
3422.816978	164.408392
3423.840838	165.977622
3424.861678	162.645455
3425.882382	163.127572
3426.904392	163.236389
3427.923384	162.486414
3428.942241	160.392158
3429.962404	156.468132
3430.979549	150.228846
