-118.277064	7.269231
-115.607463	6.426374
-112.940798	5.407093
-110.274885	4.295305
-107.611905	3.174925
-104.947494	2.129870
-102.286014	1.244056
-99.623105	-0.904895
-96.965303	-0.265734
-94.306070	0.243357
-91.647586	1.396503
-88.992027	3.177622
-86.335039	2.827273
-83.683148	5.250350
-81.029828	3.337762
-78.379427	2.409790
-75.727598	2.092308
-73.080859	2.065734
-70.432690	3.068531
-67.785265	3.395804
-65.140753	5.258741
-62.494812	6.967832
-59.853954	8.268531
-57.211665	13.214685
-54.572286	14.684615
-51.931478	20.202098
-49.291409	19.897902
-46.656414	16.938462
-44.019989	16.196503
-41.386468	13.259441
-38.751517	12.998601
-36.121633	11.099301
-33.488155	14.060140
-30.859740	11.983916
-28.232059	9.544056
-25.602950	2.086713
-22.978897	-47.516084
-20.351254	-195.264336
-17.728666	-481.445455
-15.106808	-288.482517
-12.485681	746.715385
-9.865285	2216.981119
-7.247776	3416.581119
-4.628839	4228.287413
-2.012788	4644.603497
0.602536	4662.186014
3.217131	4288.548252
5.828845	3532.165035
8.441986	2416.867133
11.050095	1065.939860
13.661784	-177.706993
16.268443	-634.075524
18.876530	-376.975524
21.483893	-36.386014
24.086231	15.914685
26.692147	17.086713
29.293042	15.269231
31.895364	14.638462
34.492668	14.032168
37.093548	14.533566
39.689414	11.986014
42.286707	12.072028
44.883281	11.672727
47.474846	12.874825
50.067839	15.036364
52.657972	14.456643
55.249531	9.123776
57.838231	7.690909
60.428359	5.538462
63.013487	3.862937
65.600043	4.630070
68.185884	3.618881
70.768872	5.128671
73.353287	6.348951
75.930572	6.780420
78.511424	10.794406
81.089427	10.455245
83.666720	11.278322
86.245440	9.815385
88.819177	11.537063
91.394341	10.793706
93.966662	11.530769
96.538276	9.567832
99.107049	8.721678
101.677249	11.931469
104.244610	13.088112
106.813398	12.358042
109.379349	13.888112
111.942464	16.066434
114.509137	19.700000
117.066587	24.000000
119.629723	27.731469
122.187900	37.570629
124.749631	60.019580
127.306405	91.288811
129.864605	142.621678
132.417853	210.822378
134.970402	294.309790
137.526503	385.425874
140.077655	481.996503
142.628110	576.343357
145.177867	661.876923
147.724805	724.774825
150.271048	764.916084
152.818716	787.048252
155.365688	793.146853
157.907724	790.895105
160.449068	783.400699
162.989718	774.715385
165.531793	769.010490
168.071058	762.317483
170.607513	758.883916
173.143278	758.603497
175.680468	761.671329
178.216967	757.850350
180.750660	757.409091
183.281549	749.500699
185.811750	742.867133
188.343376	739.185315
190.872202	739.922378
193.398228	742.734965
195.923568	745.658741
198.450333	747.564336
200.974302	748.372028
203.497585	748.703497
206.020184	747.851748
208.539990	750.001399
211.059113	750.469231
213.577553	747.706993
216.097418	747.718182
218.610280	749.594406
221.126674	756.268531
223.642387	757.927273
226.153209	760.146853
228.665456	762.462238
231.174920	763.379720
233.683706	765.459441
236.191814	770.150350
238.701346	775.948951
241.205997	778.848252
243.709972	780.190909
246.215371	786.100699
248.715895	790.218182
251.219942	792.605594
253.717019	793.126573
256.217618	799.534266
258.715446	800.939161
261.212601	804.888112
263.709084	809.343357
266.200703	817.135664
268.695841	814.889510
271.188214	815.864336
273.679916	818.004196
276.168855	820.460140
278.659217	822.474126
281.146818	825.237063
283.631659	826.423776
286.120014	829.190210
288.601431	827.398601
291.086361	835.817483
293.566445	837.104196
296.050042	839.652448
298.528797	837.361538
301.008974	839.418182
303.486400	841.321678
305.963162	847.325874
308.439260	877.054545
310.912610	921.568531
313.385299	968.288112
315.857326	1018.386014
318.328691	1052.314685
320.797313	1081.247552
323.265275	1087.539161
325.734660	1078.225175
328.199222	1048.720979
330.667287	1006.034266
333.130533	959.320979
335.593122	925.521678
338.055053	911.983916
340.516328	909.743357
342.974869	908.208392
345.434832	911.885315
347.892063	907.493706
350.348639	913.883916
352.804560	915.739161
355.257753	916.156643
357.712368	909.300699
360.162181	903.465734
362.615490	897.330769
365.064000	897.057343
367.511860	893.334965
369.961141	891.494406
372.405629	889.181818
374.851539	889.831469
377.296800	891.302098
379.739342	896.501399
382.181236	898.278322
384.622482	900.873427
387.061013	899.618182
389.500966	902.183217
391.938205	900.631469
394.372732	900.048252
396.810747	897.979720
399.243985	900.341259
401.678645	901.584615
404.108532	904.772727
406.541904	903.672727
408.970506	902.063636
411.398466	897.080420
413.827847	897.464336
416.252464	897.583217
418.678501	902.551748
421.103899	903.946853
423.528656	908.757343
425.948654	913.167133
428.370074	917.588112
430.788797	920.353846
433.208941	925.686713
435.626390	920.373427
438.045259	917.058741
440.461435	915.604196
442.872864	918.635664
445.287769	918.673427
447.699984	920.502098
450.111565	916.381818
452.522513	914.116084
454.930773	908.285315
457.338402	902.962937
459.745398	892.550350
462.151762	887.089510
464.555445	878.144755
466.958497	871.353147
469.360919	863.682517
471.762711	859.488811
474.161825	858.066434
476.562359	856.713287
478.962264	855.523776
481.357447	860.358042
483.756095	861.829371
486.150024	864.661538
488.543327	854.436364
490.936004	851.962937
493.328056	839.060839
495.721527	816.931469
498.110285	788.209790
500.496377	762.116783
502.883889	729.843357
505.270777	699.832168
507.655002	670.767133
510.040646	648.460140
512.423627	627.623776
514.803948	614.079021
517.185688	595.498601
519.564770	588.202098
521.945269	577.183916
524.323111	572.294406
526.698298	564.136364
529.072867	560.992308
531.448855	552.527972
533.822189	548.485315
536.196942	542.072028
538.567008	539.751049
540.936459	536.527972
543.307329	532.896503
545.673517	525.690909
548.041124	520.386713
550.406085	515.439161
552.770434	512.700000
555.134169	505.360140
557.499322	500.715385
559.859803	495.944755
562.221701	493.867832
564.580960	494.369930
566.937580	496.002098
569.297646	494.587413
571.651020	488.952448
574.007839	485.776923
576.362023	485.115385
578.715598	483.011888
581.068565	481.504196
583.418901	475.642657
585.770654	473.453147
588.115729	474.670629
590.466269	477.188811
592.810136	479.215385
595.159464	478.230769
597.504143	479.318182
599.846198	477.273427
602.189670	476.842657
604.530519	478.090909
606.870765	475.491608
609.208391	470.914685
611.549452	463.623077
613.885876	460.825874
616.223716	454.716783
618.558938	450.760140
620.891545	447.093706
623.225569	444.455944
625.556978	445.695804
627.887789	440.920280
630.218002	435.163636
632.547618	435.242657
634.872610	432.098601
637.203044	429.370629
639.528856	426.083217
641.852062	427.809790
644.176684	425.990909
646.498700	428.963636
648.820122	431.128671
651.138941	430.458741
653.459176	428.046154
655.778818	421.531469
658.095859	415.632867
660.412309	412.406993
662.726160	407.048951
665.041426	403.421678
667.354096	401.058741
669.668181	407.451049
671.977667	408.082517
674.288567	410.156643
676.596875	409.972727
678.904595	408.939161
681.213730	407.258042
683.518272	403.459441
685.822228	400.092308
688.125597	391.884615
690.430381	385.347552
692.730579	381.601399
695.032192	380.911888
697.333219	383.269930
699.629665	380.259441
701.927525	379.186014
704.224803	378.658042
706.521496	380.341958
708.813614	383.230769
711.109143	384.986713
713.400099	382.939161
715.692469	381.365734
717.982263	383.406294
720.271478	382.036364
722.560113	381.261538
724.846175	383.877622
727.133651	382.273427
729.418557	384.120280
731.702884	384.909091
733.984644	386.421678
736.267817	386.191608
738.550413	388.204895
740.828453	389.048252
743.107907	387.652448
745.386786	387.139860
747.665090	387.590210
749.938843	385.657343
752.214011	389.253846
754.488605	389.924476
756.760640	397.013287
759.034088	398.334965
761.304978	402.698601
763.573312	407.189510
765.843059	414.935664
768.110251	418.034266
770.376873	417.363636
772.642926	423.036364
774.906427	425.818881
777.171340	421.783217
779.435685	424.792308
781.695499	425.514685
783.956727	426.986713
786.217387	426.168531
788.475500	427.006993
790.731070	429.516783
792.990029	429.342657
795.242490	427.646154
797.500318	429.033566
799.753627	423.976224
802.004395	420.156643
804.256576	413.404895
806.506219	409.837762
808.757273	403.509790
811.003816	400.511888
813.251772	402.428671
815.497192	402.324476
817.744025	407.111189
819.990295	408.159441
822.232062	409.762937
824.477211	413.940559
826.715888	408.490210
828.957948	406.464336
831.195509	398.630769
833.434481	391.243357
835.670928	380.339161
837.908785	374.564336
840.144117	370.241259
842.376925	365.425175
844.611145	363.562937
846.842843	362.006993
849.073986	360.319580
851.304574	363.964336
853.534608	364.618182
855.764087	370.002098
857.989086	371.373427
860.217458	374.861538
862.441352	370.731469
864.666656	370.013986
866.887485	370.275524
869.111687	371.930070
871.331415	376.570629
873.552553	377.565734
875.773141	377.727273
877.991220	382.208392
880.210708	385.285315
882.425730	391.293706
884.640204	395.013986
886.854131	395.623776
889.067510	387.507692
891.280343	387.043357
893.492628	388.810490
895.702412	388.602797
897.911650	387.674126
900.120342	382.038462
902.326536	375.753147
904.534139	377.066434
906.739245	378.921678
908.943807	383.251049
911.145874	383.458741
913.349350	378.186713
915.550332	374.105594
917.750772	374.304196
919.952621	373.529371
922.148079	373.949650
924.346895	369.520979
926.541274	368.806294
928.739010	372.752448
930.932310	380.361538
933.127018	386.698601
935.319241	393.894406
937.510926	392.961538
939.702073	396.554545
941.890737	397.924476
944.078864	401.554545
946.264511	403.827273
948.453511	409.315385
950.638086	410.675524
952.822127	416.211189
955.009518	420.433566
957.188606	426.230070
959.371044	428.644755
961.552947	430.709091
963.732377	434.741958
965.909334	444.594406
968.087699	447.628671
970.267470	459.311888
972.440893	461.509790
974.617663	477.743357
976.790025	487.497203
978.963795	496.460839
981.133161	501.712587
983.305871	512.544056
985.476115	516.276224
987.645831	517.425874
989.815018	529.061538
991.979808	532.112587
994.147940	533.918182
996.311676	541.521678
998.476820	540.274126
1000.639504	547.569231
1002.801663	551.598601
1004.961364	553.086713
1007.120542	547.372727
1009.281126	540.953147
1011.439255	541.297203
1013.596860	542.424476
1015.753942	546.394406
1017.910501	550.932867
1020.062680	558.759441
1022.216266	565.611888
1024.369330	575.325874
1026.519945	580.537762
1028.671966	591.505594
1030.819615	596.829371
1032.970594	591.016084
1035.117204	597.988112
1037.263294	604.609091
1039.408866	604.879021
1041.555842	601.139161
1043.696531	611.979720
1045.840548	618.307692
1047.982126	622.993007
1050.123186	627.637063
1052.265651	624.309790
1054.401837	629.406993
1056.541349	635.426573
1058.676505	631.988811
1060.814986	644.595105
1062.949114	644.177622
1065.082728	640.913287
1067.217746	638.521678
1069.348415	644.847552
1071.480490	641.609091
1073.610134	642.152448
1075.739267	633.369930
1077.867889	625.367133
1079.995999	609.293007
1082.121683	598.221678
1084.246857	592.504895
1086.373434	585.681818
1088.495675	578.399301
1090.619320	576.246853
1092.738630	570.223776
1094.863169	566.718881
1096.981464	562.274825
1099.101162	563.100699
1101.218442	552.845455
1103.335216	543.672727
1105.451483	522.472727
1107.565335	514.627972
1109.680590	505.855245
1111.791523	493.509790
1113.905768	496.601399
1116.015692	500.606294
1118.127019	502.267133
1120.237843	506.046853
1122.344350	510.033566
1124.454166	514.372727
1126.559668	509.380420
1128.666574	513.186713
1130.767264	505.706294
1132.873165	503.934965
1134.974758	490.498601
1137.077754	485.411189
1139.180249	485.324476
1141.276538	481.471329
1143.378033	484.726573
1145.475226	484.189510
1147.571920	484.704895
1149.668117	488.809790
1151.763815	486.083217
1153.859016	493.400000
1155.951820	491.923077
1158.046026	489.731469
1160.134041	476.955944
1162.227254	471.133566
1164.314279	469.865734
1166.404604	469.490909
1168.490640	466.204196
1170.579974	464.900699
1172.663127	471.471329
1174.747683	474.039161
1176.833639	475.200000
1178.915315	476.682517
1180.998391	477.434266
1183.079082	480.402098
1185.159282	482.276923
1187.238990	479.791608
1189.318207	480.344056
1191.395041	482.488112
1193.469495	475.365734
1195.547241	472.854545
1197.620716	474.512587
1199.695593	470.562937
1201.766202	467.676224
1203.838212	467.967832
1205.907846	468.862937
1207.978881	470.825175
1210.049428	469.519580
1212.115715	467.995804
1214.183401	469.067133
1216.248716	466.891608
1218.315431	457.704196
1220.377890	452.557343
1222.443635	448.066434
1224.505125	449.143357
1226.568015	450.885315
1228.628538	453.569231
1230.688578	455.530769
1232.748134	455.460140
1234.805326	459.669930
1236.862035	467.500000
1238.916382	474.641958
1240.974009	473.207692
1243.029274	473.064336
1245.080298	475.986713
1247.132723	479.258741
1249.184667	487.102098
1251.234253	484.709091
1253.283360	484.482517
1255.331988	484.155245
1257.380138	488.644056
1259.427810	494.265035
1261.471251	497.527972
1263.517967	499.490909
1265.562331	498.155245
1267.606217	497.463636
1269.647753	498.369930
1271.686939	503.279720
1273.729397	505.549650
1275.767634	505.754545
1277.807268	514.216084
1279.846428	518.576923
1281.881370	533.093007
1283.917710	538.939161
1285.951705	542.829371
1287.987099	550.047552
1290.018279	559.753846
1292.050858	562.141259
1294.082964	568.904196
1296.112730	583.669930
1298.143894	597.100000
1300.170850	606.375524
1302.199204	620.509091
1304.223354	634.836364
1306.250769	647.791608
1308.273981	659.288112
1310.298591	677.250350
1312.320866	699.255245
1314.344539	721.520280
1316.365879	741.688811
1318.386752	763.556643
1320.407157	787.263636
1322.423369	808.766434
1324.440978	826.151049
1326.456259	853.912587
1328.474799	869.879021
1330.489149	883.100699
1332.501174	893.925874
1334.516457	902.344056
1336.527554	908.476224
1338.540047	912.067133
1340.548358	905.851049
1342.559925	892.697902
1344.565453	875.828671
1346.574235	857.782517
1348.578841	842.072727
1350.586700	830.986014
1352.594097	804.839860
1354.595462	788.747552
1356.598225	767.201399
1358.600528	743.691608
1360.602370	727.197203
1362.603754	709.276923
1364.602823	688.419580
1366.601434	666.149650
1368.599587	645.038462
1370.597282	628.302797
1372.590813	612.130070
1374.585741	605.872028
1376.580212	589.307692
1378.574226	583.058741
1380.565933	575.504895
1382.557184	567.541958
1384.546130	562.920280
1386.536471	556.879720
1388.526357	553.120280
1390.513940	540.870629
1392.501069	531.704196
1394.485896	524.391608
1396.472118	515.044056
1398.456039	508.998601
1400.439508	499.560140
1402.422525	494.716783
1404.403244	491.674126
1406.385357	488.533566
1408.365173	485.942657
1410.344539	485.080420
1412.319766	487.060140
1414.298231	488.902098
1416.274403	490.932168
1418.250125	490.551748
1420.225398	483.850350
1422.198381	477.748951
1424.170915	477.886713
1426.143001	474.453147
1428.114639	474.150350
1430.082150	473.922378
1432.054734	472.416783
1434.019512	472.581818
1435.989363	477.397203
1437.955089	479.023077
1439.922209	476.364336
1441.887045	472.092308
1443.847761	468.643357
1445.813545	466.923776
1447.773374	467.585315
1449.734596	466.509790
1451.697211	465.781818
1453.655711	463.521678
1455.613769	459.152448
1457.571384	458.632867
1459.528558	460.341958
1461.483456	460.373427
1463.439746	459.669231
1465.393762	462.662238
1467.347338	461.709091
1469.298641	459.922378
1471.251336	460.252448
1473.201760	459.120280
1475.151745	456.588112
1477.101291	451.924476
1479.048567	449.745455
1480.993577	454.682517
1482.939979	457.093706
1484.885943	461.880420
1486.831470	462.205594
1488.774731	467.706993
1490.717556	467.048951
1492.658118	470.117483
1494.600072	468.825175
1496.539763	469.930070
1498.479019	472.566434
1500.417841	470.900699
1502.354403	471.885315
1504.292355	475.491608
1506.228050	475.912587
1508.163311	475.143357
1510.096315	474.726573
1512.028887	480.913986
1513.961027	481.140559
1515.892735	485.248252
1517.822190	484.279021
1519.753034	491.386014
1521.683448	495.209091
1523.609789	499.977622
1525.537520	507.936364
1527.463001	519.560839
1529.388053	525.195105
1531.312676	531.453147
1533.236870	537.942657
1535.158817	551.168531
1537.082153	556.696503
1539.003244	564.322378
1540.922090	570.473427
1542.842326	579.906993
1544.760318	591.974126
1546.677884	616.176224
1548.593209	637.609790
1550.509922	662.774825
1552.422581	679.484615
1554.338444	704.880420
1556.252068	728.076224
1558.163453	753.336364
1560.076227	766.632867
1561.984953	782.804196
1563.895067	785.835664
1565.804758	792.994406
1567.714026	792.651748
1569.621059	791.613986
1571.525860	785.172028
1573.432050	781.398601
1575.336009	767.207692
1577.239546	768.399301
1579.142662	761.993706
1581.043550	754.620979
1582.945826	744.430070
1584.845873	738.664336
1586.747309	725.013287
1588.644710	720.187413
1590.541694	707.862937
1592.438259	702.723077
1594.336211	694.646154
1596.228329	690.844755
1598.123641	683.660140
1600.018534	684.796503
1601.911207	675.382517
1603.803462	669.106294
1605.693498	657.988112
1607.583118	642.170629
1609.472323	628.525175
1611.361112	610.111888
1613.247685	587.755944
1615.135645	569.416084
1617.019588	541.934266
1618.904918	523.883916
1620.789835	502.288112
1622.672538	490.008392
1624.556628	480.290210
1626.436706	473.841958
1628.318171	468.675524
1630.197426	458.205594
1632.078067	462.206294
1633.952905	455.760839
1635.832723	452.634266
1637.708536	450.866434
1639.583940	438.722378
1641.460729	437.067133
1643.331721	426.506294
1645.205896	419.713986
1647.076071	407.939161
1648.949427	402.577622
1650.820580	396.465734
1652.689531	388.395804
1654.559868	392.388811
1656.426211	393.929371
1658.293941	392.444056
1660.159471	392.945455
1662.026386	396.237762
1663.889313	401.964336
1665.753625	393.496503
1667.615742	387.929371
1669.477453	379.870629
1671.340549	380.148252
1673.201451	382.306294
1675.060159	385.576923
1676.918465	393.160839
1678.778154	397.327972
1680.632077	392.724476
1682.489173	399.531469
1684.345865	406.296503
1686.198582	402.572727
1688.054470	393.434965
1689.906384	387.537762
1691.757897	381.974825
1693.609009	379.100699
1695.459720	374.378322
1697.310031	368.009790
1699.158158	366.952448
1701.007668	364.743357
1702.851430	361.292308
1704.700142	367.178322
1706.543107	368.637063
1708.389238	361.962238
1710.231408	358.540559
1712.076742	356.672028
1713.916336	356.944056
1715.757314	355.133566
1717.599676	349.795105
1719.438080	350.239161
1721.277868	349.820979
1723.115481	347.891608
1724.952698	346.822378
1726.787742	354.741259
1728.624169	353.772727
1730.458424	355.598601
1732.292285	353.637762
1734.125751	353.494406
1735.955271	358.540559
1737.787950	365.583916
1739.616685	353.539161
1741.448578	340.693007
1743.276528	333.666434
1745.104086	337.871329
1746.931253	338.284615
1748.758028	342.715385
1750.584411	340.425874
1752.406858	349.530769
1754.232459	348.941958
1756.054126	347.719580
1757.877175	350.168531
1759.698063	347.582517
1761.518561	331.030769
1763.340441	329.681818
1765.156621	337.392308
1766.975953	344.996503
1768.791358	336.548951
1770.609914	338.228671
1772.424544	335.597902
1774.238787	343.574126
1776.052644	342.415385
1777.866114	340.089510
1779.677430	347.848252
1781.490128	343.838462
1783.302439	341.481818
1785.110833	350.939860
1786.920608	352.260839
1788.726467	350.302797
1790.535473	343.556643
1792.340565	348.434266
1794.147037	345.157343
1795.953126	345.060839
1797.755305	342.060839
1799.560627	341.586713
1801.362041	343.643357
1803.164835	337.579720
1804.963724	345.421678
1806.763992	353.369231
1808.563880	345.831469
1810.361625	348.343357
1812.158990	354.354545
1813.955974	357.297203
1815.752578	352.665734
1817.547043	348.317483
1819.342888	338.002098
1821.133077	331.465734
1822.928163	330.681119
1824.717596	334.295105
1826.510167	334.753147
1828.300602	330.403497
1830.088902	324.712587
1831.880338	335.035664
1833.666129	338.351748
1835.453298	336.937063
1837.238337	337.922378
1839.026508	342.000699
1840.810794	344.601399
1842.592951	351.592308
1844.376487	358.225874
1846.157894	361.223077
1847.940679	353.748951
1849.719585	345.753147
1851.499869	345.539860
1853.278028	340.448252
1855.057564	335.174825
1856.834976	328.630769
1858.610264	328.596503
1860.386931	336.655245
1862.161475	340.002098
1863.937396	347.011189
1865.707698	354.352448
1867.481127	352.739860
1869.252436	347.737063
1871.023374	350.193706
1872.795689	357.181119
1874.562392	354.160839
1876.332219	351.695804
1878.098183	348.322378
1879.867271	351.505594
1881.632497	354.052448
1883.397355	344.216084
1885.163589	345.379021
1886.925965	345.488811
1888.687974	337.037063
1890.449616	333.265734
1892.210890	338.272028
1893.971798	333.713287
1895.732338	332.883217
1897.490770	324.741958
1899.248835	329.145455
1901.004793	332.135664
1902.762127	330.567832
1904.519095	327.201399
1906.273958	331.198601
1908.026715	332.679021
1909.779109	335.134266
1911.532879	335.924476
1913.284545	337.709790
1915.034108	337.284615
1916.785048	340.778322
1918.535624	337.272727
1920.282362	344.125175
1922.030475	346.888811
1923.776489	351.751049
1925.523879	356.044056
1927.269170	355.596503
1929.012364	356.751748
1930.756934	357.406294
1932.499407	352.951049
1934.241520	350.233566
1935.983274	349.832168
1937.724667	346.462238
1939.463967	338.589510
1941.202908	336.741259
1942.941490	340.548252
1944.677980	344.469231
1946.414113	339.779720
1948.151620	334.101399
1949.885306	334.900699
1951.620366	338.477622
1953.353337	342.862238
1955.085952	349.237762
1956.818210	353.733566
1958.550112	360.155944
1960.279928	356.919580
1962.007660	356.506993
1963.736766	356.727972
1965.465516	348.825874
1967.192183	340.941259
1968.918496	332.870629
1970.646182	332.864336
1972.368333	333.499301
1974.093584	331.420280
1975.815028	335.864336
1977.539572	341.393706
1979.262037	348.693706
1980.980698	346.989510
1982.702458	353.717483
1984.420416	357.526573
1986.139748	360.286014
1987.855279	363.624476
1989.575632	362.160839
1991.292186	365.496503
1993.004943	360.125874
1994.720796	354.000000
1996.434577	350.507692
1998.148008	347.213986
1999.859367	341.437762
2001.572100	335.667832
2003.281041	337.709790
2004.993076	337.587413
2006.699601	340.775524
2008.409219	344.303497
2010.116769	349.095804
2011.823972	356.487413
2013.529109	356.644056
2015.233899	355.769231
2016.940061	354.344056
2018.642441	353.200000
2020.346193	353.209790
2022.047882	351.219580
2023.749225	348.546154
2025.450223	346.177622
2027.149161	345.057343
2028.849470	346.054545
2030.546003	348.648951
2032.243908	350.315385
2033.939755	344.948951
2035.638687	344.653846
2037.332133	344.790909
2039.026950	346.749650
2040.721424	347.499301
2042.412130	346.214685
2044.105920	345.048252
2045.795943	346.367832
2047.487337	346.671329
2049.176678	350.551748
2050.867389	351.634965
2052.554338	347.381818
2054.240946	345.779021
2055.928925	344.149650
2057.613144	337.402098
2059.298733	335.793706
2060.983983	334.741259
2062.667185	336.680420
2064.351757	339.239860
2066.030865	339.258741
2067.714759	340.148951
2069.393193	341.998601
2071.074704	347.503497
2072.752463	345.781818
2074.429886	346.564336
2076.108678	343.551049
2077.785427	344.334266
2079.460135	344.220280
2081.136212	349.739860
2082.810249	351.175524
2084.483950	350.661538
2086.157316	342.727972
2087.828644	347.693007
2089.499637	348.617483
2091.170296	354.920280
2092.840621	351.360140
2094.510611	350.993007
2096.178566	355.096503
2097.846188	354.262238
2099.511776	352.665035
2101.178732	354.614685
2102.843655	353.688811
2104.508245	351.120979
2106.170804	347.379021
2107.834732	352.404895
2109.496628	354.998601
2111.158193	360.899301
2112.819428	358.262238
2114.478633	357.340559
2116.137509	360.754545
2117.796054	362.147552
2119.454270	360.019580
2121.108763	354.380420
2122.766320	352.980420
2124.423547	350.416084
2126.077054	344.846154
2127.731928	343.373427
2129.383083	344.477622
2131.037301	342.243357
2132.687801	333.946154
2134.339669	333.298601
2135.986128	334.503497
2137.637341	341.861538
2139.284842	344.148951
2140.933709	350.365734
2142.580557	351.572028
2144.227080	355.295804
2145.873277	356.779021
2147.515765	359.165734
2149.161312	356.839860
2150.803152	355.225175
2152.448049	344.801399
2154.089241	341.941958
2155.730109	341.089510
2157.370654	347.664336
2159.009186	346.685315
2160.649084	346.840559
2162.285282	345.251049
2163.922846	346.828671
2165.560088	345.985315
2167.195320	344.035664
2168.830230	344.068531
2170.464819	348.786713
2172.099087	343.094406
2173.729661	347.272727
2175.363286	347.851049
2176.993220	350.600000
2178.624520	346.632867
2180.253814	347.167133
2181.882789	349.299301
2183.511444	345.611189
2185.139780	342.686014
2186.766113	335.395105
2188.392128	333.383217
2190.016142	331.252448
2191.641521	326.392308
2193.264899	320.199301
2194.889642	316.583217
2196.510703	317.179720
2198.131449	318.788811
2199.753558	327.372028
2201.373670	335.583217
2202.991786	338.915385
2204.609586	337.830769
2206.227070	335.079021
2207.844239	336.569930
2209.461093	337.679021
2211.077632	340.129371
2212.692177	333.980420
2214.304731	337.306294
2215.918648	341.487413
2217.530573	346.660839
2219.143863	350.342657
2220.755161	349.427273
2222.364471	347.201399
2223.975143	341.144755
2225.583827	341.508392
2227.192199	336.483217
2228.798583	336.546853
2230.406331	334.429371
2232.012092	332.362937
2233.617543	333.020979
2235.221008	335.965734
2236.825836	336.664336
2238.428680	338.436364
2240.029541	342.045455
2241.631765	344.426573
2243.232007	342.676224
2244.833611	345.514685
2246.431562	341.768531
2248.030876	340.040559
2249.628210	341.166434
2251.225236	341.260839
2252.823623	338.966434
2254.418362	339.769930
2256.011125	337.508392
2257.605249	339.562238
2259.200736	339.760839
2260.792577	337.599301
2262.384112	335.050350
2263.977008	337.973427
2265.564595	340.083916
2267.156879	339.392308
2268.743855	346.183916
2270.333860	343.506294
2271.918560	345.935664
2273.507954	350.908392
2275.092045	346.269231
2276.677498	352.929371
2278.260982	350.071329
2279.847491	344.795804
2281.430367	341.355245
2283.012939	340.734965
2284.595209	340.115385
2286.173848	334.383217
2287.755512	333.460839
2289.333547	328.034266
2290.914605	328.369930
2292.492036	331.765035
2294.067504	332.141259
2295.645994	345.481119
2297.220859	341.109790
2298.795425	339.191608
2300.369689	342.944056
2301.943653	340.472028
2303.517317	337.748252
2305.090680	333.235664
2306.660425	327.110490
2308.229871	321.179720
2309.802336	314.948252
2311.369526	313.833566
2312.939733	307.481119
2314.506327	313.938462
2316.074279	311.552448
2317.640277	314.491608
2319.205977	324.769231
2320.771379	337.107692
2322.334828	355.605594
2323.899636	367.995804
2325.460835	381.617483
2327.025049	393.800699
2328.584002	391.378322
2330.145968	388.230070
2331.705984	374.473427
2333.265704	371.555245
2334.823475	354.155245
2336.380952	337.786014
2337.938133	331.790210
2339.493368	329.304895
2341.048308	330.066434
2342.602955	333.462937
2344.157308	339.026573
2345.711367	338.348951
2347.265133	336.415385
2348.816954	340.046853
2350.366832	336.031469
2351.919718	340.338462
2353.467362	338.051049
2355.018013	335.381119
2356.565074	334.000000
2358.113492	334.183916
2359.661618	336.548252
2361.206157	334.352448
2362.752053	323.145455
2364.296010	321.581119
2365.841325	324.983916
2367.383055	324.355245
2368.926143	327.485315
2370.467294	334.907692
2372.008156	341.014685
2373.548729	338.320979
2375.089013	337.626573
2376.629008	339.369930
2378.165424	336.842657
2379.704842	328.748951
2381.240683	323.081818
2382.777880	327.370629
2384.311503	332.891608
2385.848125	326.213287
2387.382817	332.424476
2388.915578	338.048252
2390.448054	340.712587
2391.978601	339.648252
2393.512146	342.441958
2395.040480	346.697203
2396.570170	345.650350
2398.099575	346.509091
2399.628695	355.372028
2401.157529	354.979720
2402.681159	350.409790
2404.209424	338.015385
2405.732486	338.060140
2407.260183	339.476923
2408.781039	338.032867
2410.306529	340.550350
2411.828459	349.540559
2413.351743	355.493706
2414.873107	357.351748
2416.392551	362.075524
2417.913350	364.765734
2419.432230	361.238462
2420.950828	350.918881
2422.467509	347.362937
2423.985545	338.631469
2425.503299	338.635664
2427.017501	332.503497
2428.531423	336.490210
2430.045066	337.594406
2431.560062	337.537762
2433.071511	335.036364
2434.584313	340.081119
2436.095203	337.490210
2437.605813	342.634266
2439.114512	340.268531
2440.626198	342.276224
2442.134340	345.914685
2443.642203	350.846154
2445.149789	352.114685
2446.653835	357.851748
2448.160865	346.368531
2449.665987	345.006993
2451.170832	340.004196
2452.673770	342.853846
2454.176431	330.108392
2455.678816	330.845455
2457.179296	329.167133
2458.681129	322.090909
2460.181058	329.809790
2461.680711	332.660839
2463.180089	333.637762
2464.677564	335.514685
2466.173137	332.019580
2467.671690	331.252448
2469.166715	332.818881
2470.663092	333.183217
2472.155943	330.010490
2473.650146	332.769930
2475.144077	329.531469
2476.634483	320.583916
2478.127867	321.636364
2479.619353	321.659441
2481.108942	320.790210
2482.598259	329.732168
2484.085680	330.553147
2485.576077	334.611888
2487.062955	338.179021
2488.551186	335.465734
2490.035899	341.762937
2491.520342	339.811189
2493.006137	337.481119
2494.490039	324.693007
2495.975293	324.511189
2497.455413	328.638462
2498.938505	332.991608
2500.419708	342.598601
2501.900640	340.523077
2503.379684	350.266434
2504.858460	349.565734
2506.336967	346.593706
2507.815205	343.074825
2509.293176	332.406294
2510.767641	325.984615
2512.245075	312.822378
2513.719006	313.742657
2515.194288	315.174825
2516.669302	314.216084
2518.140815	316.713287
2519.613679	312.103497
2521.084660	322.054545
2522.556991	324.058042
2524.024208	325.108392
2525.494392	317.750350
2526.962694	317.368531
2528.430732	314.661538
2529.898505	309.830769
2531.366013	309.272727
2532.833257	309.611189
2534.297008	306.695105
2535.762109	310.244755
2537.225333	314.630769
2538.689906	324.970629
2540.150991	335.004895
2541.613425	339.855245
2543.075596	338.300699
2544.534280	349.254545
2545.997537	353.704895
2547.455697	357.442657
2548.915206	364.051748
2550.369622	356.323776
2551.828608	349.083217
2553.285721	345.135664
2554.740964	341.706294
2556.195946	338.053147
2557.649058	336.586014
2559.103519	326.002098
2560.556111	322.939860
2562.008443	323.197203
2563.458907	325.023776
2564.912327	332.906993
2566.360665	335.266434
2567.811959	332.571329
2569.261386	330.999301
2570.707342	336.407692
2572.156252	338.446154
2573.601691	343.980420
2575.048479	347.073427
2576.493403	348.892308
2577.938070	349.137063
2579.384084	344.928671
2580.826631	348.551748
2582.270526	351.162238
2583.710956	345.511189
2585.152734	341.081818
2586.592652	332.448951
2588.033917	330.507692
2589.471720	326.133566
2590.912473	329.053147
2592.348163	334.718182
2593.786803	340.757343
2595.223586	342.439161
2596.658512	346.823776
2598.096387	355.053147
2599.529204	357.187413
2600.963368	354.495804
2602.395677	348.263636
2603.829334	344.264336
2605.261136	348.296503
2606.692686	347.691608
2608.123982	348.522378
2609.553427	348.730769
2610.982619	348.640559
2612.409960	353.356643
2613.838648	352.530769
2615.267083	355.054545
2616.692072	353.583916
2618.118406	348.418881
2619.542892	346.218182
2620.968724	351.501399
2622.391112	357.385315
2623.814846	358.925874
2625.236734	364.053846
2626.658371	362.823077
2628.078164	366.654545
2629.499301	369.255944
2630.920189	363.830070
2632.337639	366.777622
2633.758028	374.861538
2635.174980	375.081818
2636.591684	376.359441
2638.008139	382.336364
2639.424346	380.443357
2640.840304	388.074126
2642.254422	387.972028
2643.668293	384.928671
2645.080324	390.498601
2646.493700	390.065035
2647.903646	385.025175
2649.316528	391.672028
2650.725981	396.301399
2652.135188	395.469231
2653.542559	389.597902
2654.952864	391.322378
2656.361333	383.306993
2657.767967	386.951748
2659.174356	384.898601
2660.578911	388.986014
2661.984810	395.610490
2663.388876	395.238462
2664.792698	395.541958
2666.196275	402.424476
2667.598021	403.553147
2669.001110	406.085315
2670.400781	412.325874
2671.801796	411.515385
2673.199395	405.998601
2674.599923	406.339161
2675.997037	402.869930
2677.395494	400.109091
2678.792123	395.045455
2680.188511	395.051049
2681.584656	395.513986
2682.978975	390.588811
2684.374637	388.197902
2685.766889	389.442657
2687.160485	393.816084
2688.552256	387.697203
2689.945369	391.458042
2691.336659	384.514685
2692.726126	374.783916
2694.115354	372.431469
2695.504341	378.047552
2696.894671	388.158741
2698.280016	390.593706
2699.668286	383.802797
2701.054735	380.597203
2702.440945	382.599301
2703.826916	380.990909
2705.209489	380.078322
2706.593404	378.386014
2707.977080	359.347552
2709.360519	347.968531
2710.740562	349.251748
2712.121947	349.937063
2713.501516	353.830769
2714.882427	347.755944
2716.261523	344.294406
2717.638805	346.851748
2719.017428	362.887413
2720.394237	362.672028
2721.770811	364.805594
2723.147149	365.887413
2724.521675	358.378322
2725.897542	358.534965
2727.270022	353.350350
2728.645419	349.568531
2730.015854	349.841259
2731.387631	341.102098
2732.759174	337.769930
2734.128908	337.714685
2735.499982	337.224476
2736.869249	327.386014
2738.238282	325.912587
2739.605508	329.071329
2740.972502	327.133566
2742.339263	331.064336
2743.705791	330.095105
2745.070515	334.261538
2746.435006	338.658741
2747.799265	339.551748
2749.163293	336.519580
2750.527088	334.190909
2751.887510	333.369930
2753.250843	334.472028
2754.609233	328.663636
2755.970533	330.386014
2757.328462	328.960140
2758.689301	325.753147
2760.048339	318.355944
2761.404009	325.353846
2762.762588	320.385315
2764.117799	313.899301
2765.472781	302.159441
2766.825966	303.130070
2768.182058	305.483916
2769.534786	310.453147
2770.887285	311.153846
2772.239557	322.920280
2773.593166	325.575524
2774.943414	322.511888
2776.291869	326.347552
2777.643228	338.141259
2778.991228	327.360839
2780.340567	327.117483
2781.688113	314.628671
2783.035432	312.858042
2784.382525	305.014685
2785.727827	303.709091
2787.072903	296.518182
2788.417753	297.844056
2789.762377	285.500699
2791.103648	282.046154
2792.446258	287.841259
2793.788643	298.587413
2795.130802	304.947552
2796.469612	311.341259
2797.811322	308.814685
2799.149683	312.999301
2800.489382	308.435664
2801.827295	308.232867
2803.163424	304.170629
2804.499330	304.957343
2805.836572	292.535664
2807.172031	292.696503
2808.507267	298.807692
2809.840721	305.560839
2811.175511	312.581818
2812.506960	316.179021
2813.841305	319.896503
2815.170752	325.194406
2816.501536	318.225874
2817.832098	318.719580
2819.160881	312.614685
2820.491001	310.847552
2821.819341	300.192308
2823.147461	299.343357
2824.473804	296.862937
2825.801482	294.650350
2827.125828	290.618182
2828.451510	284.583916
2829.775416	286.555245
2831.099102	279.729371
2832.424124	274.209790
2833.745817	275.753147
2835.067290	282.538462
2836.388545	290.039860
2837.709581	291.139161
2839.028845	299.041259
2840.349444	295.958741
2841.668271	300.055944
2842.986880	292.423077
2844.303719	293.734965
2845.620340	289.176224
2846.936743	286.716084
2848.251378	284.721678
2849.567347	289.328671
2850.879997	296.281818
2852.193981	291.893007
2853.507749	288.720979
2854.821300	294.053147
2856.133084	289.630769
2857.443103	293.365035
2858.754456	287.483217
2860.062493	287.352448
2861.371866	283.980420
2862.681023	289.535664
2863.989965	279.055944
2865.297144	284.833566
2866.602559	279.111189
2867.909309	275.160839
2869.214297	273.102797
2870.519070	278.131469
2871.822083	274.697203
2873.127976	276.807692
2874.429015	284.638462
2875.731387	291.397203
2877.032000	300.565035
2878.333947	300.062238
2879.635681	304.260140
2880.934111	310.660140
2882.233874	306.806993
2883.531880	306.297902
2884.829674	304.062937
2886.125711	293.955245
2887.423082	288.344056
2888.718697	288.890210
2890.014102	289.939161
2891.309295	292.194406
2892.601190	292.676224
2893.895962	290.108392
2895.187438	294.188811
2896.480246	291.042657
2897.772844	293.434965
2899.062147	295.608392
2900.352783	299.860140
2901.641669	297.520979
2902.931886	303.496503
2904.218812	302.311888
2905.507070	299.172028
2906.793579	300.986713
2908.079879	295.467832
2909.365971	292.006294
2910.650315	286.997203
2911.937531	282.421678
2913.219920	276.886014
2914.503641	274.581119
2915.785615	280.494406
2917.067383	284.583217
2918.347405	289.460140
2919.630297	291.497203
2920.911444	294.333566
2922.189309	291.581119
2923.470043	291.856643
2924.747496	291.781119
2926.024744	293.629371
2927.300249	290.912587
2928.578622	280.246154
2929.852181	278.282517
2931.128606	283.571329
2932.403291	287.837063
2933.676236	291.865734
2934.950511	293.672727
2936.223047	294.109091
2937.495379	292.193007
2938.764438	291.560839
2940.036362	294.962937
2941.306548	298.665035
2942.576530	295.766434
2943.846309	287.751748
2945.114351	280.117483
2946.380658	280.132867
2947.646762	273.515385
2948.914197	262.647552
2950.179896	264.500699
2951.445393	257.774126
2952.710689	262.604895
2953.972719	258.562238
2955.236079	266.957343
2956.499238	272.620979
2957.760664	275.832867
2959.023420	277.232867
2960.284445	279.937063
2961.543739	284.564336
2962.802832	279.944056
2964.061725	274.289510
2965.320418	279.602098
2966.578911	275.546154
2967.835675	282.365035
2969.092240	274.036364
2970.347076	277.374126
2971.603242	276.469231
2972.856152	274.027972
2974.110392	270.239860
2975.364433	272.515385
2976.616748	272.462238
2977.868865	269.448252
2979.119257	264.709790
2980.372504	261.660140
2981.620974	264.066434
2982.872298	265.038462
2984.120374	261.008392
2985.368252	258.184615
2986.615933	261.376923
2987.863418	260.799301
2989.109181	258.578322
2990.354747	259.453147
2991.601642	253.597902
2992.845291	251.809091
2994.090269	241.478322
2995.332004	236.712587
2996.576590	243.858741
2997.819457	254.157343
2999.059082	258.004196
3000.301559	262.740559
3001.540795	272.255245
3002.781359	279.304196
3004.020206	279.897902
3005.258859	281.739161
3006.495796	277.346154
3007.734061	270.812587
3008.970610	262.909790
3010.206966	259.810490
3011.443128	256.189510
3012.677576	258.297902
3013.911831	245.876224
3015.145893	242.573427
3016.378243	238.337063
3017.608881	242.668531
3018.842365	241.526573
3020.074138	250.926573
3021.304199	247.992308
3022.534069	246.171329
3023.762229	247.674126
3024.991716	245.497902
3026.219493	246.009790
3027.447079	252.128671
3028.675991	249.227273
3029.900161	252.541259
3031.127174	256.826573
3032.350964	261.034266
3033.576079	258.729371
3034.799488	259.336364
3036.022708	257.803497
3037.244222	264.491608
3038.468577	257.113287
3039.688197	253.640559
3040.909143	249.028671
3042.129899	246.286713
3043.348952	239.565734
3044.569331	237.307692
3045.786493	239.437762
3047.004980	235.441958
3048.221766	233.380420
3049.438363	237.929371
3050.654773	244.160839
3051.867969	250.507692
3053.084003	245.346853
3054.296825	249.481818
3055.512484	241.675524
3056.723420	243.719580
3057.935682	247.602098
3059.147756	250.430070
3060.359644	250.461538
3061.569834	249.993007
3062.779839	253.124476
3063.989657	256.493007
3065.197779	256.532168
3066.405715	258.953846
3067.611957	260.857343
3068.819523	259.002098
3070.025394	251.286014
3071.231080	253.983217
3072.436582	252.116084
3073.640390	243.272727
3074.845522	232.537063
3076.048961	227.879720
3077.250708	225.587413
3078.452272	228.000699
3079.653652	229.759441
3080.854848	232.337063
3082.054354	234.030070
3083.253676	236.142657
3084.454322	244.410490
3085.653279	254.184615
3086.849040	256.072727
3088.047631	256.401399
3089.243028	254.063636
3090.439749	256.483916
3091.633277	251.232867
3092.829633	245.370629
3094.024302	243.491608
3095.215781	243.282517
3096.411591	238.343357
3097.602708	237.860140
3098.795148	235.435664
3099.984399	238.681818
3101.176477	239.804196
3102.366871	248.546853
3103.554078	245.749650
3104.742609	244.137762
3105.932462	240.848252
3107.119130	234.600000
3108.305619	236.574126
3109.491928	234.224476
3110.679560	231.767832
3111.864009	226.988811
3113.046778	225.961538
3114.232371	229.658741
3115.416283	230.254545
3116.598517	239.023077
3117.780573	229.843357
3118.962450	231.900699
3120.144149	233.854545
3121.324171	228.713287
3122.502516	227.006993
3123.683681	227.482517
3124.861671	231.942657
3126.039484	235.795105
3127.217120	241.165734
3128.393081	238.753846
3129.568866	235.662937
3130.745971	237.271329
3131.921403	231.724476
3133.095161	231.259441
3134.267246	227.073427
3135.440652	223.674825
3136.613883	219.002098
3137.785442	219.230769
3138.958321	221.477622
3140.128033	232.809091
3141.299066	235.637063
3142.468428	233.502797
3143.636121	235.300000
3144.806629	240.332168
3145.972478	244.186014
3147.142637	246.049650
3148.308138	243.100000
3149.473466	244.821678
3150.638620	242.097203
3151.803601	242.026573
3152.969901	240.613986
3154.131548	249.207692
3155.294516	244.152448
3156.457311	239.611189
3157.619932	233.906993
3158.780889	233.724476
3159.941674	227.281119
3161.102286	224.090909
3162.261234	222.472028
3163.420010	221.790210
3164.578615	215.923776
3165.737048	213.795105
3166.895309	212.071329
3168.051909	214.186713
3169.206846	213.327972
3170.363104	214.873427
3171.517700	214.704895
3172.672126	217.511189
3173.824891	221.048252
3174.977487	228.334266
3176.129913	233.017483
3177.282168	231.348252
3178.434254	229.658741
3179.583193	231.287413
3180.734939	227.059441
3181.885028	224.340559
3183.033459	227.456643
3184.181722	227.894406
3185.329816	225.273427
3186.477741	223.055944
3187.624010	226.990210
3188.770111	228.284615
3189.914558	226.584615
3191.058836	223.709790
3192.202947	225.462238
3193.348376	230.509790
3194.490666	228.389510
3195.632788	230.398601
3196.774744	234.366434
3197.916532	235.354545
3199.058153	227.958741
3200.196638	230.884615
3201.336442	225.635664
3202.477562	224.376224
3203.615548	221.965734
3204.751885	221.747552
3205.888056	219.717483
3207.025545	220.753846
3208.161385	212.796503
3209.298542	211.737762
3210.431086	211.597902
3211.567911	208.963636
3212.700125	206.109091
3213.833657	206.090210
3214.967023	196.947552
3216.097262	200.046154
3217.230300	202.705594
3218.360210	203.742657
3219.491438	197.106993
3220.619540	198.409790
3221.750440	190.986014
3222.879695	196.287413
3224.007307	200.201399
3225.131796	207.944056
3226.260561	210.407692
3227.386204	212.767832
3228.511684	212.810490
3229.635523	214.726573
3230.762157	216.811888
3231.884192	215.086713
3233.007544	210.129371
3234.130734	206.928671
3235.253762	200.883916
3236.375150	205.292308
3237.496377	203.058741
3238.615965	206.186713
3239.735392	208.972028
3240.853182	219.438462
3241.973763	221.660839
3243.091231	225.163636
3244.208538	232.783217
3245.325684	238.113287
3246.441195	230.351748
3247.558021	229.080420
3248.671736	227.985315
3249.788242	223.374126
3250.903112	214.490210
3252.014874	211.974126
3253.126477	215.054545
3254.239395	214.151748
3255.352153	210.675524
3256.461805	211.338462
3257.572772	213.252448
3258.683580	212.208392
3259.792756	203.094406
3260.900301	203.980420
3262.009161	205.754545
3263.117862	201.295105
3264.223461	200.955944
3265.330375	205.183217
3266.435659	207.133566
3267.542257	212.592308
3268.645755	217.429371
3269.750567	217.909091
3270.855222	219.425175
3271.956779	220.956643
3273.058179	217.248951
3274.160893	214.147552
3275.263450	211.418881
3276.362912	209.985315
3277.465156	205.454545
3278.564306	205.596503
3279.661830	202.960839
3280.759200	209.160140
3281.859351	211.032867
3282.956409	213.383916
3284.053313	213.744056
3285.150061	215.662937
3286.242250	207.253147
3287.338689	205.229371
3288.433505	201.412587
3289.528166	205.813986
3290.621206	201.756643
3291.714092	203.567133
3292.805357	205.923776
3293.897935	207.338462
3294.988893	205.241958
3296.078231	208.795105
3297.167416	208.059441
3298.257913	215.819580
3299.345326	209.618182
3300.432587	213.436364
3301.521160	212.355245
3302.609580	217.185315
3303.693453	213.555245
3304.781568	214.359441
3305.866602	210.150350
3306.950020	204.823776
3308.034750	199.025175
3309.117864	203.788811
3310.202290	208.991608
3311.283638	212.693007
3312.366298	210.604895
3313.447344	212.153147
3314.528239	206.965734
3315.607521	208.921678
3316.686652	207.542657
3317.767095	203.872028
3318.844463	202.759441
3319.923143	203.772727
3321.000211	204.113287
3322.077129	207.825874
3323.152437	212.086713
3324.227595	210.352448
3325.304064	208.718182
3326.377462	205.753846
3327.450712	201.495804
3328.525273	202.189510
3329.598224	201.311189
3330.669568	190.743357
3331.742222	192.611888
3332.811809	191.123077
3333.882707	195.160140
3334.951998	201.717483
3336.022600	202.202797
3337.091595	197.941259
3338.158985	196.044056
3339.224768	198.393007
3340.294778	197.458741
3341.361725	197.202098
3342.425610	195.293007
3343.492263	190.523077
3344.557312	189.167832
3345.620757	191.120280
3346.684055	194.303497
3347.747208	201.162937
3348.810214	196.034266
3349.873073	196.962937
3350.934331	199.132867
3351.992532	201.527972
3353.054954	197.065734
3354.114319	199.174126
3355.173540	199.413287
3356.234069	199.485315
3357.290089	195.010490
3358.348874	201.218182
3359.403151	203.767133
3360.460192	207.492308
3361.515634	205.353846
3362.572385	208.059441
3363.627539	207.926573
3364.681095	206.437063
3365.733054	198.297902
3366.787776	194.630070
3367.839448	190.367832
3368.890976	187.043357
3369.943814	183.683217
3370.993604	187.579021
3372.044703	182.247552
3373.092755	185.363636
3374.143568	192.265734
3375.191335	198.396503
3376.238960	201.485315
3377.286443	205.296503
3378.332332	205.497203
3379.379531	202.183916
3380.423686	205.765734
3381.470600	207.739860
3382.515923	202.138462
3383.558204	201.963636
3384.600344	195.519580
3385.643793	190.227273
3386.687100	187.914685
3387.728817	187.030769
3388.770394	185.632168
3389.811829	188.873427
3390.851676	192.027972
3391.889934	194.238462
3392.929500	199.746154
3393.968926	202.200699
3395.006764	201.958741
3396.043015	205.900699
3397.079126	198.295804
3398.116545	189.826573
3399.150931	193.600699
3400.186625	199.245455
3401.222179	195.231469
3402.254701	199.269930
3403.289977	197.647552
3404.322222	194.290909
3405.354329	188.980420
3406.384853	186.731469
3407.416683	189.118881
3408.448375	189.509091
3409.477039	187.589510
3410.505566	187.128671
3411.535399	195.223776
3412.565095	200.362238
3413.591765	195.231469
3414.619741	195.927273
3415.644693	192.978322
3416.672396	190.076923
3417.697074	188.771329
3418.723059	190.773427
3419.747465	195.101399
3420.771733	196.658741
3421.794424	193.788811
3422.816978	188.318182
3423.840838	184.190210
3424.861678	183.949650
3425.882382	177.699201
3426.904392	172.620280
3427.923384	169.892607
3428.942241	170.695904
3429.962404	176.209890
3430.979549	187.614286
