-118.277064	-0.948352
-115.607463	1.496703
-112.940798	2.291808
-110.274885	1.855145
-107.611905	0.604895
-104.947494	-1.040759
-102.286014	-2.663636
-99.623105	-2.238462
-96.965303	-1.904196
-94.306070	-0.195105
-91.647586	-0.793706
-88.992027	-0.062238
-86.335039	2.223077
-83.683148	2.560839
-81.029828	2.404895
-78.379427	1.655245
-75.727598	2.871329
-73.080859	2.722378
-70.432690	3.200699
-67.785265	5.834266
-65.140753	8.030070
-62.494812	8.277622
-59.853954	9.504196
-57.211665	7.476923
-54.572286	6.686014
-51.931478	6.289510
-49.291409	2.858741
-46.656414	1.765035
-44.019989	2.415385
-41.386468	3.573427
-38.751517	3.441958
-36.121633	3.010490
-33.488155	4.204895
-30.859740	3.639860
-28.232059	3.969930
-25.602950	0.772028
-22.978897	-2.800699
-20.351254	-8.044056
-17.728666	-25.234266
-15.106808	-14.758741
-12.485681	47.385315
-9.865285	134.956643
-7.247776	205.688811
-4.628839	249.684615
-2.012788	272.786713
0.602536	272.812587
3.217131	252.157343
5.828845	206.467133
8.441986	142.477622
11.050095	64.697902
13.661784	-9.438462
16.268443	-40.155944
18.876530	-24.044056
21.483893	-2.019580
24.086231	4.402797
26.692147	2.600000
29.293042	4.313986
31.895364	3.823776
34.492668	6.520979
37.093548	6.739161
39.689414	6.076923
42.286707	5.248252
44.883281	4.656643
47.474846	3.114685
50.067839	1.610490
52.657972	2.224476
55.249531	2.853147
57.838231	2.229371
60.428359	3.701399
63.013487	2.605594
65.600043	3.779021
68.185884	5.391608
70.768872	6.187413
73.353287	10.217483
75.930572	11.665734
78.511424	9.816783
81.089427	7.586014
83.666720	4.813986
86.245440	3.558042
88.819177	3.185315
91.394341	1.567832
93.966662	-0.318182
96.538276	-1.343357
99.107049	2.441259
101.677249	5.360140
104.244610	8.526573
106.813398	10.167133
109.379349	8.746154
111.942464	8.374126
114.509137	8.248951
117.066587	8.382517
119.629723	5.898601
122.187900	1.508392
124.749631	2.125874
127.306405	3.136364
129.864605	6.190210
132.417853	7.683217
134.970402	12.939161
137.526503	17.558042
140.077655	24.105594
142.628110	31.449650
145.177867	40.356643
147.724805	45.206294
150.271048	46.114685
152.818716	49.768531
155.365688	51.970629
157.907724	50.919580
160.449068	48.467832
162.989718	46.059441
165.531793	45.144755
168.071058	41.136364
170.607513	41.664336
173.143278	43.087413
175.680468	42.606294
178.216967	44.030769
180.750660	46.109091
183.281549	48.610490
185.811750	46.994406
188.343376	49.267133
190.872202	49.087413
193.398228	47.712587
195.923568	47.583916
198.450333	45.248252
200.974302	45.866434
203.497585	45.189510
206.020184	42.903497
208.539990	44.716084
211.059113	44.149650
213.577553	40.453147
216.097418	41.224476
218.610280	43.935664
221.126674	45.020280
223.642387	43.893007
226.153209	45.418182
228.665456	44.137762
231.174920	44.256643
233.683706	44.748951
236.191814	47.081119
238.701346	48.065035
241.205997	46.695804
243.709972	45.585315
246.215371	48.472028
248.715895	49.960839
251.219942	51.053147
253.717019	50.334965
256.217618	48.809091
258.715446	48.747552
261.212601	51.158042
263.709084	54.464336
266.200703	55.344056
268.695841	55.011888
271.188214	52.897902
273.679916	52.119580
276.168855	52.243357
278.659217	51.281818
281.146818	50.790909
283.631659	51.602098
286.120014	47.651049
288.601431	49.752448
291.086361	49.896503
293.566445	51.021678
296.050042	51.339161
298.528797	52.486713
301.008974	51.985315
303.486400	51.071329
305.963162	51.155245
308.439260	53.730769
310.912610	57.669930
313.385299	60.360839
315.857326	62.669930
318.328691	67.432168
320.797313	68.255944
323.265275	72.283916
325.734660	70.950350
328.199222	69.183217
330.667287	64.468531
333.130533	58.135664
335.593122	57.357343
338.055053	55.690909
340.516328	54.172727
342.974869	54.633566
345.434832	57.109091
347.892063	58.073427
350.348639	56.667133
352.804560	56.860839
355.257753	53.407692
357.712368	51.998601
360.162181	51.811888
362.615490	53.165734
365.064000	54.574126
367.511860	53.224476
369.961141	53.958042
372.405629	56.673427
374.851539	55.659441
377.296800	55.325175
379.739342	50.876923
382.181236	48.263636
384.622482	46.360140
387.061013	44.794406
389.500966	46.573427
391.938205	47.125175
394.372732	48.793007
396.810747	51.994406
399.243985	54.863636
401.678645	57.869231
404.108532	57.948951
406.541904	56.593007
408.970506	53.782517
411.398466	52.828671
413.827847	51.403497
416.252464	50.656643
418.678501	52.406993
421.103899	53.157343
423.528656	54.686713
425.948654	55.820280
428.370074	55.753147
430.788797	56.772028
433.208941	56.756643
435.626390	55.214685
438.045259	56.553147
440.461435	55.781119
442.872864	56.758042
445.287769	57.726573
447.699984	59.069231
450.111565	57.940559
452.522513	55.172727
454.930773	56.422378
457.338402	56.927273
459.745398	59.806993
462.151762	59.957343
464.555445	60.046853
466.958497	60.415385
469.360919	60.788112
471.762711	61.777622
474.161825	62.729371
476.562359	61.861538
478.962264	62.636364
481.357447	60.886014
483.756095	64.080420
486.150024	63.991608
488.543327	60.726573
490.936004	56.517483
493.328056	52.208392
495.721527	48.261538
498.110285	46.389510
500.496377	43.242657
502.883889	40.934266
505.270777	37.761538
507.655002	36.404196
510.040646	33.020979
512.423627	33.539860
514.803948	30.748252
517.185688	27.763636
519.564770	28.354545
521.945269	28.848252
524.323111	30.676923
526.698298	30.282517
529.072867	31.005594
531.448855	31.483217
533.822189	32.825874
536.196942	30.981818
538.567008	29.574126
540.936459	28.674825
543.307329	25.809790
545.673517	24.809091
548.041124	25.518881
550.406085	27.206993
552.770434	28.208392
555.134169	29.120979
557.499322	32.413287
559.859803	34.579021
562.221701	35.804895
564.580960	33.156643
566.937580	32.155944
569.297646	30.333566
571.651020	26.868531
574.007839	26.230769
576.362023	25.502797
578.715598	26.393007
581.068565	27.731469
583.418901	30.685315
585.770654	32.082517
588.115729	33.905594
590.466269	34.558741
592.810136	32.912587
595.159464	33.750350
597.504143	32.768531
599.846198	29.103497
602.189670	30.880420
604.530519	29.511888
606.870765	30.170629
609.208391	32.892308
611.549452	31.393706
613.885876	30.911189
616.223716	30.348252
618.558938	28.535664
620.891545	26.421678
623.225569	25.555944
625.556978	26.057343
627.887789	25.077622
630.218002	26.653846
632.547618	24.754545
634.872610	26.597203
637.203044	26.602098
639.528856	23.437762
641.852062	21.496503
644.176684	19.500699
646.498700	18.007692
648.820122	17.823077
651.138941	19.577622
653.459176	22.982517
655.778818	24.616783
658.095859	22.596503
660.412309	24.862937
662.726160	26.282517
665.041426	23.927273
667.354096	22.736364
669.668181	22.327273
671.977667	22.486014
674.288567	23.141259
676.596875	24.067832
678.904595	26.596503
681.213730	28.761538
683.518272	29.475524
685.822228	27.563636
688.125597	30.150350
690.430381	29.587413
692.730579	28.286014
695.032192	28.387413
697.333219	29.590210
699.629665	29.285315
701.927525	30.793706
704.224803	29.520979
706.521496	28.805594
708.813614	26.394406
711.109143	25.246154
713.400099	23.646853
715.692469	25.022378
717.982263	25.651748
720.271478	22.350350
722.560113	23.015385
724.846175	23.376224
727.133651	23.655944
729.418557	24.147552
731.702884	23.149650
733.984644	21.072727
736.267817	20.724476
738.550413	23.038462
740.828453	21.904196
743.107907	26.275524
745.386786	27.219580
747.665090	28.529371
749.938843	30.904895
752.214011	30.711888
754.488605	30.781818
756.760640	32.112587
759.034088	33.172028
761.304978	30.709091
763.573312	30.374825
765.843059	29.339161
768.110251	27.172727
770.376873	28.527972
772.642926	26.425874
774.906427	25.961538
777.171340	24.718881
779.435685	22.521678
781.695499	25.151748
783.956727	25.872028
786.217387	26.709091
788.475500	28.302098
790.731070	28.619580
792.990029	27.452448
795.242490	29.679720
797.500318	30.880420
799.753627	30.774126
802.004395	28.565734
804.256576	29.167832
806.506219	26.453147
808.757273	28.863636
811.003816	26.295804
813.251772	27.605594
815.497192	29.297902
817.744025	29.497902
819.990295	31.412587
822.232062	34.930769
824.477211	36.792308
826.715888	34.608392
828.957948	29.903497
831.195509	28.197902
833.434481	24.546853
835.670928	23.823077
837.908785	21.513287
840.144117	21.159441
842.376925	22.113287
844.611145	25.799301
846.842843	28.551049
849.073986	29.630070
851.304574	33.067133
853.534608	31.655944
855.764087	30.602797
857.989086	31.642657
860.217458	30.272727
862.441352	29.258042
864.666656	26.200000
866.887485	22.820979
869.111687	21.863636
871.331415	23.264336
873.552553	24.616783
875.773141	26.369930
877.991220	25.654545
880.210708	23.553147
882.425730	24.463636
884.640204	22.321678
886.854131	20.481119
889.067510	21.425874
891.280343	20.068531
893.492628	18.997203
895.702412	19.158741
897.911650	23.953846
900.120342	26.776224
902.326536	26.325175
904.534139	22.141259
906.739245	21.788811
908.943807	23.137762
911.145874	22.787413
913.349350	26.346853
915.550332	26.483217
917.750772	26.824476
919.952621	27.519580
922.148079	24.656643
924.346895	25.606294
926.541274	23.225874
928.739010	21.062937
930.932310	20.700000
933.127018	21.900000
935.319241	21.767832
937.510926	21.513986
939.702073	21.527972
941.890737	20.046853
944.078864	22.755944
946.264511	22.929371
948.453511	23.070629
950.638086	24.690210
952.822127	24.515385
955.009518	23.975524
957.188606	25.084615
959.371044	26.767133
961.552947	26.388112
963.732377	27.072028
965.909334	28.002797
968.087699	29.832168
970.267470	27.804895
972.440893	26.700000
974.617663	27.741958
976.790025	23.902098
978.963795	21.188112
981.133161	20.802098
983.305871	19.803497
985.476115	23.371329
987.645831	25.746154
989.815018	30.739860
991.979808	32.242657
994.147940	36.190909
996.311676	34.508392
998.476820	37.267832
1000.639504	33.653846
1002.801663	30.564336
1004.961364	28.020280
1007.120542	27.748951
1009.281126	24.332168
1011.439255	27.487413
1013.596860	30.865734
1015.753942	35.188811
1017.910501	35.962937
1020.062680	39.627972
1022.216266	41.734266
1024.369330	45.344056
1026.519945	42.746154
1028.671966	42.686014
1030.819615	42.067133
1032.970594	38.360140
1035.117204	37.562937
1037.263294	37.151049
1039.408866	36.044056
1041.555842	31.744755
1043.696531	32.237762
1045.840548	30.571329
1047.982126	32.130769
1050.123186	35.048252
1052.265651	35.793706
1054.401837	35.032867
1056.541349	37.210490
1058.676505	36.202098
1060.814986	39.262937
1062.949114	37.979021
1065.082728	39.753147
1067.217746	39.849650
1069.348415	39.865035
1071.480490	36.769231
1073.610134	35.173427
1075.739267	34.981818
1077.867889	32.946154
1079.995999	32.673427
1082.121683	35.827273
1084.246857	39.781119
1086.373434	38.011888
1088.495675	38.253846
1090.619320	41.249650
1092.738630	40.295804
1094.863169	36.249650
1096.981464	34.174825
1099.101162	32.133566
1101.218442	33.086014
1103.335216	31.884615
1105.451483	35.143357
1107.565335	36.546853
1109.680590	38.162238
1111.791523	37.169930
1113.905768	37.597203
1116.015692	37.169231
1118.127019	33.630769
1120.237843	29.609790
1122.344350	28.365035
1124.454166	25.682517
1126.559668	25.707692
1128.666574	26.700699
1130.767264	28.943357
1132.873165	29.074825
1134.974758	34.448252
1137.077754	36.790909
1139.180249	36.306993
1141.276538	35.790909
1143.378033	32.433566
1145.475226	31.498601
1147.571920	33.113986
1149.668117	30.004196
1151.763815	31.680420
1153.859016	30.911888
1155.951820	28.615385
1158.046026	28.813287
1160.134041	30.701399
1162.227254	31.018881
1164.314279	32.570629
1166.404604	28.925175
1168.490640	27.561538
1170.579974	29.221678
1172.663127	30.929371
1174.747683	30.874825
1176.833639	33.860140
1178.915315	33.462937
1180.998391	33.937063
1183.079082	34.195105
1185.159282	33.416084
1187.238990	33.554545
1189.318207	33.186014
1191.395041	29.441259
1193.469495	30.259441
1195.547241	29.283217
1197.620716	30.909790
1199.695593	34.432168
1201.766202	38.306993
1203.838212	37.648252
1205.907846	36.170629
1207.978881	32.384615
1210.049428	29.651748
1212.115715	27.381119
1214.183401	27.010490
1216.248716	24.012587
1218.315431	23.246853
1220.377890	23.137762
1222.443635	26.699301
1224.505125	28.366434
1226.568015	29.556643
1228.628538	29.545455
1230.688578	27.781818
1232.748134	24.984615
1234.805326	24.966434
1236.862035	27.069231
1238.916382	27.333566
1240.974009	27.177622
1243.029274	29.325175
1245.080298	31.699301
1247.132723	33.635664
1249.184667	35.032867
1251.234253	38.638462
1253.283360	40.220979
1255.331988	39.229371
1257.380138	36.745455
1259.427810	36.531469
1261.471251	36.081818
1263.517967	33.644056
1265.562331	31.293007
1267.606217	26.832867
1269.647753	28.788811
1271.686939	30.341259
1273.729397	32.480420
1275.767634	34.403497
1277.807268	35.895804
1279.846428	37.137762
1281.881370	36.213986
1283.917710	36.344056
1285.951705	35.058042
1287.987099	34.632867
1290.018279	33.043357
1292.050858	32.398601
1294.082964	36.712587
1296.112730	37.365035
1298.143894	38.980420
1300.170850	40.454545
1302.199204	38.223776
1304.223354	38.490210
1306.250769	36.485315
1308.273981	36.600000
1310.298591	35.935664
1312.320866	33.481818
1314.344539	32.339860
1316.365879	30.514685
1318.386752	31.856643
1320.407157	34.009790
1322.423369	39.009790
1324.440978	38.623077
1326.456259	38.107692
1328.474799	41.528671
1330.489149	43.755944
1332.501174	47.296503
1334.516457	45.851049
1336.527554	42.862937
1338.540047	42.037063
1340.548358	40.894406
1342.559925	44.231469
1344.565453	45.138462
1346.574235	47.287413
1348.578841	45.300699
1350.586700	46.796503
1352.594097	45.976923
1354.595462	46.605594
1356.598225	46.036364
1358.600528	40.116783
1360.602370	39.081818
1362.603754	36.947552
1364.602823	39.737762
1366.601434	39.557343
1368.599587	37.672028
1370.597282	34.951748
1372.590813	34.081818
1374.585741	32.867832
1376.580212	28.560140
1378.574226	26.902098
1380.565933	26.265734
1382.557184	23.721678
1384.546130	26.948951
1386.536471	27.169231
1388.526357	30.125874
1390.513940	29.750350
1392.501069	30.180420
1394.485896	31.909091
1396.472118	33.999301
1398.456039	35.133566
1400.439508	33.570629
1402.422525	33.385315
1404.403244	34.479720
1406.385357	31.923077
1408.365173	28.727972
1410.344539	26.876224
1412.319766	23.498601
1414.298231	22.437063
1416.274403	23.909790
1418.250125	24.396503
1420.225398	25.052448
1422.198381	26.555245
1424.170915	27.001399
1426.143001	30.728671
1428.114639	33.447552
1430.082150	30.533566
1432.054734	31.547552
1434.019512	32.816084
1435.989363	29.838462
1437.955089	29.617483
1439.922209	29.965734
1441.887045	26.092308
1443.847761	24.873427
1445.813545	22.902797
1447.773374	25.485315
1449.734596	30.311189
1451.697211	30.267832
1453.655711	28.383217
1455.613769	32.615385
1457.571384	30.295804
1459.528558	28.162937
1461.483456	27.312587
1463.439746	26.832867
1465.393762	24.151049
1467.347338	22.055944
1469.298641	20.958042
1471.251336	22.902797
1473.201760	24.229371
1475.151745	23.948252
1477.101291	25.751049
1479.048567	30.526573
1480.993577	27.016084
1482.939979	24.912587
1484.885943	23.963636
1486.831470	26.529371
1488.774731	28.449650
1490.717556	27.232867
1492.658118	26.437063
1494.600072	28.129371
1496.539763	27.541958
1498.479019	28.018182
1500.417841	29.123776
1502.354403	28.051748
1504.292355	23.806993
1506.228050	22.186713
1508.163311	23.180420
1510.096315	27.078322
1512.028887	28.253147
1513.961027	27.145455
1515.892735	24.044056
1517.822190	24.711189
1519.753034	23.420979
1521.683448	23.496503
1523.609789	22.283916
1525.537520	21.176224
1527.463001	22.952448
1529.388053	24.277622
1531.312676	25.691608
1533.236870	28.401399
1535.158817	28.783916
1537.082153	28.066434
1539.003244	24.253846
1540.922090	24.495105
1542.842326	24.684615
1544.760318	24.048951
1546.677884	25.726573
1548.593209	30.080420
1550.509922	34.298601
1552.422581	35.171329
1554.338444	36.893706
1556.252068	41.031469
1558.163453	40.429371
1560.076227	39.272727
1561.984953	37.874825
1563.895067	34.710490
1565.804758	31.850350
1567.714026	29.627273
1569.621059	31.442657
1571.525860	33.488112
1573.432050	34.604196
1575.336009	38.273427
1577.239546	42.588112
1579.142662	45.186713
1581.043550	46.128671
1582.945826	47.437762
1584.845873	47.179720
1586.747309	41.934266
1588.644710	39.791608
1590.541694	37.027273
1592.438259	34.395804
1594.336211	32.098601
1596.228329	32.734266
1598.123641	35.174126
1600.018534	35.247552
1601.911207	35.560140
1603.803462	36.311189
1605.693498	36.192308
1607.583118	35.322378
1609.472323	31.900000
1611.361112	32.372028
1613.247685	29.070629
1615.135645	25.938462
1617.019588	25.534965
1618.904918	24.693706
1620.789835	23.089510
1622.672538	23.232168
1624.556628	24.969231
1626.436706	26.046853
1628.318171	28.132168
1630.197426	30.569930
1632.078067	29.989510
1633.952905	29.329371
1635.832723	30.026573
1637.708536	31.874126
1639.583940	31.244755
1641.460729	29.064336
1643.331721	28.920280
1645.205896	27.161538
1647.076071	28.009790
1648.949427	27.941958
1650.820580	29.350350
1652.689531	30.100699
1654.559868	29.941958
1656.426211	28.200000
1658.293941	33.398601
1660.159471	31.318881
1662.026386	27.579720
1663.889313	24.990210
1665.753625	24.230070
1667.615742	21.397203
1669.477453	19.362238
1671.340549	18.061538
1673.201451	17.400699
1675.060159	16.852448
1676.918465	17.672727
1678.778154	15.664336
1680.632077	20.139860
1682.489173	19.550350
1684.345865	20.795105
1686.198582	21.156643
1688.054470	25.754545
1689.906384	24.247552
1691.757897	21.031469
1693.609009	20.190909
1695.459720	15.898601
1697.310031	14.539860
1699.158158	12.893007
1701.007668	12.009790
1702.851430	16.711888
1704.700142	20.376923
1706.543107	22.667133
1708.389238	25.075524
1710.231408	28.518182
1712.076742	24.840559
1713.916336	24.050350
1715.757314	22.146853
1717.599676	18.260839
1719.438080	17.991608
1721.277868	15.030769
1723.115481	15.401399
1724.952698	15.531469
1726.787742	16.730769
1728.624169	20.030070
1730.458424	21.173427
1732.292285	24.363636
1734.125751	24.122378
1735.955271	25.390210
1737.787950	27.009790
1739.616685	25.750350
1741.448578	25.518881
1743.276528	23.034266
1745.104086	21.476224
1746.931253	19.283217
1748.758028	20.746154
1750.584411	22.606294
1752.406858	22.330769
1754.232459	24.800699
1756.054126	24.909091
1757.877175	26.232168
1759.698063	25.785315
1761.518561	25.677622
1763.340441	27.812587
1765.156621	24.683217
1766.975953	19.855944
1768.791358	19.777622
1770.609914	20.842657
1772.424544	21.854545
1774.238787	21.730769
1776.052644	22.157343
1777.866114	24.210490
1779.677430	25.983916
1781.490128	25.904196
1783.302439	29.902098
1785.110833	30.273427
1786.920608	28.131469
1788.726467	24.390909
1790.535473	23.192308
1792.340565	26.225874
1794.147037	24.519580
1795.953126	22.246154
1797.755305	21.651748
1799.560627	22.127972
1801.362041	24.514685
1803.164835	22.792308
1804.963724	24.262238
1806.763992	24.780420
1808.563880	26.421678
1810.361625	22.094406
1812.158990	23.111189
1813.955974	24.030769
1815.752578	21.336364
1817.547043	20.260140
1819.342888	22.035664
1821.133077	19.739161
1822.928163	19.394406
1824.717596	16.230070
1826.510167	17.074126
1828.300602	17.948252
1830.088902	20.137762
1831.880338	21.737063
1833.666129	23.718182
1835.453298	24.151049
1837.238337	27.472727
1839.026508	26.705594
1840.810794	28.996503
1842.592951	24.503497
1844.376487	24.813287
1846.157894	22.020280
1847.940679	22.574126
1849.719585	22.832867
1851.499869	26.959441
1853.278028	26.220979
1855.057564	23.562937
1856.834976	25.183217
1858.610264	26.594406
1860.386931	25.374126
1862.161475	26.557343
1863.937396	26.028671
1865.707698	27.490909
1867.481127	24.993706
1869.252436	24.807692
1871.023374	23.053846
1872.795689	23.372028
1874.562392	20.352448
1876.332219	20.837063
1878.098183	21.311189
1879.867271	22.037762
1881.632497	25.639860
1883.397355	27.768531
1885.163589	28.038462
1886.925965	27.429371
1888.687974	25.920979
1890.449616	24.945455
1892.210890	25.668531
1893.971798	26.831469
1895.732338	24.911189
1897.490770	24.053846
1899.248835	24.897203
1901.004793	25.130070
1902.762127	27.029371
1904.519095	25.802797
1906.273958	24.936364
1908.026715	28.041259
1909.779109	26.367832
1911.532879	26.451748
1913.284545	25.727273
1915.034108	24.018881
1916.785048	20.641958
1918.535624	22.032867
1920.282362	23.348951
1922.030475	21.555944
1923.776489	23.152448
1925.523879	25.160839
1927.269170	25.920979
1929.012364	27.317483
1930.756934	24.466434
1932.499407	25.974126
1934.241520	25.370629
1935.983274	26.078322
1937.724667	26.978322
1939.463967	30.268531
1941.202908	29.832168
1942.941490	31.349650
1944.677980	33.833566
1946.414113	30.377622
1948.151620	26.631469
1949.885306	24.721678
1951.620366	22.482517
1953.353337	20.148252
1955.085952	16.118182
1956.818210	17.047552
1958.550112	17.586713
1960.279928	17.872727
1962.007660	19.934266
1963.736766	22.359441
1965.465516	22.691608
1967.192183	20.582517
1968.918496	23.181818
1970.646182	26.651049
1972.368333	27.463636
1974.093584	27.302098
1975.815028	26.053846
1977.539572	27.486014
1979.262037	26.785315
1980.980698	25.464336
1982.702458	24.337762
1984.420416	19.291608
1986.139748	16.033566
1987.855279	12.477622
1989.575632	12.151748
1991.292186	16.113287
1993.004943	16.744056
1994.720796	16.846853
1996.434577	18.725874
1998.148008	22.198601
1999.859367	25.876224
2001.572100	27.952448
2003.281041	25.855944
2004.993076	26.285315
2006.699601	25.530769
2008.409219	23.776923
2010.116769	23.529371
2011.823972	27.083217
2013.529109	26.814685
2015.233899	26.739161
2016.940061	28.176224
2018.642441	27.783217
2020.346193	26.909790
2022.047882	26.838462
2023.749225	23.919580
2025.450223	23.641259
2027.149161	21.217483
2028.849470	20.837063
2030.546003	20.627972
2032.243908	22.697203
2033.939755	20.718182
2035.638687	19.920979
2037.332133	20.203497
2039.026950	19.508392
2040.721424	19.116783
2042.412130	19.113287
2044.105920	20.288112
2045.795943	23.398601
2047.487337	26.506294
2049.176678	28.765734
2050.867389	30.354545
2052.554338	31.451049
2054.240946	30.008392
2055.928925	29.261538
2057.613144	27.192308
2059.298733	24.823776
2060.983983	20.827972
2062.667185	17.383916
2064.351757	17.834266
2066.030865	17.993706
2067.714759	16.408392
2069.393193	16.691608
2071.074704	15.722378
2072.752463	13.829371
2074.429886	13.732168
2076.108678	14.320979
2077.785427	16.420280
2079.460135	20.271329
2081.136212	22.739860
2082.810249	25.106294
2084.483950	28.845455
2086.157316	30.237762
2087.828644	29.379021
2089.499637	29.727273
2091.170296	25.713287
2092.840621	22.909091
2094.510611	20.127972
2096.178566	20.237063
2097.846188	18.674825
2099.511776	20.613287
2101.178732	24.131469
2102.843655	25.576224
2104.508245	28.057343
2106.170804	30.086014
2107.834732	29.667832
2109.496628	29.830070
2111.158193	27.837063
2112.819428	25.751748
2114.478633	20.965035
2116.137509	19.865734
2117.796054	18.380420
2119.454270	20.735664
2121.108763	22.071329
2122.766320	22.799301
2124.423547	23.533566
2126.077054	24.958042
2127.731928	26.080420
2129.383083	25.378322
2131.037301	22.864336
2132.687801	23.376224
2134.339669	24.390210
2135.986128	24.651049
2137.637341	22.616783
2139.284842	20.780420
2140.933709	17.090909
2142.580557	14.976224
2144.227080	14.195804
2145.873277	13.815385
2147.515765	18.232867
2149.161312	19.852448
2150.803152	22.504895
2152.448049	28.450350
2154.089241	31.700699
2155.730109	29.527972
2157.370654	27.600699
2159.009186	26.123077
2160.649084	21.397203
2162.285282	18.154545
2163.922846	18.280420
2165.560088	18.676224
2167.195320	19.406294
2168.830230	22.471329
2170.464819	24.020979
2172.099087	26.584615
2173.729661	27.074825
2175.363286	28.568531
2176.993220	29.165035
2178.624520	29.818881
2180.253814	28.730769
2181.882789	29.576923
2183.511444	30.170629
2185.139780	30.004196
2186.766113	27.540559
2188.392128	28.358042
2190.016142	27.103497
2191.641521	24.116084
2193.264899	21.090909
2194.889642	21.783916
2196.510703	20.433566
2198.131449	20.109790
2199.753558	21.755245
2201.373670	21.876923
2202.991786	21.933566
2204.609586	23.973427
2206.227070	25.486713
2207.844239	27.174825
2209.461093	27.987413
2211.077632	26.447552
2212.692177	27.603497
2214.304731	24.367133
2215.918648	22.593706
2217.530573	19.202797
2219.143863	19.372028
2220.755161	16.516084
2222.364471	16.586713
2223.975143	16.722378
2225.583827	14.567133
2227.192199	14.211189
2228.798583	13.844056
2230.406331	15.661538
2232.012092	14.887413
2233.617543	14.174825
2235.221008	18.587413
2236.825836	19.389510
2238.428680	22.718182
2240.029541	25.632867
2241.631765	28.143357
2243.232007	29.681119
2244.833611	27.972727
2246.431562	29.630070
2248.030876	29.690909
2249.628210	30.840559
2251.225236	27.932867
2252.823623	30.569231
2254.418362	31.716084
2256.011125	27.916084
2257.605249	28.081119
2259.200736	27.808392
2260.792577	25.460140
2262.384112	24.380420
2263.977008	21.256643
2265.564595	21.155245
2267.156879	20.479720
2268.743855	19.938462
2270.333860	17.486014
2271.918560	17.909790
2273.507954	22.690909
2275.092045	21.497902
2276.677498	23.817483
2278.260982	24.640559
2279.847491	24.162937
2281.430367	23.520979
2283.012939	22.166084
2284.595209	21.932867
2286.173848	16.439510
2287.755512	12.374126
2289.333547	9.996853
2290.914605	9.446853
2292.492036	11.563287
2294.067504	10.900000
2295.645994	12.349301
2297.220859	15.462238
2298.795425	17.531818
2300.369689	19.950350
2301.943653	20.852797
2303.517317	19.553846
2305.090680	16.921678
2306.660425	18.766434
2308.229871	21.895804
2309.802336	22.050350
2311.369526	23.674825
2312.939733	22.888811
2314.506327	22.144056
2316.074279	22.399301
2317.640277	20.440559
2319.205977	19.752448
2320.771379	17.289510
2322.334828	16.830070
2323.899636	18.187413
2325.460835	18.658741
2327.025049	21.554545
2328.584002	21.379720
2330.145968	25.311189
2331.705984	22.530769
2333.265704	22.413986
2334.823475	17.361538
2336.380952	14.582517
2337.938133	12.330769
2339.493368	14.302098
2341.048308	16.032168
2342.602955	17.454545
2344.157308	18.604895
2345.711367	22.723077
2347.265133	25.639860
2348.816954	32.262238
2350.366832	31.146154
2351.919718	28.104895
2353.467362	23.104196
2355.018013	22.861538
2356.565074	19.370629
2358.113492	19.957343
2359.661618	19.051049
2361.206157	17.003497
2362.752053	14.369231
2364.296010	17.537063
2365.841325	17.241259
2367.383055	17.360839
2368.926143	14.751748
2370.467294	12.382517
2372.008156	11.141259
2373.548729	10.738462
2375.089013	8.987413
2376.629008	8.878322
2378.165424	7.932867
2379.704842	7.550350
2381.240683	10.658741
2382.777880	17.351748
2384.311503	19.289510
2385.848125	18.983217
2387.382817	18.300000
2388.915578	18.612587
2390.448054	15.639860
2391.978601	12.466434
2393.512146	11.111888
2395.040480	7.600000
2396.570170	8.134266
2398.099575	9.619580
2399.628695	14.600699
2401.157529	18.244056
2402.681159	22.739860
2404.209424	22.204895
2405.732486	25.354545
2407.260183	25.230769
2408.781039	21.572028
2410.306529	20.113986
2411.828459	19.690210
2413.351743	15.924476
2414.873107	17.976923
2416.392551	14.370629
2417.913350	15.275524
2419.432230	11.986713
2420.950828	14.807692
2422.467509	16.451049
2423.985545	19.485315
2425.503299	16.420280
2427.017501	15.898601
2428.531423	19.626573
2430.045066	21.549650
2431.560062	24.406294
2433.071511	27.966434
2434.584313	25.636364
2436.095203	25.323776
2437.605813	22.353147
2439.114512	23.803497
2440.626198	24.214685
2442.134340	20.738462
2443.642203	18.032867
2445.149789	16.574825
2446.653835	17.007692
2448.160865	15.410490
2449.665987	17.075524
2451.170832	17.488811
2452.673770	17.418881
2454.176431	19.524476
2455.678816	20.997203
2457.179296	22.727273
2458.681129	24.874825
2460.181058	23.515385
2461.680711	22.824476
2463.180089	19.026573
2464.677564	18.536364
2466.173137	14.536364
2467.671690	13.644056
2469.166715	16.095804
2470.663092	17.009790
2472.155943	16.598601
2473.650146	16.239860
2475.144077	17.274126
2476.634483	17.193706
2478.127867	15.622378
2479.619353	15.152448
2481.108942	16.094406
2482.598259	20.147552
2484.085680	23.143357
2485.576077	24.455245
2487.062955	27.835664
2488.551186	25.167832
2490.035899	24.286713
2491.520342	24.732867
2493.006137	20.226573
2494.490039	19.248951
2495.975293	16.974825
2497.455413	18.161538
2498.938505	21.046853
2500.419708	21.316084
2501.900640	25.855245
2503.379684	25.458741
2504.858460	27.868531
2506.336967	26.311189
2507.815205	27.245455
2509.293176	27.304895
2510.767641	25.248951
2512.245075	29.754545
2513.719006	26.266434
2515.194288	26.412587
2516.669302	26.990210
2518.140815	26.093007
2519.613679	27.554545
2521.084660	28.899301
2522.556991	31.095105
2524.024208	28.855944
2525.494392	25.978322
2526.962694	26.098601
2528.430732	26.632867
2529.898505	25.625175
2531.366013	22.274126
2532.833257	23.848252
2534.297008	23.918182
2535.762109	24.241958
2537.225333	22.719580
2538.689906	24.231469
2540.150991	24.827972
2541.613425	22.467832
2543.075596	20.471329
2544.534280	19.411888
2545.997537	18.742657
2547.455697	19.441259
2548.915206	19.903497
2550.369622	22.884615
2551.828608	20.664336
2553.285721	23.466434
2554.740964	25.029371
2556.195946	24.685315
2557.649058	24.632168
2559.103519	25.191608
2560.556111	24.693706
2562.008443	23.714685
2563.458907	21.023776
2564.912327	18.176923
2566.360665	16.562238
2567.811959	19.790909
2569.261386	19.720979
2570.707342	24.241259
2572.156252	25.087413
2573.601691	23.512587
2575.048479	24.388811
2576.493403	26.679720
2577.938070	27.323077
2579.384084	24.900699
2580.826631	22.632168
2582.270526	20.671329
2583.710956	21.531469
2585.152734	23.208392
2586.592652	26.316084
2588.033917	26.353147
2589.471720	24.832168
2590.912473	23.540559
2592.348163	22.286014
2593.786803	21.965734
2595.223586	21.513986
2596.658512	18.932867
2598.096387	19.842657
2599.529204	19.594406
2600.963368	20.797902
2602.395677	22.587413
2603.829334	25.719580
2605.261136	24.537762
2606.692686	23.657343
2608.123982	22.980420
2609.553427	21.453147
2610.982619	20.553147
2612.409960	21.547552
2613.838648	22.526573
2615.267083	22.974126
2616.692072	23.602098
2618.118406	22.616084
2619.542892	21.595804
2620.968724	24.460839
2622.391112	24.566434
2623.814846	25.041259
2625.236734	24.395804
2626.658371	23.872028
2628.078164	22.274126
2629.499301	20.192308
2630.920189	20.732867
2632.337639	19.784615
2633.758028	15.279720
2635.174980	11.583217
2636.591684	10.244056
2638.008139	10.371329
2639.424346	11.426573
2640.840304	15.303497
2642.254422	18.268531
2643.668293	22.620979
2645.080324	23.402797
2646.493700	25.444056
2647.903646	28.416084
2649.316528	31.217483
2650.725981	28.574825
2652.135188	26.165734
2653.542559	22.921678
2654.952864	21.029371
2656.361333	19.758042
2657.767967	18.974825
2659.174356	17.226573
2660.578911	16.352448
2661.984810	16.544056
2663.388876	18.134965
2664.792698	21.016783
2666.196275	23.386713
2667.598021	22.914685
2669.001110	24.949650
2670.400781	28.546154
2671.801796	31.046154
2673.199395	26.542657
2674.599923	28.400699
2675.997037	26.059441
2677.395494	25.683916
2678.792123	27.271329
2680.188511	29.013986
2681.584656	30.339860
2682.978975	28.091608
2684.374637	27.683916
2685.766889	29.593706
2687.160485	29.269930
2688.552256	27.688811
2689.945369	24.410490
2691.336659	26.755944
2692.726126	27.010490
2694.115354	28.672727
2695.504341	29.444056
2696.894671	29.267133
2698.280016	28.857343
2699.668286	27.927972
2701.054735	26.018881
2702.440945	23.715385
2703.826916	19.993706
2705.209489	20.185315
2706.593404	19.591608
2707.977080	20.216084
2709.360519	23.179021
2710.740562	24.965035
2712.121947	24.726573
2713.501516	23.641958
2714.882427	25.311189
2716.261523	27.016783
2717.638805	24.911888
2719.017428	22.358042
2720.394237	21.877622
2721.770811	20.748252
2723.147149	20.346154
2724.521675	19.387413
2725.897542	19.155944
2727.270022	21.902098
2728.645419	21.628671
2730.015854	22.483217
2731.387631	26.381818
2732.759174	31.447552
2734.128908	31.014685
2735.499982	31.122378
2736.869249	33.039161
2738.238282	29.968531
2739.605508	28.489510
2740.972502	24.695804
2742.339263	22.420280
2743.705791	22.353147
2745.070515	19.292308
2746.435006	18.053147
2747.799265	18.287413
2749.163293	19.787413
2750.527088	18.553846
2751.887510	20.411888
2753.250843	22.153846
2754.609233	18.413986
2755.970533	18.254545
2757.328462	19.702098
2758.689301	23.600000
2760.048339	24.112587
2761.404009	24.771329
2762.762588	24.655944
2764.117799	24.672028
2765.472781	25.113287
2766.825966	24.694406
2768.182058	24.228671
2769.534786	22.118881
2770.887285	18.657343
2772.239557	18.906993
2773.593166	19.290909
2774.943414	18.945455
2776.291869	18.850350
2777.643228	18.906993
2778.991228	18.686014
2780.340567	19.953147
2781.688113	21.449650
2783.035432	22.167133
2784.382525	20.913986
2785.727827	17.597203
2787.072903	18.339161
2788.417753	16.753147
2789.762377	15.499301
2791.103648	15.581818
2792.446258	16.695804
2793.788643	17.635664
2795.130802	17.541259
2796.469612	19.667133
2797.811322	21.399301
2799.149683	19.281818
2800.489382	17.440559
2801.827295	15.288811
2803.163424	18.157343
2804.499330	14.477622
2805.836572	16.000000
2807.172031	15.737063
2808.507267	16.777622
2809.840721	18.590210
2811.175511	17.133566
2812.506960	19.723776
2813.841305	20.414685
2815.170752	20.506294
2816.501536	21.327972
2817.832098	24.171329
2819.160881	24.169930
2820.491001	24.416783
2821.819341	25.755944
2823.147461	24.213986
2824.473804	26.009091
2825.801482	26.816783
2827.125828	25.372727
2828.451510	23.867133
2829.775416	21.162937
2831.099102	20.750350
2832.424124	19.024476
2833.745817	16.004196
2835.067290	13.145455
2836.388545	13.672727
2837.709581	14.135664
2839.028845	13.504196
2840.349444	15.159441
2841.668271	16.780420
2842.986880	15.283916
2844.303719	15.595804
2845.620340	15.255245
2846.936743	16.976923
2848.251378	16.310490
2849.567347	14.630769
2850.879997	17.151748
2852.193981	19.258741
2853.507749	22.925874
2854.821300	21.721678
2856.133084	22.125874
2857.443103	21.836364
2858.754456	22.170629
2860.062493	24.574126
2861.371866	21.660140
2862.681023	19.155245
2863.989965	18.914685
2865.297144	19.344056
2866.602559	19.509790
2867.909309	19.282517
2869.214297	21.592308
2870.519070	21.039860
2871.822083	21.440559
2873.127976	20.256643
2874.429015	20.341259
2875.731387	23.625175
2877.032000	20.509790
2878.333947	18.381818
2879.635681	20.361538
2880.934111	20.523776
2882.233874	20.467832
2883.531880	19.036364
2884.829674	19.280420
2886.125711	19.072028
2887.423082	19.320979
2888.718697	18.776224
2890.014102	17.200699
2891.309295	22.381119
2892.601190	20.822378
2893.895962	18.536364
2895.187438	18.278322
2896.480246	18.765734
2897.772844	18.015385
2899.062147	17.572727
2900.352783	15.813287
2901.641669	19.718182
2902.931886	18.795804
2904.218812	19.269231
2905.507070	18.553147
2906.793579	20.744755
2908.079879	19.113287
2909.365971	15.725175
2910.650315	14.790210
2911.937531	15.678322
2913.219920	17.148951
2914.503641	18.781119
2915.785615	17.862937
2917.067383	19.779021
2918.347405	16.320979
2919.630297	16.108392
2920.911444	18.059441
2922.189309	17.361538
2923.470043	19.636364
2924.747496	20.555245
2926.024744	21.513287
2927.300249	20.986014
2928.578622	19.679021
2929.852181	18.393007
2931.128606	17.127273
2932.403291	17.874825
2933.676236	16.403497
2934.950511	17.109091
2936.223047	17.404196
2937.495379	17.677622
2938.764438	21.264336
2940.036362	22.260839
2941.306548	20.176923
2942.576530	18.990210
2943.846309	18.445455
2945.114351	17.439161
2946.380658	17.543357
2947.646762	19.412587
2948.914197	17.503497
2950.179896	18.537762
2951.445393	19.619580
2952.710689	20.916084
2953.972719	22.788811
2955.236079	19.630070
2956.499238	18.800000
2957.760664	19.200699
2959.023420	18.613287
2960.284445	15.516783
2961.543739	13.397203
2962.802832	13.776923
2964.061725	15.384615
2965.320418	17.790909
2966.578911	22.530769
2967.835675	22.353846
2969.092240	23.427273
2970.347076	23.817483
2971.603242	23.761538
2972.856152	24.271329
2974.110392	22.618182
2975.364433	17.281119
2976.616748	17.595105
2977.868865	14.906993
2979.119257	14.639860
2980.372504	11.821678
2981.620974	13.650350
2982.872298	12.979021
2984.120374	14.017483
2985.368252	17.103497
2986.615933	17.937762
2987.863418	17.651748
2989.109181	17.391608
2990.354747	16.074825
2991.601642	17.496503
2992.845291	14.534266
2994.090269	14.834266
2995.332004	16.273427
2996.576590	16.993706
2997.819457	16.350350
2999.059082	17.970629
3000.301559	19.527273
3001.540795	20.735664
3002.781359	22.037762
3004.020206	22.678322
3005.258859	21.721678
3006.495796	20.102098
3007.734061	18.723776
3008.970610	16.760839
3010.206966	12.804196
3011.443128	8.414685
3012.677576	5.634266
3013.911831	7.906294
3015.145893	8.580420
3016.378243	11.365734
3017.608881	14.999301
3018.842365	14.554545
3020.074138	17.509790
3021.304199	18.451049
3022.534069	17.928671
3023.762229	16.783217
3024.991716	13.256643
3026.219493	13.551049
3027.447079	11.412587
3028.675991	16.537063
3029.900161	16.946154
3031.127174	19.631469
3032.350964	19.955944
3033.576079	16.420280
3034.799488	15.966434
3036.022708	16.923776
3037.244222	17.656643
3038.468577	16.435664
3039.688197	15.425175
3040.909143	13.859441
3042.129899	13.572028
3043.348952	16.439860
3044.569331	16.786014
3045.786493	18.509091
3047.004980	15.981119
3048.221766	12.465035
3049.438363	14.250350
3050.654773	17.748252
3051.867969	19.502797
3053.084003	20.596503
3054.296825	22.733566
3055.512484	23.137063
3056.723420	22.299301
3057.935682	19.177622
3059.147756	19.756643
3060.359644	18.978322
3061.569834	19.949650
3062.779839	21.899650
3063.989657	24.795105
3065.197779	26.205245
3066.405715	26.737063
3067.611957	29.545804
3068.819523	29.358042
3070.025394	24.766084
3071.231080	18.837762
3072.436582	13.722028
3073.640390	11.695804
3074.845522	8.869580
3076.048961	11.060839
3077.250708	11.329720
3078.452272	12.007692
3079.653652	9.855944
3080.854848	12.342657
3082.054354	15.309091
3083.253676	13.990210
3084.454322	13.222378
3085.653279	13.891608
3086.849040	13.015385
3088.047631	14.041259
3089.243028	15.167832
3090.439749	17.666434
3091.633277	15.967133
3092.829633	14.406993
3094.024302	11.649650
3095.215781	14.824476
3096.411591	13.967133
3097.602708	13.576224
3098.795148	15.650350
3099.984399	17.148252
3101.176477	18.193706
3102.366871	18.097203
3103.554078	18.321678
3104.742609	16.924476
3105.932462	16.454545
3107.119130	15.838462
3108.305619	17.972028
3109.491928	17.597902
3110.679560	15.862238
3111.864009	17.696503
3113.046778	20.410490
3114.232371	19.693706
3115.416283	21.534266
3116.598517	19.716084
3117.780573	20.943357
3118.962450	19.730769
3120.144149	22.579720
3121.324171	21.024476
3122.502516	20.966434
3123.683681	19.267133
3124.861671	16.925874
3126.039484	17.931469
3127.217120	18.236364
3128.393081	19.202797
3129.568866	23.074825
3130.745971	21.622378
3131.921403	21.780420
3133.095161	18.440559
3134.267246	20.733566
3135.440652	17.882517
3136.613883	16.639860
3137.785442	16.386713
3138.958321	16.230070
3140.128033	18.193007
3141.299066	19.592308
3142.468428	20.860140
3143.636121	19.240559
3144.806629	14.889510
3145.972478	14.005594
3147.142637	11.729371
3148.308138	13.158042
3149.473466	12.930070
3150.638620	10.643357
3151.803601	12.919580
3152.969901	15.642657
3154.131548	19.091608
3155.294516	21.565035
3156.457311	23.809091
3157.619932	23.031469
3158.780889	23.149650
3159.941674	25.917483
3161.102286	25.597902
3162.261234	27.213986
3163.420010	25.334965
3164.578615	22.601399
3165.737048	20.872727
3166.895309	17.905594
3168.051909	16.921678
3169.206846	17.146154
3170.363104	17.297902
3171.517700	15.225874
3172.672126	15.640559
3173.824891	17.525175
3174.977487	18.564336
3176.129913	22.015385
3177.282168	20.303497
3178.434254	22.342657
3179.583193	21.672727
3180.734939	22.141259
3181.885028	22.697203
3183.033459	25.228671
3184.181722	23.074825
3185.329816	21.321678
3186.477741	21.171329
3187.624010	20.470629
3188.770111	18.304895
3189.914558	17.769231
3191.058836	15.988112
3192.202947	14.825874
3193.348376	14.704196
3194.490666	14.509091
3195.632788	14.923077
3196.774744	16.411189
3197.916532	18.598601
3199.058153	21.106294
3200.196638	21.049650
3201.336442	19.948951
3202.477562	18.653147
3203.615548	17.433566
3204.751885	15.630070
3205.888056	14.221678
3207.025545	12.146853
3208.161385	11.569231
3209.298542	10.665734
3210.431086	13.258741
3211.567911	15.774126
3212.700125	15.473427
3213.833657	14.642657
3214.967023	14.408392
3216.097262	14.691608
3217.230300	13.046154
3218.360210	14.177622
3219.491438	16.310490
3220.619540	16.018182
3221.750440	19.408392
3222.879695	16.593706
3224.007307	21.555944
3225.131796	24.558042
3226.260561	26.531469
3227.386204	26.659441
3228.511684	26.216783
3229.635523	25.242657
3230.762157	22.857343
3231.884192	24.856643
3233.007544	22.944056
3234.130734	20.208392
3235.253762	18.597902
3236.375150	14.823776
3237.496377	18.398601
3238.615965	18.018182
3239.735392	20.595804
3240.853182	19.658042
3241.973763	18.279720
3243.091231	15.463636
3244.208538	16.307692
3245.325684	17.874825
3246.441195	14.045455
3247.558021	11.544056
3248.671736	11.317483
3249.788242	10.034266
3250.903112	11.169231
3252.014874	10.362937
3253.126477	14.137762
3254.239395	11.404196
3255.352153	11.808392
3256.461805	12.302098
3257.572772	16.737063
3258.683580	19.381119
3259.792756	19.940559
3260.900301	18.553147
3262.009161	21.188112
3263.117862	18.984615
3264.223461	19.960140
3265.330375	17.881119
3266.435659	15.908392
3267.542257	11.260140
3268.645755	9.555245
3269.750567	5.488112
3270.855222	7.494406
3271.956779	6.302797
3273.058179	6.871329
3274.160893	4.306993
3275.263450	9.245455
3276.362912	7.804196
3277.465156	11.927972
3278.564306	11.655245
3279.661830	13.401399
3280.759200	15.072727
3281.859351	13.670629
3282.956409	15.881119
3284.053313	16.664336
3285.150061	15.570629
3286.242250	17.197902
3287.338689	16.131469
3288.433505	18.553147
3289.528166	18.793007
3290.621206	21.787413
3291.714092	21.960839
3292.805357	24.353147
3293.897935	24.358042
3294.988893	23.883916
3296.078231	25.065734
3297.167416	22.509790
3298.257913	19.574126
3299.345326	17.804895
3300.432587	15.364336
3301.521160	14.880420
3302.609580	15.362937
3303.693453	15.976923
3304.781568	17.925874
3305.866602	18.509790
3306.950020	18.651049
3308.034750	20.651049
3309.117864	19.969231
3310.202290	20.370629
3311.283638	18.230070
3312.366298	14.837762
3313.447344	13.769231
3314.528239	12.733566
3315.607521	10.500699
3316.686652	10.276923
3317.767095	11.602098
3318.844463	12.849650
3319.923143	13.703497
3321.000211	15.948252
3322.077129	17.718881
3323.152437	21.173427
3324.227595	20.655245
3325.304064	19.258042
3326.377462	21.308392
3327.450712	18.062238
3328.525273	14.379021
3329.598224	13.547552
3330.669568	13.891608
3331.742222	11.809790
3332.811809	11.793007
3333.882707	9.297902
3334.951998	7.616084
3336.022600	7.266434
3337.091595	5.269231
3338.158985	8.981119
3339.224768	12.084615
3340.294778	8.483217
3341.361725	9.493007
3342.425610	11.806993
3343.492263	12.806294
3344.557312	12.801399
3345.620757	16.355245
3346.684055	14.346154
3347.747208	14.230769
3348.810214	16.053147
3349.873073	17.802797
3350.934331	19.511189
3351.992532	16.752448
3353.054954	12.382517
3354.114319	13.319580
3355.173540	13.883217
3356.234069	12.786014
3357.290089	15.023776
3358.348874	16.400000
3359.403151	16.401399
3360.460192	15.615385
3361.515634	18.347552
3362.572385	17.723776
3363.627539	16.747552
3364.681095	15.628671
3365.733054	16.847552
3366.787776	16.824476
3367.839448	17.923077
3368.890976	15.740559
3369.943814	16.501399
3370.993604	13.974126
3372.044703	11.688811
3373.092755	9.518881
3374.143568	10.820979
3375.191335	12.088811
3376.238960	13.650350
3377.286443	13.375524
3378.332332	12.548252
3379.379531	14.458741
3380.423686	15.303497
3381.470600	15.204196
3382.515923	16.527972
3383.558204	15.069231
3384.600344	12.938462
3385.643793	13.043357
3386.687100	13.318881
3387.728817	15.044056
3388.770394	13.320280
3389.811829	12.220280
3390.851676	12.991608
3391.889934	14.481119
3392.929500	14.532168
3393.968926	14.837762
3395.006764	15.039860
3396.043015	14.865734
3397.079126	14.353846
3398.116545	15.595105
3399.150931	16.306993
3400.186625	18.462937
3401.222179	18.648951
3402.254701	21.568531
3403.289977	21.528671
3404.322222	20.252448
3405.354329	20.141259
3406.384853	17.703497
3407.416683	16.427273
3408.448375	17.717483
3409.477039	18.335664
3410.505566	18.979021
3411.535399	19.873427
3412.565095	21.307692
3413.591765	19.573427
3414.619741	22.196503
3415.644693	19.260839
3416.672396	17.943357
3417.697074	15.907692
3418.723059	15.201399
3419.747465	16.298601
3420.771733	17.203497
3421.794424	18.037762
3422.816978	17.320979
3423.840838	17.818182
3424.861678	16.318182
3425.882382	14.764236
3426.904392	13.046129
3427.923384	11.291309
3428.942241	9.627223
3429.962404	8.181319
3430.979549	7.081044
