-118.277064	9.141071
-115.607463	7.684066
-112.940798	7.340784
-110.274885	7.826174
-107.611905	8.855182
-104.947494	10.142757
-102.286014	11.403846
-99.623105	9.802797
-96.965303	11.397552
-94.306070	11.381119
-91.647586	10.795804
-88.992027	8.145105
-86.335039	6.997203
-83.683148	3.377273
-81.029828	2.633217
-78.379427	2.252098
-75.727598	2.194406
-73.080859	1.004196
-70.432690	1.864336
-67.785265	0.569580
-65.140753	5.112587
-62.494812	4.999301
-59.853954	5.947902
-57.211665	5.670629
-54.572286	6.116434
-51.931478	4.718182
-49.291409	5.998252
-46.656414	7.893706
-44.019989	9.763986
-41.386468	8.955944
-38.751517	9.933566
-36.121633	11.940210
-33.488155	17.977972
-30.859740	16.890909
-28.232059	16.023427
-25.602950	7.796154
-22.978897	-41.627622
-20.351254	-188.544406
-17.728666	-430.599301
-15.106808	-295.663287
-12.485681	682.947552
-9.865285	2169.808042
-7.247776	3370.791958
-4.628839	4186.473427
-2.012788	4612.557692
0.602536	4639.832168
3.217131	4279.218881
5.828845	3538.106643
8.441986	2440.520979
11.050095	1109.126923
13.661784	-119.849650
16.268443	-657.018531
18.876530	-413.887063
21.483893	-39.358042
24.086231	3.709091
26.692147	7.377622
29.293042	10.910140
31.895364	9.955245
34.492668	11.507692
37.093548	12.744056
39.689414	11.255245
42.286707	10.495105
44.883281	11.021678
47.474846	9.940210
50.067839	11.550699
52.657972	9.629371
55.249531	8.887762
57.838231	8.309441
60.428359	4.851399
63.013487	2.108392
65.600043	0.867483
68.185884	1.662587
70.768872	4.553846
73.353287	5.129021
75.930572	6.641608
78.511424	9.691608
81.089427	12.690909
83.666720	12.982168
86.245440	12.034965
88.819177	9.720979
91.394341	6.863287
93.966662	5.939510
96.538276	5.396154
99.107049	5.079021
101.677249	5.559091
104.244610	3.096853
106.813398	4.795804
109.379349	5.415385
111.942464	8.136014
114.509137	11.011189
117.066587	17.493007
119.629723	26.533916
122.187900	38.694056
124.749631	58.600699
127.306405	93.353497
129.864605	142.193007
132.417853	204.178671
134.970402	282.091608
137.526503	364.728671
140.077655	446.614685
142.628110	534.877273
145.177867	610.800000
147.724805	672.022727
150.271048	712.793357
152.818716	735.702098
155.365688	746.403147
157.907724	751.140909
160.449068	748.743357
162.989718	740.863287
165.531793	736.694755
168.071058	725.368182
170.607513	717.789510
173.143278	718.917133
175.680468	716.282517
178.216967	713.764336
180.750660	710.411189
183.281549	707.456993
185.811750	704.222727
188.343376	704.546154
190.872202	705.040909
193.398228	704.601049
195.923568	705.122028
198.450333	705.792308
200.974302	704.870629
203.497585	706.069231
206.020184	704.357343
208.539990	702.574476
211.059113	699.113986
213.577553	698.854196
216.097418	699.213986
218.610280	700.537413
221.126674	700.937762
223.642387	703.665035
226.153209	707.051399
228.665456	711.295455
231.174920	713.369580
233.683706	716.697552
236.191814	719.607343
238.701346	723.782517
241.205997	726.980769
243.709972	734.427622
246.215371	737.565734
248.715895	738.258392
251.219942	740.601748
253.717019	743.261538
256.217618	745.782168
258.715446	749.506294
261.212601	754.220280
263.709084	758.444755
266.200703	762.424476
268.695841	764.407692
271.188214	765.403147
273.679916	768.367832
276.168855	765.435315
278.659217	765.791259
281.146818	768.713986
283.631659	770.065035
286.120014	772.823427
288.601431	779.556294
291.086361	787.246154
293.566445	792.911888
296.050042	800.026573
298.528797	802.528322
301.008974	802.993007
303.486400	805.216434
305.963162	811.169930
308.439260	837.784266
310.912610	882.979021
313.385299	934.242657
315.857326	982.139860
318.328691	1019.953147
320.797313	1041.115385
323.265275	1045.712937
325.734660	1034.860490
328.199222	1003.353497
330.667287	959.352797
333.130533	915.361189
335.593122	876.589510
338.055053	857.670629
340.516328	854.841958
342.974869	857.530769
345.434832	859.152448
347.892063	859.351748
350.348639	858.994056
352.804560	860.103497
355.257753	857.740559
357.712368	855.390210
360.162181	853.536014
362.615490	853.190210
365.064000	849.249301
367.511860	849.654196
369.961141	850.956993
372.405629	851.098252
374.851539	853.030769
377.296800	852.304895
379.739342	850.887063
382.181236	850.325874
384.622482	848.979720
387.061013	852.370979
389.500966	855.567483
391.938205	854.481818
394.372732	852.989860
396.810747	856.459790
399.243985	856.061538
401.678645	855.136713
404.108532	854.652098
406.541904	852.630420
408.970506	851.188811
411.398466	851.608392
413.827847	853.245105
416.252464	857.088462
418.678501	859.354196
421.103899	861.447902
423.528656	863.522727
425.948654	868.993357
428.370074	870.987762
430.788797	872.595804
433.208941	872.441259
435.626390	873.781469
438.045259	869.100000
440.461435	866.466084
442.872864	864.284266
445.287769	860.800350
447.699984	859.209091
450.111565	859.766783
452.522513	855.160839
454.930773	853.617832
457.338402	853.051748
459.745398	849.647552
462.151762	844.498951
464.555445	839.740559
466.958497	831.434965
469.360919	826.054545
471.762711	820.508042
474.161825	812.629720
476.562359	813.261538
478.962264	814.701748
481.357447	814.053147
483.756095	814.501399
486.150024	814.255594
488.543327	809.055594
490.936004	800.417483
493.328056	785.178322
495.721527	764.517483
498.110285	741.511189
500.496377	713.669580
502.883889	682.591958
505.270777	656.496853
507.655002	631.242657
510.040646	607.095455
512.423627	586.647203
514.803948	568.723776
517.185688	554.132517
519.564770	538.023776
521.945269	525.734266
524.323111	515.199650
526.698298	506.756643
529.072867	497.860140
531.448855	489.919930
533.822189	481.724126
536.196942	477.726224
538.567008	472.684615
540.936459	471.618881
543.307329	467.310490
545.673517	464.988811
548.041124	461.026923
550.406085	460.729021
552.770434	457.043007
555.134169	454.641259
557.499322	452.319231
559.859803	451.798601
562.221701	446.353147
564.580960	442.825524
566.937580	437.953846
569.297646	435.670979
571.651020	432.752098
574.007839	430.747203
576.362023	427.675524
578.715598	425.993357
581.068565	424.113287
583.418901	423.626224
585.770654	423.402448
588.115729	425.994406
590.466269	424.024126
592.810136	424.165734
595.159464	423.025524
597.504143	422.906643
599.846198	423.568881
602.189670	421.451049
604.530519	418.132517
606.870765	415.603497
609.208391	411.990210
611.549452	406.767133
613.885876	401.002098
616.223716	396.626923
618.558938	391.529371
620.891545	388.899301
623.225569	383.724476
625.556978	380.677622
627.887789	377.868881
630.218002	376.719231
632.547618	375.558392
634.872610	376.392308
637.203044	374.654545
639.528856	373.012238
641.852062	370.420280
644.176684	369.165035
646.498700	367.268881
648.820122	364.965385
651.138941	361.214336
653.459176	358.066434
655.778818	355.844056
658.095859	354.758042
660.412309	351.374825
662.726160	350.811888
665.041426	347.707692
667.354096	347.187413
669.668181	344.595804
671.977667	343.466084
674.288567	343.140909
676.596875	340.370979
678.904595	337.357692
681.213730	333.153846
683.518272	332.541608
685.822228	329.293706
688.125597	325.820629
690.430381	325.941608
692.730579	324.981818
695.032192	325.849301
697.333219	323.949650
699.629665	322.531469
701.927525	322.276573
704.224803	320.112587
706.521496	319.196853
708.813614	317.646154
711.109143	318.498601
713.400099	319.473077
715.692469	319.075524
717.982263	321.697552
720.271478	321.344755
722.560113	323.669231
724.846175	322.547203
727.133651	324.050350
729.418557	324.653147
731.702884	327.643357
733.984644	328.046853
736.267817	328.114685
738.550413	329.296853
740.828453	332.029021
743.107907	331.200000
745.386786	332.314336
747.665090	330.863287
749.938843	332.334615
752.214011	334.868531
754.488605	337.296154
756.760640	336.670280
759.034088	339.298601
761.304978	339.426573
763.573312	343.347203
765.843059	345.276923
768.110251	349.272727
770.376873	353.750000
772.642926	357.561888
774.906427	358.230070
777.171340	361.565385
779.435685	365.538462
781.695499	367.372028
783.956727	366.900699
786.217387	366.174476
788.475500	362.403147
790.731070	360.286713
792.990029	355.609790
795.242490	354.372378
797.500318	353.658741
799.753627	352.569231
802.004395	348.225524
804.256576	349.098951
806.506219	349.275524
808.757273	349.924825
811.003816	346.285664
813.251772	345.624126
815.497192	341.079021
817.744025	340.101748
819.990295	337.526573
822.232062	335.197203
824.477211	331.736364
826.715888	327.773077
828.957948	322.317832
831.195509	321.389161
833.434481	317.099650
835.670928	314.811888
837.908785	311.001049
840.144117	312.646503
842.376925	309.804545
844.611145	312.656294
846.842843	309.566434
849.073986	306.407343
851.304574	304.939860
853.534608	303.455944
855.764087	302.846154
857.989086	303.731818
860.217458	302.877622
862.441352	305.744056
864.666656	305.563986
866.887485	308.206643
869.111687	305.844406
871.331415	308.732517
873.552553	307.318531
875.773141	304.855944
877.991220	307.836713
880.210708	311.062937
882.425730	313.665035
884.640204	314.594406
886.854131	313.517483
889.067510	314.456993
891.280343	310.035315
893.492628	306.769580
895.702412	303.652797
897.911650	303.422727
900.120342	305.055594
902.326536	303.707343
904.534139	306.526224
906.739245	309.773427
908.943807	310.518881
911.145874	313.288462
913.349350	312.865734
915.550332	314.024476
917.750772	311.963986
919.952621	312.703846
922.148079	313.093706
924.346895	312.837762
926.541274	315.993007
928.739010	313.318881
930.932310	309.381119
933.127018	311.621678
935.319241	313.974126
937.510926	316.906993
939.702073	319.668182
941.890737	323.806294
944.078864	326.494406
946.264511	331.072378
948.453511	332.436364
950.638086	336.529720
952.822127	339.514685
955.009518	336.784615
957.188606	339.727622
959.371044	348.590559
961.552947	354.891608
963.732377	365.457692
965.909334	375.416783
968.087699	381.754545
970.267470	386.820280
972.440893	397.667133
974.617663	403.187063
976.790025	410.078671
978.963795	412.283916
981.133161	414.587063
983.305871	420.851748
985.476115	425.295455
987.645831	431.915035
989.815018	442.283566
991.979808	435.753846
994.147940	437.887762
996.311676	436.831469
998.476820	439.923077
1000.639504	445.575175
1002.801663	447.808741
1004.961364	451.004196
1007.120542	456.259441
1009.281126	460.546154
1011.439255	469.163287
1013.596860	482.461888
1015.753942	489.943706
1017.910501	489.117832
1020.062680	499.505245
1022.216266	498.296154
1024.369330	501.041958
1026.519945	510.695105
1028.671966	507.645105
1030.819615	504.027622
1032.970594	508.767133
1035.117204	518.229371
1037.263294	527.080420
1039.408866	537.323427
1041.555842	534.395455
1043.696531	541.127622
1045.840548	547.443706
1047.982126	543.939860
1050.123186	542.082517
1052.265651	546.286014
1054.401837	538.520979
1056.541349	535.824825
1058.676505	542.901399
1060.814986	544.845105
1062.949114	549.763636
1065.082728	554.372028
1067.217746	549.935315
1069.348415	549.495105
1071.480490	545.940559
1073.610134	540.850000
1075.739267	538.154895
1077.867889	536.231119
1079.995999	524.377273
1082.121683	515.217832
1084.246857	504.152448
1086.373434	493.833916
1088.495675	489.781119
1090.619320	483.300350
1092.738630	471.775175
1094.863169	455.991958
1096.981464	456.002797
1099.101162	455.505245
1101.218442	452.050699
1103.335216	451.561888
1105.451483	445.982168
1107.565335	439.166084
1109.680590	437.107692
1111.791523	433.788811
1113.905768	428.231119
1116.015692	428.129371
1118.127019	427.212937
1120.237843	423.490909
1122.344350	431.325874
1124.454166	435.126923
1126.559668	439.608741
1128.666574	440.811189
1130.767264	436.474126
1132.873165	430.028671
1134.974758	426.037063
1137.077754	414.815734
1139.180249	405.846503
1141.276538	403.777972
1143.378033	400.186014
1145.475226	391.826573
1147.571920	389.938811
1149.668117	390.703147
1151.763815	391.793357
1153.859016	388.994406
1155.951820	388.602098
1158.046026	387.092657
1160.134041	386.775874
1162.227254	385.729371
1164.314279	391.176923
1166.404604	395.297552
1168.490640	395.589161
1170.579974	395.453147
1172.663127	394.881119
1174.747683	394.551748
1176.833639	391.942657
1178.915315	386.896853
1180.998391	382.779371
1183.079082	380.933217
1185.159282	381.169231
1187.238990	381.429021
1189.318207	383.118182
1191.395041	380.470280
1193.469495	381.922727
1195.547241	386.715734
1197.620716	385.344755
1199.695593	382.463986
1201.766202	379.232168
1203.838212	375.695105
1205.907846	374.353846
1207.978881	371.340559
1210.049428	370.700699
1212.115715	370.206294
1214.183401	368.409091
1216.248716	365.176923
1218.315431	363.789510
1220.377890	364.473077
1222.443635	363.327622
1224.505125	364.617832
1226.568015	366.693706
1228.628538	367.498252
1230.688578	369.776224
1232.748134	370.882517
1234.805326	373.107692
1236.862035	372.036014
1238.916382	369.356993
1240.974009	364.959091
1243.029274	362.052448
1245.080298	363.421678
1247.132723	364.172028
1249.184667	363.288811
1251.234253	366.721678
1253.283360	368.957343
1255.331988	371.177972
1257.380138	371.818881
1259.427810	370.045804
1261.471251	366.361538
1263.517967	365.874476
1265.562331	369.005944
1267.606217	375.166434
1269.647753	376.159091
1271.686939	376.890210
1273.729397	378.119580
1275.767634	388.062238
1277.807268	391.299301
1279.846428	395.595105
1281.881370	393.788462
1283.917710	398.866434
1285.951705	401.646503
1287.987099	411.586014
1290.018279	418.984965
1292.050858	427.501399
1294.082964	428.212587
1296.112730	435.388462
1298.143894	445.488811
1300.170850	457.702098
1302.199204	464.720280
1304.223354	472.965035
1306.250769	478.123427
1308.273981	492.943357
1310.298591	502.290909
1312.320866	514.270280
1314.344539	524.978322
1316.365879	542.183217
1318.386752	556.599301
1320.407157	578.427273
1322.423369	596.028671
1324.440978	614.606643
1326.456259	633.638112
1328.474799	655.742308
1330.489149	672.152797
1332.501174	686.660140
1334.516457	697.543007
1336.527554	703.230769
1338.540047	709.090210
1340.548358	708.645804
1342.559925	701.607692
1344.565453	694.650699
1346.574235	681.481469
1348.578841	668.599650
1350.586700	652.369580
1352.594097	635.953497
1354.595462	614.406294
1356.598225	595.901049
1358.600528	580.854545
1360.602370	563.654895
1362.603754	546.626224
1364.602823	529.271678
1366.601434	512.430769
1368.599587	499.651049
1370.597282	488.538112
1372.590813	473.991608
1374.585741	463.308392
1376.580212	453.474126
1378.574226	443.993007
1380.565933	437.735664
1382.557184	431.723776
1384.546130	425.263287
1386.536471	415.471329
1388.526357	409.330070
1390.513940	401.811189
1392.501069	397.349650
1394.485896	393.004196
1396.472118	388.841608
1398.456039	387.979371
1400.439508	387.461888
1402.422525	387.780070
1404.403244	385.944755
1406.385357	385.763636
1408.365173	383.258741
1410.344539	380.282867
1412.319766	380.233566
1414.298231	377.038462
1416.274403	379.817832
1418.250125	378.995804
1420.225398	375.880420
1422.198381	372.344755
1424.170915	371.995455
1426.143001	369.064336
1428.114639	364.279021
1430.082150	364.525874
1432.054734	358.869580
1434.019512	357.818531
1435.989363	357.810140
1437.955089	355.701399
1439.922209	360.814685
1441.887045	360.450000
1443.847761	358.812587
1445.813545	359.958741
1447.773374	361.992308
1449.734596	361.246503
1451.697211	361.669930
1453.655711	361.974476
1455.613769	359.079371
1457.571384	355.820979
1459.528558	354.863287
1461.483456	355.461538
1463.439746	354.940909
1465.393762	354.071678
1467.347338	352.494406
1469.298641	350.592308
1471.251336	349.120629
1473.201760	349.245105
1475.151745	349.344056
1477.101291	351.065385
1479.048567	350.525175
1480.993577	352.340210
1482.939979	354.455245
1484.885943	358.842657
1486.831470	361.791958
1488.774731	361.188112
1490.717556	359.276224
1492.658118	357.355594
1494.600072	355.411538
1496.539763	353.486364
1498.479019	353.554895
1500.417841	354.807692
1502.354403	354.035315
1504.292355	359.122727
1506.228050	356.260839
1508.163311	359.044755
1510.096315	368.871678
1512.028887	371.945105
1513.961027	379.163287
1515.892735	382.436014
1517.822190	387.580070
1519.753034	391.318881
1521.683448	396.432867
1523.609789	395.172378
1525.537520	394.465035
1527.463001	394.742657
1529.388053	392.382867
1531.312676	395.304895
1533.236870	402.308042
1535.158817	407.635664
1537.082153	414.718881
1539.003244	419.731119
1540.922090	431.700350
1542.842326	441.756294
1544.760318	452.790559
1546.677884	464.846154
1548.593209	479.745105
1550.509922	494.111538
1552.422581	509.802448
1554.338444	525.035315
1556.252068	541.882517
1558.163453	558.280420
1560.076227	575.027622
1561.984953	588.735315
1563.895067	601.667133
1565.804758	606.672727
1567.714026	613.278671
1569.621059	616.178322
1571.525860	615.047203
1573.432050	608.870629
1575.336009	606.925874
1577.239546	603.265385
1579.142662	598.222028
1581.043550	588.763636
1582.945826	580.645455
1584.845873	573.087063
1586.747309	565.413636
1588.644710	551.484965
1590.541694	543.165385
1592.438259	540.097902
1594.336211	538.182517
1596.228329	536.755245
1598.123641	535.726573
1600.018534	528.361888
1601.911207	524.491958
1603.803462	517.057692
1605.693498	511.161189
1607.583118	502.239510
1609.472323	494.438112
1611.361112	476.355245
1613.247685	465.351049
1615.135645	455.639510
1617.019588	445.257692
1618.904918	431.259441
1620.789835	414.330070
1622.672538	397.816084
1624.556628	390.774825
1626.436706	385.313287
1628.318171	383.223776
1630.197426	374.388462
1632.078067	371.495455
1633.952905	361.002448
1635.832723	355.144056
1637.708536	346.369580
1639.583940	345.182867
1641.460729	339.494056
1643.331721	336.232168
1645.205896	327.314336
1647.076071	328.298252
1648.949427	329.539161
1650.820580	327.481469
1652.689531	319.741608
1654.559868	316.513986
1656.426211	312.822378
1658.293941	305.779720
1660.159471	302.488112
1662.026386	302.995804
1663.889313	296.664685
1665.753625	296.963287
1667.615742	288.722378
1669.477453	294.898252
1671.340549	298.242308
1673.201451	299.260140
1675.060159	306.088462
1676.918465	309.048252
1678.778154	310.766434
1680.632077	308.389161
1682.489173	303.205245
1684.345865	295.060839
1686.198582	291.241259
1688.054470	292.682867
1689.906384	279.606294
1691.757897	280.240909
1693.609009	275.426573
1695.459720	275.769580
1697.310031	276.983566
1699.158158	279.365035
1701.007668	281.597203
1702.851430	279.055594
1704.700142	270.991259
1706.543107	272.620979
1708.389238	279.990210
1710.231408	280.559790
1712.076742	273.345455
1713.916336	276.377273
1715.757314	275.541259
1717.599676	282.771329
1719.438080	286.256643
1721.277868	296.556993
1723.115481	298.210839
1724.952698	291.561189
1726.787742	285.788462
1728.624169	281.378671
1730.458424	275.406294
1732.292285	267.990210
1734.125751	266.505944
1735.955271	262.967133
1737.787950	260.857343
1739.616685	264.127622
1741.448578	270.321329
1743.276528	282.033916
1745.104086	283.478671
1746.931253	283.998951
1748.758028	285.533916
1750.584411	286.084965
1752.406858	283.941958
1754.232459	280.674825
1756.054126	282.905245
1757.877175	273.736014
1759.698063	272.628322
1761.518561	271.695804
1763.340441	273.156294
1765.156621	273.062937
1766.975953	263.764336
1768.791358	260.659790
1770.609914	255.193357
1772.424544	251.923077
1774.238787	249.353147
1776.052644	252.198951
1777.866114	259.331469
1779.677430	262.519231
1781.490128	267.762587
1783.302439	271.674126
1785.110833	275.856643
1786.920608	275.852797
1788.726467	275.863636
1790.535473	271.239510
1792.340565	264.826923
1794.147037	261.703497
1795.953126	257.497203
1797.755305	256.534266
1799.560627	252.765385
1801.362041	251.197203
1803.164835	252.412587
1804.963724	256.127273
1806.763992	260.737762
1808.563880	260.310839
1810.361625	261.573776
1812.158990	260.915734
1813.955974	265.166084
1815.752578	265.924825
1817.547043	260.200000
1819.342888	259.513287
1821.133077	257.534965
1822.928163	260.714336
1824.717596	264.111538
1826.510167	263.206643
1828.300602	260.081818
1830.088902	256.058741
1831.880338	252.718182
1833.666129	256.224126
1835.453298	260.238112
1837.238337	260.039161
1839.026508	263.120629
1840.810794	274.724126
1842.592951	280.385315
1844.376487	284.531469
1846.157894	288.159441
1847.940679	284.555245
1849.719585	276.510839
1851.499869	273.362238
1853.278028	267.068531
1855.057564	262.717832
1856.834976	260.173077
1858.610264	262.950350
1860.386931	260.693357
1862.161475	269.606294
1863.937396	267.346503
1865.707698	269.824476
1867.481127	270.139510
1869.252436	264.688811
1871.023374	262.489860
1872.795689	260.135664
1874.562392	261.051399
1876.332219	263.273077
1878.098183	269.657343
1879.867271	270.498252
1881.632497	262.502797
1883.397355	264.487413
1885.163589	264.918531
1886.925965	266.358392
1888.687974	262.775874
1890.449616	259.998951
1892.210890	258.006993
1893.971798	256.452797
1895.732338	263.332517
1897.490770	270.213636
1899.248835	269.788112
1901.004793	265.004196
1902.762127	258.987762
1904.519095	256.042657
1906.273958	258.353497
1908.026715	254.474126
1909.779109	249.059091
1911.532879	247.392308
1913.284545	251.195455
1915.034108	254.945804
1916.785048	259.246853
1918.535624	265.406643
1920.282362	264.998252
1922.030475	268.603846
1923.776489	266.772727
1925.523879	267.518182
1927.269170	265.520629
1929.012364	262.874476
1930.756934	262.549301
1932.499407	265.189860
1934.241520	265.567133
1935.983274	263.518007
1937.724667	264.843007
1939.463967	269.708916
1941.202908	267.709790
1942.941490	268.186888
1944.677980	266.281469
1946.414113	267.092133
1948.151620	262.445804
1949.885306	260.773951
1951.620366	259.932517
1953.353337	258.259615
1955.085952	252.837762
1956.818210	252.416259
1958.550112	255.989510
1960.279928	261.054545
1962.007660	260.831119
1963.736766	264.513287
1965.465516	266.022378
1967.192183	264.778322
1968.918496	266.025524
1970.646182	264.841608
1972.368333	266.403147
1974.093584	265.013287
1975.815028	262.351049
1977.539572	262.354895
1979.262037	267.462238
1980.980698	268.799650
1982.702458	266.927622
1984.420416	265.579371
1986.139748	260.390210
1987.855279	262.065035
1989.575632	269.663287
1991.292186	271.949301
1993.004943	275.044755
1994.720796	277.047203
1996.434577	280.168881
1998.148008	283.242308
1999.859367	287.313287
2001.572100	283.839510
2003.281041	277.337762
2004.993076	273.396503
2006.699601	267.156294
2008.409219	269.360140
2010.116769	267.134615
2011.823972	265.993007
2013.529109	266.716434
2015.233899	268.843007
2016.940061	271.152448
2018.642441	276.962937
2020.346193	277.104895
2022.047882	276.260140
2023.749225	274.125524
2025.450223	272.055245
2027.149161	269.128671
2028.849470	268.011189
2030.546003	263.175524
2032.243908	264.221329
2033.939755	266.046154
2035.638687	267.865734
2037.332133	273.471678
2039.026950	279.238112
2040.721424	278.282867
2042.412130	280.151399
2044.105920	279.644056
2045.795943	279.052797
2047.487337	277.068182
2049.176678	274.072028
2050.867389	266.793357
2052.554338	262.495455
2054.240946	261.755245
2055.928925	261.200000
2057.613144	261.144406
2059.298733	259.819231
2060.983983	258.955594
2062.667185	258.667483
2064.351757	259.225874
2066.030865	261.364336
2067.714759	261.559441
2069.393193	261.197203
2071.074704	259.367133
2072.752463	259.574476
2074.429886	265.201399
2076.108678	265.740559
2077.785427	265.989161
2079.460135	267.886364
2081.136212	268.152797
2082.810249	267.524126
2084.483950	267.018881
2086.157316	264.947203
2087.828644	265.923077
2089.499637	265.495455
2091.170296	264.823776
2092.840621	264.463636
2094.510611	265.406993
2096.178566	266.147552
2097.846188	263.719231
2099.511776	267.363287
2101.178732	267.464685
2102.843655	267.962238
2104.508245	264.929720
2106.170804	264.741608
2107.834732	266.748252
2109.496628	268.137762
2111.158193	266.569930
2112.819428	265.751399
2114.478633	265.881119
2116.137509	266.454545
2117.796054	266.305944
2119.454270	268.036014
2121.108763	268.640909
2122.766320	268.393357
2124.423547	263.747902
2126.077054	266.995804
2127.731928	265.282168
2129.383083	268.295455
2131.037301	263.797552
2132.687801	264.390559
2134.339669	261.731119
2135.986128	260.586713
2137.637341	260.152797
2139.284842	260.097902
2140.933709	265.675524
2142.580557	268.717133
2144.227080	267.458042
2145.873277	270.154545
2147.515765	272.070979
2149.161312	274.388112
2150.803152	271.733566
2152.448049	269.554196
2154.089241	263.675524
2155.730109	262.161538
2157.370654	258.369580
2159.009186	261.117133
2160.649084	262.101399
2162.285282	258.498601
2163.922846	256.604196
2165.560088	259.689860
2167.195320	264.562587
2168.830230	265.724126
2170.464819	263.381818
2172.099087	260.971329
2173.729661	258.937762
2175.363286	258.086713
2176.993220	257.416084
2178.624520	258.720629
2180.253814	258.949650
2181.882789	258.579371
2183.511444	263.161538
2185.139780	264.460490
2186.766113	266.251049
2188.392128	262.453497
2190.016142	259.922378
2191.641521	259.792657
2193.264899	257.846154
2194.889642	257.627972
2196.510703	259.111189
2198.131449	259.534266
2199.753558	259.556993
2201.373670	259.214685
2202.991786	255.364685
2204.609586	254.326573
2206.227070	253.996853
2207.844239	251.190909
2209.461093	254.591958
2211.077632	255.929021
2212.692177	257.826573
2214.304731	256.315385
2215.918648	262.927972
2217.530573	263.855944
2219.143863	264.594755
2220.755161	266.940559
2222.364471	265.224825
2223.975143	268.900000
2225.583827	265.475874
2227.192199	263.797902
2228.798583	264.386364
2230.406331	262.698252
2232.012092	257.821329
2233.617543	251.668881
2235.221008	257.153497
2236.825836	258.704545
2238.428680	264.403846
2240.029541	269.504196
2241.631765	270.966084
2243.232007	272.618182
2244.833611	271.358392
2246.431562	273.163287
2248.030876	273.258042
2249.628210	271.317483
2251.225236	265.803147
2252.823623	261.780769
2254.418362	262.831818
2256.011125	267.433217
2257.605249	271.682867
2259.200736	271.248252
2260.792577	270.818531
2262.384112	273.037762
2263.977008	269.894755
2265.564595	274.415734
2267.156879	273.332517
2268.743855	277.132517
2270.333860	276.997203
2271.918560	276.768182
2273.507954	274.791608
2275.092045	276.341259
2276.677498	270.253147
2278.260982	266.878322
2279.847491	259.437413
2281.430367	255.141608
2283.012939	248.012762
2284.595209	248.696503
2286.173848	248.929545
2287.755512	249.905594
2289.333547	249.315909
2290.914605	254.662587
2292.492036	254.835140
2294.067504	253.969930
2295.645994	253.380594
2297.220859	256.937063
2298.795425	249.225000
2300.369689	250.169580
2301.943653	246.785839
2303.517317	248.894056
2305.090680	250.698252
2306.660425	247.841608
2308.229871	246.763287
2309.802336	245.998252
2311.369526	242.198951
2312.939733	243.632517
2314.506327	245.679371
2316.074279	245.997902
2317.640277	244.443357
2319.205977	251.956643
2320.771379	258.054196
2322.334828	274.099650
2323.899636	285.185664
2325.460835	295.310490
2327.025049	294.381119
2328.584002	292.602098
2330.145968	289.318531
2331.705984	286.761189
2333.265704	272.247203
2334.823475	265.006993
2336.380952	258.237413
2337.938133	251.181469
2339.493368	250.308392
2341.048308	253.081469
2342.602955	253.280420
2344.157308	256.629021
2345.711367	253.865734
2347.265133	256.585664
2348.816954	256.030070
2350.366832	257.209091
2351.919718	254.359790
2353.467362	258.621678
2355.018013	255.954895
2356.565074	253.895105
2358.113492	256.511538
2359.661618	254.393706
2361.206157	256.452797
2362.752053	258.741958
2364.296010	263.654895
2365.841325	261.403497
2367.383055	262.776573
2368.926143	261.467832
2370.467294	260.353846
2372.008156	258.751399
2373.548729	256.170629
2375.089013	255.327622
2376.629008	251.037413
2378.165424	245.732168
2379.704842	250.022028
2381.240683	254.477622
2382.777880	253.326923
2384.311503	248.735315
2385.848125	250.254545
2387.382817	252.092657
2388.915578	257.736014
2390.448054	257.453846
2391.978601	255.483566
2393.512146	255.192308
2395.040480	254.262587
2396.570170	259.248951
2398.099575	269.997552
2399.628695	272.883217
2401.157529	270.308042
2402.681159	275.198601
2404.209424	271.977622
2405.732486	278.617133
2407.260183	276.600000
2408.781039	269.588112
2410.306529	259.755944
2411.828459	259.452797
2413.351743	256.320979
2414.873107	257.897203
2416.392551	255.170979
2417.913350	252.682867
2419.432230	259.181818
2420.950828	262.452098
2422.467509	263.376923
2423.985545	268.631119
2425.503299	269.460839
2427.017501	275.164336
2428.531423	280.863287
2430.045066	286.508392
2431.560062	284.433217
2433.071511	282.869231
2434.584313	279.003846
2436.095203	276.367832
2437.605813	273.328671
2439.114512	268.105245
2440.626198	260.082517
2442.134340	255.451399
2443.642203	250.954895
2445.149789	251.182517
2446.653835	253.039161
2448.160865	258.558392
2449.665987	260.262937
2451.170832	260.443357
2452.673770	262.642657
2454.176431	260.500350
2455.678816	263.333916
2457.179296	266.381119
2458.681129	263.364685
2460.181058	263.356993
2461.680711	260.085315
2463.180089	259.585664
2464.677564	263.366084
2466.173137	271.474126
2467.671690	267.697552
2469.166715	262.707692
2470.663092	260.859441
2472.155943	257.440210
2473.650146	259.247552
2475.144077	259.823776
2476.634483	259.594406
2478.127867	259.707343
2479.619353	257.329021
2481.108942	257.490559
2482.598259	258.315385
2484.085680	259.156993
2485.576077	253.226224
2487.062955	253.460140
2488.551186	256.436713
2490.035899	256.472378
2491.520342	256.886713
2493.006137	263.533217
2494.490039	262.926573
2495.975293	264.629720
2497.455413	261.505594
2498.938505	263.128322
2500.419708	260.718182
2501.900640	264.988112
2503.379684	264.002098
2504.858460	264.866783
2506.336967	265.184615
2507.815205	260.195455
2509.293176	257.276573
2510.767641	257.253846
2512.245075	255.173776
2513.719006	259.476923
2515.194288	258.411538
2516.669302	255.173077
2518.140815	254.148252
2519.613679	260.088462
2521.084660	259.932867
2522.556991	259.075175
2524.024208	260.667133
2525.494392	258.335315
2526.962694	257.541608
2528.430732	260.593007
2529.898505	265.212238
2531.366013	268.036364
2532.833257	263.719231
2534.297008	260.315734
2535.762109	260.407343
2537.225333	264.718182
2538.689906	268.841958
2540.150991	273.423776
2541.613425	276.740559
2543.075596	280.452098
2544.534280	279.916084
2545.997537	278.753147
2547.455697	272.793357
2548.915206	272.570979
2550.369622	265.909790
2551.828608	264.024825
2553.285721	258.777972
2554.740964	252.718182
2556.195946	251.013636
2557.649058	255.461538
2559.103519	258.452448
2560.556111	262.663287
2562.008443	257.356643
2563.458907	253.493007
2564.912327	251.296853
2566.360665	254.905245
2567.811959	253.086364
2569.261386	256.459441
2570.707342	255.004545
2572.156252	251.770629
2573.601691	253.670629
2575.048479	259.000000
2576.493403	258.444056
2577.938070	263.732517
2579.384084	258.911888
2580.826631	257.131469
2582.270526	252.413986
2583.710956	249.498951
2585.152734	246.810490
2586.592652	252.911538
2588.033917	254.695804
2589.471720	255.703497
2590.912473	253.284615
2592.348163	253.292657
2593.786803	258.196503
2595.223586	266.604545
2596.658512	267.899301
2598.096387	271.805594
2599.529204	272.515035
2600.963368	274.522378
2602.395677	274.409790
2603.829334	278.357343
2605.261136	277.030070
2606.692686	268.706993
2608.123982	263.853147
2609.553427	265.760140
2610.982619	267.341259
2612.409960	269.048601
2613.838648	271.615734
2615.267083	275.028671
2616.692072	277.781818
2618.118406	278.740559
2619.542892	278.772378
2620.968724	281.125524
2622.391112	281.652797
2623.814846	277.274825
2625.236734	275.220979
2626.658371	275.881818
2628.078164	274.815035
2629.499301	277.150000
2630.920189	280.653846
2632.337639	283.742308
2633.758028	279.302098
2635.174980	281.960140
2636.591684	281.179021
2638.008139	284.968182
2639.424346	287.307692
2640.840304	287.815734
2642.254422	281.495105
2643.668293	282.862937
2645.080324	288.646503
2646.493700	291.288462
2647.903646	293.512238
2649.316528	297.676224
2650.725981	293.441608
2652.135188	299.996503
2653.542559	300.319231
2654.952864	304.813287
2656.361333	304.287762
2657.767967	307.840559
2659.174356	301.394056
2660.578911	302.666434
2661.984810	305.514685
2663.388876	304.092657
2664.792698	302.474476
2666.196275	307.075874
2667.598021	305.338112
2669.001110	308.975524
2670.400781	316.136364
2671.801796	317.672727
2673.199395	315.954895
2674.599923	322.079371
2675.997037	318.124476
2677.395494	319.044056
2678.792123	317.440210
2680.188511	316.039860
2681.584656	313.132168
2682.978975	316.129371
2684.374637	314.389161
2685.766889	308.772028
2687.160485	309.190559
2688.552256	303.308392
2689.945369	300.245804
2691.336659	303.618881
2692.726126	300.747552
2694.115354	298.001748
2695.504341	297.177273
2696.894671	291.705594
2698.280016	293.310490
2699.668286	296.224476
2701.054735	293.384266
2702.440945	287.713986
2703.826916	289.108741
2705.209489	289.735664
2706.593404	288.284615
2707.977080	291.755944
2709.360519	291.439161
2710.740562	294.848601
2712.121947	294.225874
2713.501516	288.943357
2714.882427	289.701748
2716.261523	289.070979
2717.638805	284.763287
2719.017428	281.391608
2720.394237	279.447902
2721.770811	275.293007
2723.147149	267.377622
2724.521675	264.386364
2725.897542	261.054196
2727.270022	265.846503
2728.645419	263.475175
2730.015854	259.243357
2731.387631	259.413636
2732.759174	263.531818
2734.128908	259.714336
2735.499982	259.337762
2736.869249	254.513287
2738.238282	250.946853
2739.605508	248.064336
2740.972502	246.943357
2742.339263	246.084615
2743.705791	251.094056
2745.070515	244.657343
2746.435006	242.068531
2747.799265	244.317133
2749.163293	251.479021
2750.527088	252.760839
2751.887510	253.076923
2753.250843	250.465035
2754.609233	255.992657
2755.970533	258.423427
2757.328462	262.588112
2758.689301	257.175524
2760.048339	253.872727
2761.404009	245.445455
2762.762588	242.495455
2764.117799	238.641608
2765.472781	240.074825
2766.825966	237.496154
2768.182058	234.117483
2769.534786	233.029371
2770.887285	234.009441
2772.239557	234.032168
2773.593166	238.761538
2774.943414	235.420979
2776.291869	242.396154
2777.643228	243.630070
2778.991228	242.182168
2780.340567	243.470629
2781.688113	244.018881
2783.035432	241.381119
2784.382525	241.674825
2785.727827	240.781469
2787.072903	236.188462
2788.417753	235.457692
2789.762377	237.685315
2791.103648	234.844056
2792.446258	238.493706
2793.788643	232.357692
2795.130802	228.440210
2796.469612	231.465734
2797.811322	232.538462
2799.149683	230.391608
2800.489382	232.072378
2801.827295	232.209091
2803.163424	229.438811
2804.499330	230.739510
2805.836572	232.930769
2807.172031	232.331469
2808.507267	229.261538
2809.840721	225.744406
2811.175511	225.782867
2812.506960	229.141608
2813.841305	229.582168
2815.170752	229.554895
2816.501536	230.973427
2817.832098	232.881469
2819.160881	231.665734
2820.491001	231.763986
2821.819341	235.164336
2823.147461	236.977273
2824.473804	234.729371
2825.801482	233.661538
2827.125828	235.532168
2828.451510	238.885664
2829.775416	237.194406
2831.099102	239.637762
2832.424124	238.308392
2833.745817	234.828671
2835.067290	233.466084
2836.388545	229.302448
2837.709581	231.364336
2839.028845	226.798951
2840.349444	222.042657
2841.668271	220.546503
2842.986880	226.519231
2844.303719	233.982517
2845.620340	232.725874
2846.936743	235.333566
2848.251378	232.144755
2849.567347	233.275874
2850.879997	234.876224
2852.193981	229.088462
2853.507749	230.214685
2854.821300	218.140559
2856.133084	213.145455
2857.443103	214.630420
2858.754456	216.103147
2860.062493	220.751748
2861.371866	218.737063
2862.681023	217.782517
2863.989965	218.445455
2865.297144	224.715035
2866.602559	226.894056
2867.909309	230.516783
2869.214297	231.994406
2870.519070	228.989860
2871.822083	230.915035
2873.127976	232.955944
2874.429015	236.852448
2875.731387	239.394056
2877.032000	240.322028
2878.333947	243.817133
2879.635681	247.524126
2880.934111	246.325524
2882.233874	244.051049
2883.531880	244.909091
2884.829674	241.968531
2886.125711	237.540210
2887.423082	232.390210
2888.718697	228.997203
2890.014102	230.381818
2891.309295	224.561888
2892.601190	228.445804
2893.895962	230.421329
2895.187438	228.187413
2896.480246	223.225874
2897.772844	223.753147
2899.062147	221.863636
2900.352783	224.115385
2901.641669	221.006993
2902.931886	222.669930
2904.218812	224.521678
2905.507070	227.800000
2906.793579	229.204545
2908.079879	235.010839
2909.365971	233.167133
2910.650315	227.768531
2911.937531	224.662587
2913.219920	221.001399
2914.503641	215.894056
2915.785615	221.497552
2917.067383	218.065734
2918.347405	221.913287
2919.630297	223.324126
2920.911444	226.209790
2922.189309	227.860490
2923.470043	233.002098
2924.747496	229.388462
2926.024744	226.721678
2927.300249	224.806993
2928.578622	221.951399
2929.852181	222.934965
2931.128606	223.305245
2932.403291	217.944755
2933.676236	223.614336
2934.950511	223.903147
2936.223047	225.762238
2937.495379	218.893706
2938.764438	224.614685
2940.036362	221.851049
2941.306548	223.236713
2942.576530	217.223427
2943.846309	218.968182
2945.114351	219.336364
2946.380658	219.089510
2947.646762	218.335664
2948.914197	224.431119
2950.179896	224.219231
2951.445393	221.934965
2952.710689	218.822028
2953.972719	224.439161
2955.236079	221.102797
2956.499238	220.383566
2957.760664	217.651748
2959.023420	222.127273
2960.284445	220.005944
2961.543739	221.365734
2962.802832	215.496503
2964.061725	214.620629
2965.320418	207.139510
2966.578911	207.262937
2967.835675	207.287413
2969.092240	210.334266
2970.347076	211.349301
2971.603242	215.075524
2972.856152	216.649301
2974.110392	218.788112
2975.364433	215.715035
2976.616748	215.845455
2977.868865	211.314336
2979.119257	209.120629
2980.372504	204.502098
2981.620974	204.479021
2982.872298	202.948951
2984.120374	209.111538
2985.368252	211.213287
2986.615933	210.470979
2987.863418	209.798601
2989.109181	210.875874
2990.354747	209.765035
2991.601642	213.291259
2992.845291	213.182867
2994.090269	214.935315
2995.332004	211.516434
2996.576590	206.632168
2997.819457	204.891259
2999.059082	207.428322
3000.301559	203.706643
3001.540795	201.313986
3002.781359	198.720629
3004.020206	198.396503
3005.258859	199.140210
3006.495796	205.622727
3007.734061	208.635664
3008.970610	211.012587
3010.206966	213.727622
3011.443128	217.648951
3012.677576	218.519580
3013.911831	217.882517
3015.145893	209.214336
3016.378243	206.560839
3017.608881	202.396154
3018.842365	201.330769
3020.074138	197.165734
3021.304199	202.409091
3022.534069	202.653846
3023.762229	200.849650
3024.991716	206.493706
3026.219493	204.915035
3027.447079	202.947902
3028.675991	202.948252
3029.900161	199.276224
3031.127174	199.296503
3032.350964	199.634615
3033.576079	199.410140
3034.799488	196.110490
3036.022708	204.216783
3037.244222	201.662937
3038.468577	198.817133
3039.688197	197.495804
3040.909143	201.932168
3042.129899	207.938112
3043.348952	210.446503
3044.569331	208.478671
3045.786493	210.251748
3047.004980	206.928671
3048.221766	207.085315
3049.438363	203.174825
3050.654773	202.053497
3051.867969	193.927273
3053.084003	189.999301
3054.296825	187.354196
3055.512484	194.702448
3056.723420	195.568881
3057.935682	197.483217
3059.147756	199.872378
3060.359644	199.480420
3061.569834	198.209790
3062.779839	199.803497
3063.989657	195.998951
3065.197779	196.084615
3066.405715	196.106993
3067.611957	196.841608
3068.819523	192.441259
3070.025394	195.351049
3071.231080	197.314336
3072.436582	194.601399
3073.640390	191.818531
3074.845522	184.590909
3076.048961	181.893706
3077.250708	183.699301
3078.452272	186.268531
3079.653652	187.674476
3080.854848	192.286713
3082.054354	197.340559
3083.253676	199.291259
3084.454322	206.645455
3085.653279	207.333566
3086.849040	202.106993
3088.047631	202.472727
3089.243028	197.032168
3090.439749	191.122727
3091.633277	190.741608
3092.829633	188.882517
3094.024302	184.785664
3095.215781	182.960839
3096.411591	185.363986
3097.602708	184.998601
3098.795148	188.680769
3099.984399	188.000350
3101.176477	189.737762
3102.366871	194.892308
3103.554078	195.046154
3104.742609	190.848951
3105.932462	191.326573
3107.119130	192.431469
3108.305619	187.926923
3109.491928	183.997902
3110.679560	185.370280
3111.864009	181.786713
3113.046778	179.769231
3114.232371	176.838462
3115.416283	176.552797
3116.598517	174.422028
3117.780573	171.579720
3118.962450	175.608392
3120.144149	179.950000
3121.324171	179.115035
3122.502516	179.808392
3123.683681	185.459091
3124.861671	191.552448
3126.039484	192.627273
3127.217120	194.831119
3128.393081	195.855594
3129.568866	191.303497
3130.745971	185.353147
3131.921403	188.423427
3133.095161	191.815385
3134.267246	189.960140
3135.440652	183.500699
3136.613883	184.084615
3137.785442	182.424126
3138.958321	186.022727
3140.128033	184.887762
3141.299066	186.629371
3142.468428	179.940210
3143.636121	179.166783
3144.806629	179.929021
3145.972478	183.050699
3147.142637	184.041608
3148.308138	188.154895
3149.473466	186.313986
3150.638620	189.211189
3151.803601	187.120280
3152.969901	189.672378
3154.131548	185.347902
3155.294516	181.987762
3156.457311	178.214336
3157.619932	180.750000
3158.780889	179.046853
3159.941674	176.145105
3161.102286	176.208741
3162.261234	179.076573
3163.420010	173.973077
3164.578615	174.092308
3165.737048	169.614336
3166.895309	166.900699
3168.051909	167.334266
3169.206846	170.183566
3170.363104	172.469580
3171.517700	176.210839
3172.672126	176.269930
3173.824891	176.152797
3174.977487	177.501049
3176.129913	180.832168
3177.282168	177.255594
3178.434254	177.334266
3179.583193	172.686364
3180.734939	171.047552
3181.885028	174.962238
3183.033459	177.823427
3184.181722	181.522727
3185.329816	182.604545
3186.477741	181.699301
3187.624010	184.911189
3188.770111	185.694406
3189.914558	189.626573
3191.058836	188.473427
3192.202947	188.538462
3193.348376	183.118881
3194.490666	175.534615
3195.632788	177.496853
3196.774744	176.889510
3197.916532	177.264685
3199.058153	173.231119
3200.196638	173.580420
3201.336442	176.039510
3202.477562	176.413287
3203.615548	178.456643
3204.751885	178.142308
3205.888056	181.840559
3207.025545	177.472028
3208.161385	175.989860
3209.298542	178.077273
3210.431086	177.166434
3211.567911	177.626923
3212.700125	175.990909
3213.833657	175.894755
3214.967023	176.541608
3216.097262	179.325874
3217.230300	179.424126
3218.360210	179.505594
3219.491438	178.457343
3220.619540	174.685664
3221.750440	177.467483
3222.879695	173.910490
3224.007307	174.222727
3225.131796	171.090210
3226.260561	171.191259
3227.386204	168.317133
3228.511684	167.443706
3229.635523	167.931469
3230.762157	164.940909
3231.884192	161.654545
3233.007544	161.861189
3234.130734	156.996154
3235.253762	157.729021
3236.375150	154.074126
3237.496377	155.211888
3238.615965	155.677273
3239.735392	159.276573
3240.853182	156.267832
3241.973763	160.019231
3243.091231	164.648601
3244.208538	171.282867
3245.325684	175.142657
3246.441195	178.244056
3247.558021	176.046853
3248.671736	176.977972
3249.788242	173.549301
3250.903112	172.441958
3252.014874	168.098601
3253.126477	164.067133
3254.239395	155.496853
3255.352153	155.190559
3256.461805	156.673077
3257.572772	162.597203
3258.683580	165.464336
3259.792756	169.736364
3260.900301	171.126923
3262.009161	173.648951
3263.117862	178.797902
3264.223461	181.417483
3265.330375	178.579720
3266.435659	170.838811
3267.542257	165.111888
3268.645755	164.107692
3269.750567	158.473077
3270.855222	157.584615
3271.956779	156.354196
3273.058179	155.215385
3274.160893	154.320629
3275.263450	155.502448
3276.362912	159.872378
3277.465156	159.816783
3278.564306	161.181469
3279.661830	158.658741
3280.759200	160.534615
3281.859351	159.288112
3282.956409	155.496853
3284.053313	158.332867
3285.150061	155.615035
3286.242250	158.458392
3287.338689	159.590210
3288.433505	159.960140
3289.528166	161.915385
3290.621206	167.027972
3291.714092	169.765734
3292.805357	167.266084
3293.897935	166.877622
3294.988893	168.516434
3296.078231	168.858392
3297.167416	166.288112
3298.257913	158.005944
3299.345326	156.324825
3300.432587	152.822028
3301.521160	151.933566
3302.609580	150.405594
3303.693453	151.939860
3304.781568	149.201748
3305.866602	149.979720
3306.950020	152.040210
3308.034750	153.113986
3309.117864	153.387063
3310.202290	150.832517
3311.283638	149.920979
3312.366298	148.637063
3313.447344	151.098951
3314.528239	153.056993
3315.607521	155.616084
3316.686652	155.349650
3317.767095	154.738462
3318.844463	154.777622
3319.923143	150.877622
3321.000211	149.577972
3322.077129	151.826573
3323.152437	152.302448
3324.227595	154.085664
3325.304064	150.095804
3326.377462	148.405944
3327.450712	150.625874
3328.525273	153.051399
3329.598224	154.196154
3330.669568	151.145105
3331.742222	148.631469
3332.811809	147.312937
3333.882707	147.601049
3334.951998	150.195105
3336.022600	149.741259
3337.091595	149.332867
3338.158985	146.591608
3339.224768	147.769231
3340.294778	152.581818
3341.361725	156.454895
3342.425610	159.355594
3343.492263	160.766434
3344.557312	164.118182
3345.620757	166.105594
3346.684055	163.088811
3347.747208	161.651049
3348.810214	161.076573
3349.873073	158.351049
3350.934331	157.413287
3351.992532	153.994755
3353.054954	151.567483
3354.114319	149.818531
3355.173540	150.587413
3356.234069	150.648252
3357.290089	153.573077
3358.348874	149.113986
3359.403151	148.164336
3360.460192	147.474476
3361.515634	150.378671
3362.572385	151.648252
3363.627539	156.707343
3364.681095	162.360490
3365.733054	164.239860
3366.787776	166.502098
3367.839448	163.481818
3368.890976	162.133916
3369.943814	160.921329
3370.993604	154.027273
3372.044703	150.663636
3373.092755	149.211888
3374.143568	149.601049
3375.191335	150.451748
3376.238960	151.296503
3377.286443	156.207343
3378.332332	157.644056
3379.379531	158.229720
3380.423686	159.184965
3381.470600	161.980420
3382.515923	159.508042
3383.558204	158.387413
3384.600344	155.562937
3385.643793	157.779720
3386.687100	157.290559
3387.728817	153.906294
3388.770394	150.670979
3389.811829	149.903846
3390.851676	149.702098
3391.889934	147.511538
3392.929500	149.941958
3393.968926	145.806993
3395.006764	146.749650
3396.043015	148.090559
3397.079126	151.652448
3398.116545	154.823776
3399.150931	158.245804
3400.186625	155.100699
3401.222179	157.670979
3402.254701	156.163986
3403.289977	155.624126
3404.322222	151.839161
3405.354329	151.081469
3406.384853	149.112937
3407.416683	149.894056
3408.448375	149.898951
3409.477039	150.237063
3410.505566	147.932867
3411.535399	149.265734
3412.565095	147.502797
3413.591765	150.282867
3414.619741	147.962937
3415.644693	145.834266
3416.672396	144.946853
3417.697074	144.992308
3418.723059	146.290559
3419.747465	143.586364
3420.771733	147.228671
3421.794424	146.788462
3422.816978	145.879720
3423.840838	146.607692
3424.861678	146.471329
3425.882382	145.162787
3426.904392	144.371978
3427.923384	144.589461
3428.942241	146.305794
3429.962404	150.011538
3430.979549	156.197253
