-118.277064	1.326923
-115.607463	-8.483516
-112.940798	-12.579920
-110.274885	-12.313686
-107.611905	-9.036214
-104.947494	-4.098901
-102.286014	1.146853
-99.623105	4.909091
-96.965303	-8.076923
-94.306070	-7.517483
-91.647586	-7.797203
-88.992027	-5.776224
-86.335039	-5.839161
-83.683148	-3.489510
-81.029828	-2.300699
-78.379427	-0.832168
-75.727598	6.776224
-73.080859	-0.622378
-70.432690	5.699301
-67.785265	-1.517483
-65.140753	-15.601399
-62.494812	-16.237762
-59.853954	-13.916084
-57.211665	-10.916084
-54.572286	-6.447552
-51.931478	-2.566434
-49.291409	1.930070
-46.656414	0.958042
-44.019989	10.867133
-41.386468	5.349650
-38.751517	17.853147
-36.121633	18.706294
-33.488155	18.419580
-30.859740	13.601399
-28.232059	8.384615
-25.602950	3.776224
-22.978897	-32.937063
-20.351254	-185.622378
-17.728666	-416.930070
-15.106808	-277.832168
-12.485681	670.202797
-9.865285	2008.993007
-7.247776	3100.202797
-4.628839	3830.034965
-2.012788	4198.209790
0.602536	4207.524476
3.217131	3860.776224
5.828845	3168.188811
8.441986	2154.265734
11.050095	908.608392
13.661784	-201.692308
16.268443	-654.006993
18.876530	-392.342657
21.483893	-71.559441
24.086231	-16.811189
26.692147	-4.867133
29.293042	2.258741
31.895364	12.447552
34.492668	24.447552
37.093548	22.958042
39.689414	25.468531
42.286707	16.209790
44.883281	13.216783
47.474846	-0.076923
50.067839	-0.293706
52.657972	0.993007
55.249531	-3.657343
57.838231	-3.391608
60.428359	-9.881119
63.013487	3.139860
65.600043	8.776224
68.185884	7.762238
70.768872	11.496503
73.353287	2.006993
75.930572	-6.440559
78.511424	-13.699301
81.089427	-7.804196
83.666720	-8.384615
86.245440	-5.139860
88.819177	-2.867133
91.394341	-6.636364
93.966662	9.510490
96.538276	11.279720
99.107049	12.251748
101.677249	13.300699
104.244610	7.461538
106.813398	0.132867
109.379349	-0.937063
111.942464	16.286713
114.509137	18.272727
117.066587	28.097902
119.629723	33.986014
122.187900	41.951049
124.749631	70.132867
127.306405	102.685315
129.864605	144.013986
132.417853	201.258741
134.970402	264.804196
137.526503	333.482517
140.077655	425.342657
142.628110	525.909091
145.177867	601.552448
147.724805	668.454545
150.271048	716.202797
152.818716	735.454545
155.365688	742.902098
157.907724	737.433566
160.449068	722.223776
162.989718	696.671329
165.531793	681.902098
168.071058	665.629371
170.607513	675.006993
173.143278	675.055944
175.680468	674.608392
178.216967	685.321678
180.750660	694.006993
183.281549	700.664336
185.811750	700.244755
188.343376	708.349650
190.872202	709.307692
193.398228	709.139860
195.923568	721.580420
198.450333	715.867133
200.974302	717.860140
203.497585	704.195804
206.020184	697.650350
208.539990	682.272727
211.059113	670.993007
213.577553	670.202797
216.097418	671.580420
218.610280	667.972028
221.126674	664.468531
223.642387	675.244755
226.153209	681.538462
228.665456	684.811189
231.174920	695.188811
233.683706	703.202797
236.191814	711.720280
238.701346	703.377622
241.205997	700.083916
243.709972	698.447552
246.215371	706.825175
248.715895	696.398601
251.219942	705.384615
253.717019	713.923077
256.217618	727.251748
258.715446	728.048951
261.212601	734.706294
263.709084	738.559441
266.200703	734.293706
268.695841	724.629371
271.188214	707.965035
273.679916	721.517483
276.168855	739.510490
278.659217	755.279720
281.146818	770.097902
283.631659	780.713287
286.120014	801.160839
288.601431	801.363636
291.086361	804.951049
293.566445	811.244755
296.050042	806.769231
298.528797	806.286713
301.008974	804.356643
303.486400	810.475524
305.963162	814.727273
308.439260	845.986014
310.912610	883.090909
313.385299	920.881119
315.857326	963.902098
318.328691	999.412587
320.797313	1014.748252
323.265275	1028.000000
325.734660	1029.965035
328.199222	1001.594406
330.667287	956.755245
333.130533	917.797203
335.593122	889.755245
338.055053	878.342657
340.516328	864.664336
342.974869	855.706294
345.434832	857.944056
347.892063	862.314685
350.348639	863.895105
352.804560	879.874126
355.257753	885.307692
357.712368	885.377622
360.162181	887.559441
362.615490	904.405594
365.064000	898.909091
367.511860	888.104895
369.961141	871.314685
372.405629	861.321678
374.851539	838.566434
377.296800	834.118881
379.739342	826.916084
382.181236	827.748252
384.622482	820.083916
387.061013	832.818182
389.500966	839.335664
391.938205	843.664336
394.372732	836.951049
396.810747	831.636364
399.243985	824.104895
401.678645	825.629371
404.108532	810.636364
406.541904	824.090909
408.970506	828.769231
411.398466	843.657343
413.827847	845.699301
416.252464	847.104895
418.678501	854.342657
421.103899	865.993007
423.528656	866.489510
425.948654	866.433566
428.370074	866.167832
430.788797	869.650350
433.208941	857.384615
435.626390	856.125874
438.045259	854.958042
440.461435	854.650350
442.872864	852.580420
445.287769	856.132867
447.699984	876.258741
450.111565	886.741259
452.522513	883.615385
454.930773	878.475524
457.338402	875.097902
459.745398	859.839161
462.151762	835.209790
464.555445	811.671329
466.958497	800.909091
469.360919	792.748252
471.762711	800.013986
474.161825	796.314685
476.562359	793.720280
478.962264	798.293706
481.357447	813.587413
483.756095	822.986014
486.150024	831.034965
488.543327	837.111888
490.936004	819.727273
493.328056	797.118881
495.721527	763.111888
498.110285	726.412587
500.496377	696.601399
502.883889	659.692308
505.270777	623.356643
507.655002	608.545455
510.040646	601.209790
512.423627	589.209790
514.803948	581.041958
517.185688	575.699301
519.564770	546.496503
521.945269	525.881119
524.323111	512.216783
526.698298	506.251748
529.072867	506.832168
531.448855	505.279720
533.822189	497.888112
536.196942	505.944056
538.567008	507.972028
540.936459	485.363636
543.307329	477.888112
545.673517	463.811189
548.041124	443.328671
550.406085	434.692308
552.770434	438.041958
555.134169	428.475524
557.499322	430.552448
559.859803	434.692308
562.221701	433.685315
564.580960	444.055944
566.937580	439.545455
569.297646	439.979021
571.651020	455.328671
574.007839	452.706294
576.362023	442.559441
578.715598	441.230769
581.068565	439.580420
583.418901	432.216783
585.770654	431.342657
588.115729	431.874126
590.466269	428.664336
592.810136	434.503497
595.159464	432.937063
597.504143	432.951049
599.846198	439.083916
602.189670	429.636364
604.530519	426.440559
606.870765	431.811189
609.208391	426.937063
611.549452	423.034965
613.885876	423.335664
616.223716	423.146853
618.558938	412.545455
620.891545	407.363636
623.225569	402.629371
625.556978	385.363636
627.887789	384.846154
630.218002	372.020979
632.547618	364.972028
634.872610	366.587413
637.203044	362.979021
639.528856	366.846154
641.852062	371.580420
644.176684	364.244755
646.498700	364.195804
648.820122	363.846154
651.138941	361.965035
653.459176	345.307692
655.778818	345.531469
658.095859	337.475524
660.412309	330.601399
662.726160	331.706294
665.041426	336.363636
667.354096	338.678322
669.668181	338.839161
671.977667	332.692308
674.288567	334.489510
676.596875	318.825175
678.904595	317.412587
681.213730	318.307692
683.518272	329.804196
685.822228	335.328671
688.125597	337.867133
690.430381	337.251748
692.730579	346.489510
695.032192	346.867133
697.333219	334.160839
699.629665	317.629371
701.927525	302.825175
704.224803	293.104895
706.521496	293.517483
708.813614	293.951049
711.109143	297.489510
713.400099	307.888112
715.692469	315.797203
717.982263	325.636364
720.271478	338.293706
722.560113	339.524476
724.846175	326.916084
727.133651	326.860140
729.418557	329.587413
731.702884	327.811189
733.984644	326.377622
736.267817	327.265734
738.550413	330.496503
740.828453	340.783217
743.107907	343.440559
745.386786	344.895105
747.665090	344.069930
749.938843	341.258741
752.214011	335.846154
754.488605	342.993007
756.760640	340.377622
759.034088	333.188811
761.304978	337.587413
763.573312	339.888112
765.843059	341.300699
768.110251	350.181818
770.376873	345.160839
772.642926	344.111888
774.906427	350.090909
777.171340	354.363636
779.435685	358.370629
781.695499	363.321678
783.956727	363.000000
786.217387	367.349650
788.475500	367.174825
790.731070	368.720280
792.990029	368.538462
795.242490	369.944056
797.500318	366.349650
799.753627	355.727273
802.004395	349.440559
804.256576	344.188811
806.506219	334.797203
808.757273	317.223776
811.003816	305.391608
813.251772	299.923077
815.497192	294.167832
817.744025	290.069930
819.990295	296.153846
822.232062	304.664336
824.477211	318.678322
826.715888	323.237762
828.957948	323.209790
831.195509	324.622378
833.434481	328.916084
835.670928	313.671329
837.908785	312.916084
840.144117	314.804196
842.376925	316.965035
844.611145	315.545455
846.842843	331.797203
849.073986	332.958042
851.304574	325.972028
853.534608	320.489510
855.764087	302.300699
857.989086	299.230769
860.217458	294.111888
862.441352	261.776224
864.666656	262.692308
866.887485	262.405594
869.111687	271.853147
871.331415	283.874126
873.552553	302.020979
875.773141	306.083916
877.991220	309.608392
880.210708	323.153846
882.425730	326.237762
884.640204	342.258741
886.854131	344.069930
889.067510	326.608392
891.280343	337.797203
893.492628	346.118881
895.702412	346.797203
897.911650	342.643357
900.120342	340.972028
902.326536	336.419580
904.534139	323.370629
906.739245	311.867133
908.943807	306.573427
911.145874	307.818182
913.349350	314.062937
915.550332	305.363636
917.750772	323.055944
919.952621	336.419580
922.148079	336.580420
924.346895	325.916084
926.541274	329.804196
928.739010	330.272727
930.932310	312.027972
933.127018	319.006993
935.319241	325.685315
937.510926	333.048951
939.702073	325.020979
941.890737	323.426573
944.078864	313.769231
946.264511	315.734266
948.453511	315.300699
950.638086	289.377622
952.822127	294.447552
955.009518	299.265734
957.188606	321.888112
959.371044	347.000000
961.552947	359.202797
963.732377	358.097902
965.909334	366.818182
968.087699	385.482517
970.267470	373.174825
972.440893	392.000000
974.617663	394.923077
976.790025	375.685315
978.963795	405.790210
981.133161	429.489510
983.305871	459.888112
985.476115	449.055944
987.645831	436.811189
989.815018	411.748252
991.979808	438.874126
994.147940	446.538462
996.311676	442.111888
998.476820	467.965035
1000.639504	468.489510
1002.801663	467.524476
1004.961364	485.293706
1007.120542	503.650350
1009.281126	513.783217
1011.439255	497.489510
1013.596860	511.062937
1015.753942	513.349650
1017.910501	519.258741
1020.062680	508.377622
1022.216266	493.356643
1024.369330	519.454545
1026.519945	506.251748
1028.671966	448.853147
1030.819615	458.244755
1032.970594	470.055944
1035.117204	470.510490
1037.263294	490.902098
1039.408866	514.209790
1041.555842	536.601399
1043.696531	539.468531
1045.840548	548.440559
1047.982126	554.720280
1050.123186	568.762238
1052.265651	537.818182
1054.401837	539.545455
1056.541349	577.000000
1058.676505	573.405594
1060.814986	568.153846
1062.949114	581.335664
1065.082728	571.685315
1067.217746	606.944056
1069.348415	610.622378
1071.480490	599.335664
1073.610134	590.167832
1075.739267	593.083916
1077.867889	564.496503
1079.995999	568.118881
1082.121683	539.937063
1084.246857	499.867133
1086.373434	485.720280
1088.495675	471.930070
1090.619320	458.104895
1092.738630	476.699301
1094.863169	460.384615
1096.981464	463.930070
1099.101162	467.699301
1101.218442	477.755245
1103.335216	424.167832
1105.451483	413.118881
1107.565335	403.405594
1109.680590	372.706294
1111.791523	391.832168
1113.905768	380.601399
1116.015692	405.846154
1118.127019	415.097902
1120.237843	399.000000
1122.344350	415.377622
1124.454166	409.692308
1126.559668	414.027972
1128.666574	389.902098
1130.767264	412.874126
1132.873165	420.888112
1134.974758	404.153846
1137.077754	415.216783
1139.180249	413.825175
1141.276538	430.300699
1143.378033	413.916084
1145.475226	415.433566
1147.571920	426.076923
1149.668117	418.153846
1151.763815	419.006993
1153.859016	415.888112
1155.951820	430.209790
1158.046026	415.160839
1160.134041	375.104895
1162.227254	363.069930
1164.314279	342.531469
1166.404604	339.769231
1168.490640	336.489510
1170.579974	346.958042
1172.663127	356.713287
1174.747683	371.111888
1176.833639	395.398601
1178.915315	397.573427
1180.998391	403.727273
1183.079082	396.006993
1185.159282	392.580420
1187.238990	393.923077
1189.318207	387.139860
1191.395041	389.314685
1193.469495	382.888112
1195.547241	383.552448
1197.620716	375.818182
1199.695593	376.692308
1201.766202	376.804196
1203.838212	367.412587
1205.907846	376.860140
1207.978881	377.573427
1210.049428	383.237762
1212.115715	379.867133
1214.183401	381.748252
1216.248716	379.237762
1218.315431	369.916084
1220.377890	368.090909
1222.443635	363.090909
1224.505125	353.629371
1226.568015	360.846154
1228.628538	365.181818
1230.688578	372.734266
1232.748134	368.055944
1234.805326	364.776224
1236.862035	349.713287
1238.916382	353.041958
1240.974009	353.923077
1243.029274	349.517483
1245.080298	353.188811
1247.132723	358.741259
1249.184667	353.440559
1251.234253	366.916084
1253.283360	363.118881
1255.331988	357.888112
1257.380138	369.776224
1259.427810	369.622378
1261.471251	360.167832
1263.517967	375.076923
1265.562331	382.650350
1267.606217	401.720280
1269.647753	402.062937
1271.686939	414.580420
1273.729397	423.349650
1275.767634	417.125874
1277.807268	394.482517
1279.846428	389.615385
1281.881370	390.713287
1283.917710	379.104895
1285.951705	381.314685
1287.987099	390.986014
1290.018279	391.097902
1292.050858	399.118881
1294.082964	396.986014
1296.112730	414.713287
1298.143894	416.671329
1300.170850	430.048951
1302.199204	422.860140
1304.223354	435.027972
1306.250769	439.146853
1308.273981	435.923077
1310.298591	456.916084
1312.320866	469.251748
1314.344539	473.111888
1316.365879	482.664336
1318.386752	510.048951
1320.407157	526.706294
1322.423369	535.076923
1324.440978	562.426573
1326.456259	570.930070
1328.474799	592.531469
1330.489149	599.923077
1332.501174	599.258741
1334.516457	621.587413
1336.527554	642.748252
1338.540047	641.482517
1340.548358	659.216783
1342.559925	660.545455
1344.565453	657.545455
1346.574235	652.300699
1348.578841	650.475524
1350.586700	643.251748
1352.594097	637.741259
1354.595462	618.685315
1356.598225	598.461538
1358.600528	576.503497
1360.602370	542.804196
1362.603754	508.811189
1364.602823	488.580420
1366.601434	445.195804
1368.599587	431.139860
1370.597282	425.370629
1372.590813	412.622378
1374.585741	410.475524
1376.580212	413.902098
1378.574226	418.426573
1380.565933	421.027972
1382.557184	406.475524
1384.546130	393.552448
1386.536471	394.216783
1388.526357	380.965035
1390.513940	365.699301
1392.501069	383.867133
1394.485896	405.594406
1396.472118	403.937063
1398.456039	414.629371
1400.439508	417.412587
1402.422525	430.104895
1404.403244	428.419580
1406.385357	417.832168
1408.365173	415.286713
1410.344539	405.356643
1412.319766	385.076923
1414.298231	370.468531
1416.274403	365.223776
1418.250125	365.209790
1420.225398	354.958042
1422.198381	346.951049
1424.170915	345.076923
1426.143001	341.944056
1428.114639	337.398601
1430.082150	337.608392
1432.054734	346.944056
1434.019512	350.790210
1435.989363	351.797203
1437.955089	356.167832
1439.922209	357.223776
1441.887045	379.181818
1443.847761	374.146853
1445.813545	373.104895
1447.773374	368.902098
1449.734596	364.419580
1451.697211	354.461538
1453.655711	360.293706
1455.613769	368.398601
1457.571384	380.006993
1459.528558	378.461538
1461.483456	381.545455
1463.439746	394.580420
1465.393762	397.615385
1467.347338	391.972028
1469.298641	393.867133
1471.251336	377.139860
1473.201760	375.832168
1475.151745	374.419580
1477.101291	380.916084
1479.048567	372.881119
1480.993577	379.839161
1482.939979	366.608392
1484.885943	374.293706
1486.831470	375.062937
1488.774731	362.006993
1490.717556	355.391608
1492.658118	341.979021
1494.600072	335.321678
1496.539763	344.356643
1498.479019	353.062937
1500.417841	349.573427
1502.354403	360.762238
1504.292355	370.531469
1506.228050	368.664336
1508.163311	383.839161
1510.096315	358.335664
1512.028887	348.069930
1513.961027	351.867133
1515.892735	358.111888
1517.822190	374.461538
1519.753034	375.734266
1521.683448	381.209790
1523.609789	388.734266
1525.537520	406.706294
1527.463001	405.118881
1529.388053	398.629371
1531.312676	409.692308
1533.236870	405.594406
1535.158817	441.811189
1537.082153	463.167832
1539.003244	464.951049
1540.922090	463.636364
1542.842326	448.279720
1544.760318	446.818182
1546.677884	446.741259
1548.593209	445.097902
1550.509922	424.643357
1552.422581	438.104895
1554.338444	466.412587
1556.252068	497.069930
1558.163453	530.237762
1560.076227	531.055944
1561.984953	532.426573
1563.895067	536.545455
1565.804758	533.951049
1567.714026	531.286713
1569.621059	548.146853
1571.525860	542.909091
1573.432050	551.125874
1575.336009	581.433566
1577.239546	576.524476
1579.142662	561.888112
1581.043550	550.433566
1582.945826	542.209790
1584.845873	540.846154
1586.747309	533.468531
1588.644710	530.167832
1590.541694	503.496503
1592.438259	506.062937
1594.336211	480.713287
1596.228329	498.405594
1598.123641	493.076923
1600.018534	478.258741
1601.911207	471.629371
1603.803462	480.853147
1605.693498	489.167832
1607.583118	489.230769
1609.472323	477.902098
1611.361112	483.433566
1613.247685	475.524476
1615.135645	461.587413
1617.019588	457.671329
1618.904918	467.041958
1620.789835	461.062937
1622.672538	446.370629
1624.556628	435.384615
1626.436706	419.223776
1628.318171	386.314685
1630.197426	363.188811
1632.078067	335.426573
1633.952905	340.048951
1635.832723	341.965035
1637.708536	316.083916
1639.583940	340.755245
1641.460729	350.986014
1643.331721	342.279720
1645.205896	322.223776
1647.076071	304.958042
1648.949427	308.664336
1650.820580	296.104895
1652.689531	288.027972
1654.559868	283.615385
1656.426211	280.860140
1658.293941	278.244755
1660.159471	276.258741
1662.026386	304.489510
1663.889313	317.706294
1665.753625	316.097902
1667.615742	328.048951
1669.477453	342.118881
1671.340549	374.377622
1673.201451	376.867133
1675.060159	354.755245
1676.918465	337.076923
1678.778154	307.888112
1680.632077	285.650350
1682.489173	263.398601
1684.345865	250.216783
1686.198582	229.062937
1688.054470	254.482517
1689.906384	292.174825
1691.757897	304.965035
1693.609009	335.895105
1695.459720	346.230769
1697.310031	363.580420
1699.158158	343.174825
1701.007668	324.867133
1702.851430	305.664336
1704.700142	297.727273
1706.543107	281.258741
1708.389238	258.538462
1710.231408	260.629371
1712.076742	271.650350
1713.916336	255.118881
1715.757314	290.230769
1717.599676	326.762238
1719.438080	349.202797
1721.277868	314.314685
1723.115481	287.370629
1724.952698	264.153846
1726.787742	260.153846
1728.624169	233.188811
1730.458424	208.839161
1732.292285	181.923077
1734.125751	178.867133
1735.955271	159.433566
1737.787950	192.503497
1739.616685	232.657343
1741.448578	233.839161
1743.276528	264.580420
1745.104086	279.433566
1746.931253	300.118881
1748.758028	322.986014
1750.584411	332.111888
1752.406858	352.895105
1754.232459	337.398601
1756.054126	316.440559
1757.877175	290.531469
1759.698063	255.342657
1761.518561	242.594406
1763.340441	235.545455
1765.156621	251.209790
1766.975953	264.664336
1768.791358	269.643357
1770.609914	270.363636
1772.424544	288.517483
1774.238787	316.643357
1776.052644	317.930070
1777.866114	317.951049
1779.677430	291.769231
1781.490128	271.286713
1783.302439	286.041958
1785.110833	306.510490
1786.920608	322.244755
1788.726467	331.104895
1790.535473	336.307692
1792.340565	321.559441
1794.147037	310.881119
1795.953126	303.419580
1797.755305	298.524476
1799.560627	292.167832
1801.362041	285.391608
1803.164835	267.167832
1804.963724	264.727273
1806.763992	256.139860
1808.563880	265.139860
1810.361625	251.391608
1812.158990	253.006993
1813.955974	246.622378
1815.752578	241.167832
1817.547043	257.223776
1819.342888	300.503497
1821.133077	298.000000
1822.928163	301.874126
1824.717596	282.811189
1826.510167	285.524476
1828.300602	273.426573
1830.088902	260.727273
1831.880338	234.139860
1833.666129	244.678322
1835.453298	253.587413
1837.238337	245.601399
1839.026508	275.174825
1840.810794	296.636364
1842.592951	294.181818
1844.376487	306.384615
1846.157894	307.391608
1847.940679	303.125874
1849.719585	315.097902
1851.499869	265.839161
1853.278028	262.895105
1855.057564	259.475524
1856.834976	246.524476
1858.610264	238.265734
1860.386931	264.398601
1862.161475	268.125874
1863.937396	289.006993
1865.707698	291.741259
1867.481127	278.433566
1869.252436	287.069930
1871.023374	303.048951
1872.795689	282.181818
1874.562392	286.986014
1876.332219	254.027972
1878.098183	266.426573
1879.867271	264.258741
1881.632497	264.874126
1883.397355	264.531469
1885.163589	259.048951
1886.925965	266.517483
1888.687974	256.909091
1890.449616	264.524476
1892.210890	284.636364
1893.971798	302.622378
1895.732338	305.636364
1897.490770	291.349650
1899.248835	300.419580
1901.004793	265.202797
1902.762127	245.776224
1904.519095	230.664336
1906.273958	205.860140
1908.026715	213.104895
1909.779109	206.594406
1911.532879	208.510490
1913.284545	238.755245
1915.034108	253.531469
1916.785048	261.713287
1918.535624	256.398601
1920.282362	256.930070
1922.030475	234.391608
1923.776489	236.174825
1925.523879	229.090909
1927.269170	213.538462
1929.012364	200.615385
1930.756934	185.055944
1932.499407	186.475524
1934.241520	189.209790
1935.983274	207.954545
1937.724667	245.419580
1939.463967	268.947552
1941.202908	304.846154
1942.941490	315.108392
1944.677980	342.741259
1946.414113	336.667832
1948.151620	323.678322
1949.885306	296.842657
1951.620366	276.853147
1953.353337	260.611888
1955.085952	248.545455
1956.818210	243.136364
1958.550112	243.664336
1960.279928	228.615385
1962.007660	247.174825
1963.736766	241.804196
1965.465516	254.713287
1967.192183	262.279720
1968.918496	279.713287
1970.646182	291.265734
1972.368333	299.951049
1974.093584	292.902098
1975.815028	287.055944
1977.539572	266.062937
1979.262037	255.342657
1980.980698	246.307692
1982.702458	247.531469
1984.420416	244.790210
1986.139748	253.062937
1987.855279	258.006993
1989.575632	270.454545
1991.292186	288.377622
1993.004943	284.895105
1994.720796	270.272727
1996.434577	258.146853
1998.148008	260.356643
1999.859367	255.762238
2001.572100	264.832168
2003.281041	275.132867
2004.993076	278.510490
2006.699601	285.545455
2008.409219	297.356643
2010.116769	324.188811
2011.823972	336.594406
2013.529109	336.153846
2015.233899	328.398601
2016.940061	313.755245
2018.642441	305.384615
2020.346193	292.699301
2022.047882	283.804196
2023.749225	281.762238
2025.450223	270.370629
2027.149161	274.391608
2028.849470	273.867133
2030.546003	274.202797
2032.243908	275.755245
2033.939755	305.601399
2035.638687	309.454545
2037.332133	304.258741
2039.026950	308.916084
2040.721424	310.328671
2042.412130	310.881119
2044.105920	313.860140
2045.795943	310.146853
2047.487337	301.076923
2049.176678	289.321678
2050.867389	284.363636
2052.554338	287.097902
2054.240946	299.888112
2055.928925	289.965035
2057.613144	292.216783
2059.298733	289.874126
2060.983983	281.132867
2062.667185	280.783217
2064.351757	272.489510
2066.030865	270.139860
2067.714759	262.825175
2069.393193	249.580420
2071.074704	241.020979
2072.752463	243.454545
2074.429886	246.125874
2076.108678	262.468531
2077.785427	278.020979
2079.460135	272.965035
2081.136212	284.258741
2082.810249	286.706294
2084.483950	299.748252
2086.157316	308.209790
2087.828644	306.734266
2089.499637	296.013986
2091.170296	300.818182
2092.840621	307.790210
2094.510611	325.958042
2096.178566	346.454545
2097.846188	335.797203
2099.511776	313.510490
2101.178732	309.566434
2102.843655	291.027972
2104.508245	283.118881
2106.170804	277.643357
2107.834732	260.517483
2109.496628	257.489510
2111.158193	272.167832
2112.819428	287.888112
2114.478633	307.727273
2116.137509	312.230769
2117.796054	297.412587
2119.454270	289.839161
2121.108763	298.125874
2122.766320	273.874126
2124.423547	260.741259
2126.077054	266.580420
2127.731928	245.349650
2129.383083	240.055944
2131.037301	238.741259
2132.687801	231.125874
2134.339669	217.251748
2135.986128	224.202797
2137.637341	232.524476
2139.284842	258.272727
2140.933709	285.818182
2142.580557	294.671329
2144.227080	319.293706
2145.873277	335.174825
2147.515765	313.209790
2149.161312	306.664336
2150.803152	283.314685
2152.448049	263.482517
2154.089241	253.790210
2155.730109	258.636364
2157.370654	250.902098
2159.009186	251.587413
2160.649084	265.559441
2162.285282	281.776224
2163.922846	285.349650
2165.560088	293.237762
2167.195320	287.545455
2168.830230	294.818182
2170.464819	291.979021
2172.099087	302.013986
2173.729661	300.629371
2175.363286	280.678322
2176.993220	264.454545
2178.624520	254.265734
2180.253814	258.643357
2181.882789	265.265734
2183.511444	275.433566
2185.139780	283.671329
2186.766113	279.076923
2188.392128	291.258741
2190.016142	299.000000
2191.641521	293.776224
2193.264899	279.265734
2194.889642	265.930070
2196.510703	254.405594
2198.131449	251.762238
2199.753558	257.496503
2201.373670	275.293706
2202.991786	277.867133
2204.609586	273.601399
2206.227070	285.076923
2207.844239	295.944056
2209.461093	297.167832
2211.077632	307.335664
2212.692177	321.615385
2214.304731	319.979021
2215.918648	302.174825
2217.530573	300.440559
2219.143863	292.426573
2220.755161	275.412587
2222.364471	256.398601
2223.975143	255.566434
2225.583827	257.944056
2227.192199	250.328671
2228.798583	262.244755
2230.406331	268.867133
2232.012092	267.104895
2233.617543	246.909091
2235.221008	218.097902
2236.825836	216.909091
2238.428680	231.405594
2240.029541	230.181818
2241.631765	240.426573
2243.232007	252.867133
2244.833611	251.636364
2246.431562	268.811189
2248.030876	313.727273
2249.628210	307.293706
2251.225236	322.377622
2252.823623	314.580420
2254.418362	306.671329
2256.011125	315.818182
2257.605249	328.447552
2259.200736	306.223776
2260.792577	300.461538
2262.384112	267.181818
2263.977008	262.384615
2265.564595	278.804196
2267.156879	302.804196
2268.743855	286.153846
2270.333860	290.615385
2271.918560	281.447552
2273.507954	279.923077
2275.092045	284.468531
2276.677498	285.629371
2278.260982	275.118881
2279.847491	272.769231
2281.430367	261.790210
2283.012939	276.982517
2284.595209	278.797203
2286.173848	285.744755
2287.755512	286.608392
2289.333547	280.185315
2290.914605	272.888112
2292.492036	278.688811
2294.067504	263.195804
2295.645994	239.241259
2297.220859	226.671329
2298.795425	219.094406
2300.369689	216.489510
2301.943653	238.486014
2303.517317	241.342657
2305.090680	253.517483
2306.660425	261.139860
2308.229871	253.657343
2309.802336	250.111888
2311.369526	251.902098
2312.939733	240.377622
2314.506327	238.272727
2316.074279	237.006993
2317.640277	240.888112
2319.205977	262.902098
2320.771379	288.797203
2322.334828	285.265734
2323.899636	299.965035
2325.460835	317.356643
2327.025049	326.111888
2328.584002	355.545455
2330.145968	356.132867
2331.705984	361.636364
2333.265704	330.167832
2334.823475	285.349650
2336.380952	247.454545
2337.938133	230.363636
2339.493368	205.027972
2341.048308	187.748252
2342.602955	205.237762
2344.157308	232.419580
2345.711367	259.979021
2347.265133	289.986014
2348.816954	295.251748
2350.366832	315.461538
2351.919718	303.279720
2353.467362	294.944056
2355.018013	283.454545
2356.565074	270.020979
2358.113492	255.146853
2359.661618	233.727273
2361.206157	229.797203
2362.752053	219.811189
2364.296010	208.678322
2365.841325	175.503497
2367.383055	180.958042
2368.926143	196.272727
2370.467294	187.874126
2372.008156	205.587413
2373.548729	219.902098
2375.089013	222.398601
2376.629008	246.118881
2378.165424	267.664336
2379.704842	296.230769
2381.240683	299.552448
2382.777880	291.979021
2384.311503	270.888112
2385.848125	283.069930
2387.382817	271.573427
2388.915578	238.510490
2390.448054	234.216783
2391.978601	251.377622
2393.512146	244.391608
2395.040480	268.699301
2396.570170	276.573427
2398.099575	270.993007
2399.628695	272.370629
2401.157529	272.433566
2402.681159	268.034965
2404.209424	267.741259
2405.732486	266.636364
2407.260183	250.748252
2408.781039	263.370629
2410.306529	280.867133
2411.828459	271.377622
2413.351743	268.139860
2414.873107	243.538462
2416.392551	241.713287
2417.913350	264.454545
2419.432230	278.776224
2420.950828	272.776224
2422.467509	270.097902
2423.985545	275.307692
2425.503299	249.258741
2427.017501	243.496503
2428.531423	253.237762
2430.045066	265.020979
2431.560062	257.034965
2433.071511	268.041958
2434.584313	284.195804
2436.095203	288.419580
2437.605813	305.860140
2439.114512	290.097902
2440.626198	298.209790
2442.134340	310.629371
2443.642203	289.615385
2445.149789	283.307692
2446.653835	285.748252
2448.160865	283.433566
2449.665987	273.006993
2451.170832	274.279720
2452.673770	251.727273
2454.176431	244.860140
2455.678816	250.972028
2457.179296	239.965035
2458.681129	240.356643
2460.181058	246.734266
2461.680711	243.426573
2463.180089	231.041958
2464.677564	224.867133
2466.173137	230.629371
2467.671690	238.993007
2469.166715	251.727273
2470.663092	277.090909
2472.155943	316.720280
2473.650146	350.559441
2475.144077	344.664336
2476.634483	306.804196
2478.127867	314.881119
2479.619353	311.314685
2481.108942	273.545455
2482.598259	262.090909
2484.085680	243.265734
2485.576077	256.307692
2487.062955	247.636364
2488.551186	251.797203
2490.035899	255.895105
2491.520342	263.482517
2493.006137	249.097902
2494.490039	215.629371
2495.975293	231.475524
2497.455413	226.370629
2498.938505	239.000000
2500.419708	279.069930
2501.900640	289.090909
2503.379684	302.727273
2504.858460	300.713287
2506.336967	280.930070
2507.815205	276.069930
2509.293176	262.937063
2510.767641	243.139860
2512.245075	221.363636
2513.719006	218.314685
2515.194288	222.006993
2516.669302	251.552448
2518.140815	257.069930
2519.613679	255.566434
2521.084660	255.006993
2522.556991	277.692308
2524.024208	289.678322
2525.494392	300.174825
2526.962694	297.090909
2528.430732	292.335664
2529.898505	296.447552
2531.366013	292.062937
2532.833257	317.034965
2534.297008	317.664336
2535.762109	313.937063
2537.225333	319.384615
2538.689906	301.503497
2540.150991	310.678322
2541.613425	313.790210
2543.075596	289.307692
2544.534280	272.216783
2545.997537	252.363636
2547.455697	247.034965
2548.915206	264.867133
2550.369622	275.566434
2551.828608	257.608392
2553.285721	265.622378
2554.740964	274.195804
2556.195946	301.440559
2557.649058	311.804196
2559.103519	323.468531
2560.556111	323.153846
2562.008443	305.853147
2563.458907	304.503497
2564.912327	302.000000
2566.360665	307.909091
2567.811959	276.937063
2569.261386	257.237762
2570.707342	257.363636
2572.156252	267.923077
2573.601691	291.580420
2575.048479	257.657343
2576.493403	256.951049
2577.938070	250.160839
2579.384084	229.391608
2580.826631	250.111888
2582.270526	243.258741
2583.710956	258.454545
2585.152734	267.188811
2586.592652	270.468531
2588.033917	262.559441
2589.471720	247.181818
2590.912473	234.671329
2592.348163	205.034965
2593.786803	195.587413
2595.223586	183.531469
2596.658512	187.307692
2598.096387	198.202797
2599.529204	205.342657
2600.963368	241.440559
2602.395677	266.111888
2603.829334	272.923077
2605.261136	278.020979
2606.692686	278.804196
2608.123982	293.517483
2609.553427	292.573427
2610.982619	288.909091
2612.409960	304.846154
2613.838648	309.629371
2615.267083	301.685315
2616.692072	312.923077
2618.118406	317.846154
2619.542892	301.041958
2620.968724	280.391608
2622.391112	254.566434
2623.814846	227.405594
2625.236734	216.279720
2626.658371	221.370629
2628.078164	247.125874
2629.499301	271.307692
2630.920189	296.034965
2632.337639	323.524476
2633.758028	347.867133
2635.174980	358.356643
2636.591684	372.608392
2638.008139	373.902098
2639.424346	370.160839
2640.840304	373.496503
2642.254422	363.195804
2643.668293	371.069930
2645.080324	368.300699
2646.493700	341.118881
2647.903646	343.223776
2649.316528	307.902098
2650.725981	305.930070
2652.135188	297.293706
2653.542559	294.580420
2654.952864	309.685315
2656.361333	310.643357
2657.767967	312.587413
2659.174356	295.398601
2660.578911	294.153846
2661.984810	287.923077
2663.388876	270.461538
2664.792698	258.027972
2666.196275	253.195804
2667.598021	252.062937
2669.001110	246.643357
2670.400781	266.083916
2671.801796	285.692308
2673.199395	304.538462
2674.599923	308.636364
2675.997037	304.888112
2677.395494	301.174825
2678.792123	286.069930
2680.188511	256.769231
2681.584656	237.132867
2682.978975	243.419580
2684.374637	222.146853
2685.766889	234.881119
2687.160485	270.230769
2688.552256	281.888112
2689.945369	310.706294
2691.336659	329.419580
2692.726126	338.398601
2694.115354	326.930070
2695.504341	319.076923
2696.894671	304.636364
2698.280016	306.090909
2699.668286	300.888112
2701.054735	289.027972
2702.440945	292.041958
2703.826916	300.888112
2705.209489	295.356643
2706.593404	296.580420
2707.977080	311.986014
2709.360519	297.237762
2710.740562	285.482517
2712.121947	277.552448
2713.501516	279.146853
2714.882427	281.279720
2716.261523	267.909091
2717.638805	261.790210
2719.017428	285.202797
2720.394237	281.041958
2721.770811	290.342657
2723.147149	306.034965
2724.521675	310.370629
2725.897542	294.846154
2727.270022	286.818182
2728.645419	274.783217
2730.015854	282.349650
2731.387631	267.818182
2732.759174	249.006993
2734.128908	248.559441
2735.499982	277.860140
2736.869249	264.608392
2738.238282	272.867133
2739.605508	302.818182
2740.972502	304.265734
2742.339263	296.237762
2743.705791	313.608392
2745.070515	331.741259
2746.435006	341.426573
2747.799265	325.188811
2749.163293	303.118881
2750.527088	286.293706
2751.887510	273.902098
2753.250843	254.216783
2754.609233	243.013986
2755.970533	250.965035
2757.328462	224.510490
2758.689301	208.230769
2760.048339	213.720280
2761.404009	220.202797
2762.762588	220.622378
2764.117799	213.580420
2765.472781	195.153846
2766.825966	181.237762
2768.182058	182.020979
2769.534786	207.167832
2770.887285	223.076923
2772.239557	253.398601
2773.593166	267.328671
2774.943414	260.426573
2776.291869	274.706294
2777.643228	288.489510
2778.991228	299.034965
2780.340567	289.230769
2781.688113	263.433566
2783.035432	244.020979
2784.382525	234.783217
2785.727827	252.279720
2787.072903	261.615385
2788.417753	277.958042
2789.762377	265.671329
2791.103648	259.580420
2792.446258	270.902098
2793.788643	280.237762
2795.130802	270.160839
2796.469612	249.076923
2797.811322	225.328671
2799.149683	233.062937
2800.489382	233.566434
2801.827295	246.972028
2803.163424	258.321678
2804.499330	254.356643
2805.836572	243.048951
2807.172031	253.734266
2808.507267	247.272727
2809.840721	256.202797
2811.175511	229.608392
2812.506960	205.027972
2813.841305	205.923077
2815.170752	211.685315
2816.501536	218.300699
2817.832098	229.888112
2819.160881	249.202797
2820.491001	264.664336
2821.819341	274.573427
2823.147461	299.573427
2824.473804	301.874126
2825.801482	319.097902
2827.125828	287.069930
2828.451510	261.321678
2829.775416	261.181818
2831.099102	240.608392
2832.424124	241.419580
2833.745817	239.895105
2835.067290	239.944056
2836.388545	235.510490
2837.709581	227.524476
2839.028845	240.608392
2840.349444	231.153846
2841.668271	224.034965
2842.986880	214.552448
2844.303719	207.321678
2845.620340	213.307692
2846.936743	213.013986
2848.251378	226.643357
2849.567347	234.741259
2850.879997	213.363636
2852.193981	212.524476
2853.507749	214.447552
2854.821300	225.881119
2856.133084	213.503497
2857.443103	227.685315
2858.754456	231.671329
2860.062493	228.853147
2861.371866	232.510490
2862.681023	246.139860
2863.989965	247.762238
2865.297144	222.804196
2866.602559	200.251748
2867.909309	210.720280
2869.214297	203.888112
2870.519070	187.433566
2871.822083	183.363636
2873.127976	205.496503
2874.429015	171.055944
2875.731387	173.048951
2877.032000	195.342657
2878.333947	210.286713
2879.635681	204.902098
2880.934111	217.447552
2882.233874	230.580420
2883.531880	256.265734
2884.829674	259.727273
2886.125711	264.566434
2887.423082	282.104895
2888.718697	277.097902
2890.014102	260.132867
2891.309295	260.748252
2892.601190	262.790210
2893.895962	246.503497
2895.187438	230.706294
2896.480246	234.510490
2897.772844	218.181818
2899.062147	229.587413
2900.352783	230.104895
2901.641669	234.475524
2902.931886	235.923077
2904.218812	227.335664
2905.507070	220.146853
2906.793579	213.720280
2908.079879	222.811189
2909.365971	232.664336
2910.650315	220.454545
2911.937531	225.895105
2913.219920	230.286713
2914.503641	275.482517
2915.785615	288.293706
2917.067383	284.881119
2918.347405	285.405594
2919.630297	276.685315
2920.911444	272.678322
2922.189309	269.349650
2923.470043	261.433566
2924.747496	244.335664
2926.024744	221.391608
2927.300249	209.650350
2928.578622	213.839161
2929.852181	231.034965
2931.128606	235.629371
2932.403291	233.888112
2933.676236	264.923077
2934.950511	266.608392
2936.223047	275.272727
2937.495379	266.979021
2938.764438	254.895105
2940.036362	248.160839
2941.306548	238.412587
2942.576530	218.720280
2943.846309	208.335664
2945.114351	209.391608
2946.380658	227.972028
2947.646762	218.937063
2948.914197	234.937063
2950.179896	232.769231
2951.445393	260.279720
2952.710689	265.349650
2953.972719	269.167832
2955.236079	258.622378
2956.499238	260.769231
2957.760664	256.020979
2959.023420	257.524476
2960.284445	245.223776
2961.543739	231.237762
2962.802832	201.342657
2964.061725	198.678322
2965.320418	196.279720
2966.578911	198.601399
2967.835675	157.209790
2969.092240	150.041958
2970.347076	136.174825
2971.603242	164.895105
2972.856152	175.034965
2974.110392	189.748252
2975.364433	188.391608
2976.616748	183.818182
2977.868865	182.531469
2979.119257	185.993007
2980.372504	188.314685
2981.620974	176.195804
2982.872298	153.895105
2984.120374	169.328671
2985.368252	186.643357
2986.615933	208.251748
2987.863418	220.608392
2989.109181	236.202797
2990.354747	245.538462
2991.601642	240.300699
2992.845291	240.328671
2994.090269	218.552448
2995.332004	225.328671
2996.576590	222.188811
2997.819457	217.769231
2999.059082	210.769231
3000.301559	203.482517
3001.540795	197.132867
3002.781359	197.986014
3004.020206	211.643357
3005.258859	209.174825
3006.495796	211.958042
3007.734061	199.111888
3008.970610	180.174825
3010.206966	188.419580
3011.443128	200.713287
3012.677576	190.307692
3013.911831	184.461538
3015.145893	180.034965
3016.378243	196.825175
3017.608881	202.237762
3018.842365	224.482517
3020.074138	209.958042
3021.304199	203.958042
3022.534069	184.944056
3023.762229	174.454545
3024.991716	188.993007
3026.219493	201.867133
3027.447079	186.356643
3028.675991	199.440559
3029.900161	212.377622
3031.127174	220.923077
3032.350964	217.398601
3033.576079	229.209790
3034.799488	225.496503
3036.022708	215.468531
3037.244222	219.818182
3038.468577	231.034965
3039.688197	249.265734
3040.909143	244.580420
3042.129899	232.650350
3043.348952	242.608392
3044.569331	226.279720
3045.786493	206.888112
3047.004980	203.076923
3048.221766	213.937063
3049.438363	212.727273
3050.654773	191.496503
3051.867969	196.125874
3053.084003	214.524476
3054.296825	227.538462
3055.512484	214.356643
3056.723420	224.314685
3057.935682	234.027972
3059.147756	232.111888
3060.359644	232.209790
3061.569834	223.734266
3062.779839	226.566434
3063.989657	221.937063
3065.197779	209.559441
3066.405715	219.461538
3067.611957	229.076923
3068.819523	214.860140
3070.025394	197.783217
3071.231080	197.503497
3072.436582	195.237762
3073.640390	186.244755
3074.845522	175.286713
3076.048961	176.734266
3077.250708	183.993007
3078.452272	180.804196
3079.653652	188.475524
3080.854848	191.244755
3082.054354	192.489510
3083.253676	191.356643
3084.454322	185.629371
3085.653279	175.307692
3086.849040	172.979021
3088.047631	184.573427
3089.243028	192.251748
3090.439749	207.531469
3091.633277	216.153846
3092.829633	215.258741
3094.024302	230.041958
3095.215781	223.244755
3096.411591	240.986014
3097.602708	256.188811
3098.795148	254.006993
3099.984399	238.461538
3101.176477	221.720280
3102.366871	224.979021
3103.554078	216.076923
3104.742609	215.293706
3105.932462	214.909091
3107.119130	207.027972
3108.305619	199.944056
3109.491928	220.587413
3110.679560	245.734266
3111.864009	246.132867
3113.046778	235.923077
3114.232371	227.069930
3115.416283	212.055944
3116.598517	209.251748
3117.780573	196.776224
3118.962450	190.055944
3120.144149	190.573427
3121.324171	190.027972
3122.502516	189.356643
3123.683681	213.825175
3124.861671	204.909091
3126.039484	187.461538
3127.217120	190.461538
3128.393081	188.118881
3129.568866	185.398601
3130.745971	202.300699
3131.921403	209.055944
3133.095161	228.979021
3134.267246	236.321678
3135.440652	240.615385
3136.613883	236.405594
3137.785442	220.860140
3138.958321	205.944056
3140.128033	193.321678
3141.299066	190.209790
3142.468428	191.342657
3143.636121	193.825175
3144.806629	211.832168
3145.972478	229.440559
3147.142637	229.377622
3148.308138	224.790210
3149.473466	223.531469
3150.638620	201.685315
3151.803601	177.979021
3152.969901	176.335664
3154.131548	181.279720
3155.294516	176.867133
3156.457311	170.832168
3157.619932	159.223776
3158.780889	159.314685
3159.941674	163.356643
3161.102286	154.846154
3162.261234	157.825175
3163.420010	139.195804
3164.578615	139.251748
3165.737048	147.237762
3166.895309	166.223776
3168.051909	178.811189
3169.206846	174.146853
3170.363104	183.538462
3171.517700	188.160839
3172.672126	184.587413
3173.824891	192.153846
3174.977487	201.167832
3176.129913	190.916084
3177.282168	193.118881
3178.434254	212.097902
3179.583193	208.615385
3180.734939	221.888112
3181.885028	220.244755
3183.033459	224.972028
3184.181722	225.902098
3185.329816	228.601399
3186.477741	243.146853
3187.624010	244.587413
3188.770111	245.685315
3189.914558	221.125874
3191.058836	225.706294
3192.202947	205.076923
3193.348376	174.314685
3194.490666	168.594406
3195.632788	149.650350
3196.774744	156.041958
3197.916532	132.818182
3199.058153	161.279720
3200.196638	198.615385
3201.336442	199.314685
3202.477562	208.475524
3203.615548	201.314685
3204.751885	206.286713
3205.888056	201.475524
3207.025545	195.531469
3208.161385	214.475524
3209.298542	212.223776
3210.431086	215.888112
3211.567911	197.755245
3212.700125	209.475524
3213.833657	221.671329
3214.967023	217.958042
3216.097262	217.062937
3217.230300	209.202797
3218.360210	192.531469
3219.491438	187.118881
3220.619540	191.216783
3221.750440	189.454545
3222.879695	181.678322
3224.007307	180.027972
3225.131796	169.258741
3226.260561	162.629371
3227.386204	170.608392
3228.511684	186.972028
3229.635523	199.993007
3230.762157	208.545455
3231.884192	200.496503
3233.007544	204.517483
3234.130734	199.433566
3235.253762	182.447552
3236.375150	194.202797
3237.496377	180.055944
3238.615965	161.545455
3239.735392	167.146853
3240.853182	169.713287
3241.973763	185.916084
3243.091231	180.839161
3244.208538	177.433566
3245.325684	182.279720
3246.441195	173.657343
3247.558021	151.132867
3248.671736	153.699301
3249.788242	157.370629
3250.903112	155.321678
3252.014874	165.181818
3253.126477	171.006993
3254.239395	176.832168
3255.352153	185.510490
3256.461805	185.958042
3257.572772	203.104895
3258.683580	215.643357
3259.792756	208.447552
3260.900301	187.405594
3262.009161	191.370629
3263.117862	181.937063
3264.223461	183.118881
3265.330375	173.699301
3266.435659	141.846154
3267.542257	128.685315
3268.645755	129.727273
3269.750567	146.321678
3270.855222	146.419580
3271.956779	145.685315
3273.058179	159.734266
3274.160893	162.398601
3275.263450	169.902098
3276.362912	162.013986
3277.465156	145.559441
3278.564306	160.321678
3279.661830	145.300699
3280.759200	150.139860
3281.859351	171.230769
3282.956409	188.426573
3284.053313	177.391608
3285.150061	193.629371
3286.242250	202.853147
3287.338689	198.202797
3288.433505	190.265734
3289.528166	162.146853
3290.621206	137.006993
3291.714092	152.629371
3292.805357	140.020979
3293.897935	125.538462
3294.988893	137.405594
3296.078231	132.825175
3297.167416	133.055944
3298.257913	138.510490
3299.345326	130.153846
3300.432587	144.083916
3301.521160	154.748252
3302.609580	122.825175
3303.693453	113.153846
3304.781568	122.202797
3305.866602	115.461538
3306.950020	99.335664
3308.034750	120.811189
3309.117864	113.881119
3310.202290	119.398601
3311.283638	106.713287
3312.366298	117.874126
3313.447344	130.174825
3314.528239	137.328671
3315.607521	133.510490
3316.686652	153.223776
3317.767095	168.559441
3318.844463	189.272727
3319.923143	191.615385
3321.000211	217.454545
3322.077129	218.699301
3323.152437	216.174825
3324.227595	191.167832
3325.304064	179.755245
3326.377462	156.279720
3327.450712	160.000000
3328.525273	148.335664
3329.598224	151.944056
3330.669568	167.202797
3331.742222	173.846154
3332.811809	175.888112
3333.882707	199.902098
3334.951998	217.734266
3336.022600	224.699301
3337.091595	211.503497
3338.158985	197.167832
3339.224768	182.139860
3340.294778	184.580420
3341.361725	171.356643
3342.425610	180.986014
3343.492263	185.608392
3344.557312	175.951049
3345.620757	187.356643
3346.684055	203.713287
3347.747208	205.139860
3348.810214	210.489510
3349.873073	205.699301
3350.934331	194.755245
3351.992532	179.573427
3353.054954	172.146853
3354.114319	174.993007
3355.173540	168.916084
3356.234069	166.853147
3357.290089	176.482517
3358.348874	195.678322
3359.403151	197.279720
3360.460192	182.678322
3361.515634	178.657343
3362.572385	169.720280
3363.627539	167.853147
3364.681095	153.419580
3365.733054	159.804196
3366.787776	160.440559
3367.839448	154.685315
3368.890976	154.496503
3369.943814	152.517483
3370.993604	163.496503
3372.044703	157.153846
3373.092755	145.426573
3374.143568	142.587413
3375.191335	149.699301
3376.238960	165.223776
3377.286443	164.307692
3378.332332	171.489510
3379.379531	155.111888
3380.423686	158.517483
3381.470600	158.706294
3382.515923	155.216783
3383.558204	172.713287
3384.600344	187.629371
3385.643793	188.720280
3386.687100	187.797203
3387.728817	170.006993
3388.770394	184.706294
3389.811829	169.258741
3390.851676	168.867133
3391.889934	163.083916
3392.929500	168.083916
3393.968926	157.412587
3395.006764	142.188811
3396.043015	128.685315
3397.079126	135.419580
3398.116545	136.909091
3399.150931	125.622378
3400.186625	118.629371
3401.222179	133.601399
3402.254701	144.265734
3403.289977	170.006993
3404.322222	169.370629
3405.354329	164.839161
3406.384853	151.482517
3407.416683	141.937063
3408.448375	124.174825
3409.477039	124.671329
3410.505566	137.622378
3411.535399	145.405594
3412.565095	150.090909
3413.591765	159.636364
3414.619741	175.594406
3415.644693	185.587413
3416.672396	180.391608
3417.697074	171.083916
3418.723059	177.384615
3419.747465	175.356643
3420.771733	170.300699
3421.794424	174.412587
3422.816978	193.475524
3423.840838	196.895105
3424.861678	202.615385
3425.882382	205.155844
3426.904392	200.231518
3427.923384	185.410589
3428.942241	158.261239
3429.962404	116.351648
3430.979549	57.250000
