-118.277064	3.020330
-115.607463	2.954396
-112.940798	3.760939
-110.274885	5.157792
-107.611905	6.862787
-104.947494	8.593756
-102.286014	10.068531
-99.623105	8.839161
-96.965303	8.371678
-94.306070	7.012587
-91.647586	8.651399
-88.992027	9.544056
-86.335039	8.083566
-83.683148	6.565385
-81.029828	5.915035
-78.379427	3.958741
-75.727598	6.652098
-73.080859	7.370629
-70.432690	7.579371
-67.785265	5.247552
-65.140753	6.854545
-62.494812	5.515385
-59.853954	8.424825
-57.211665	9.013287
-54.572286	6.839510
-51.931478	3.976224
-49.291409	5.037063
-46.656414	5.729720
-44.019989	6.202797
-41.386468	7.520280
-38.751517	9.962587
-36.121633	11.079371
-33.488155	14.895804
-30.859740	15.905594
-28.232059	17.286014
-25.602950	9.305245
-22.978897	-34.987413
-20.351254	-204.568531
-17.728666	-528.763287
-15.106808	-309.632867
-12.485681	781.614685
-9.865285	2336.862937
-7.247776	3580.203147
-4.628839	4420.153846
-2.012788	4847.453846
0.602536	4861.472378
3.217131	4467.638462
5.828845	3673.931469
8.441986	2508.262587
11.050095	1079.878671
13.661784	-228.297552
16.268443	-673.933916
18.876530	-395.383566
21.483893	-30.995804
24.086231	10.536014
26.692147	14.596503
29.293042	11.923077
31.895364	9.418182
34.492668	10.129720
37.093548	9.177972
39.689414	8.729021
42.286707	7.205245
44.883281	5.670280
47.474846	3.600000
50.067839	3.718881
52.657972	2.368881
55.249531	3.482867
57.838231	5.317832
60.428359	4.241608
63.013487	5.575874
65.600043	10.335315
68.185884	9.537762
70.768872	8.627273
73.353287	9.469580
75.930572	10.230420
78.511424	8.146853
81.089427	8.579371
83.666720	8.046154
86.245440	10.184266
88.819177	9.919580
91.394341	8.223776
93.966662	8.553147
96.538276	8.504196
99.107049	6.109441
101.677249	4.029021
104.244610	7.030070
106.813398	6.686713
109.379349	6.833916
111.942464	10.746853
114.509137	11.101399
117.066587	15.144406
119.629723	21.340210
122.187900	32.183566
124.749631	52.556643
127.306405	87.286014
129.864605	138.643007
132.417853	202.407692
134.970402	279.626923
137.526503	363.712238
140.077655	449.569930
142.628110	536.765734
145.177867	611.297902
147.724805	668.440210
150.271048	711.418182
152.818716	736.552098
155.365688	749.055944
157.907724	752.965734
160.449068	752.310839
162.989718	746.564336
165.531793	738.208741
168.071058	731.625524
170.607513	726.220629
173.143278	726.633217
175.680468	725.989510
178.216967	720.582517
180.750660	717.728671
183.281549	710.526573
185.811750	704.897552
188.343376	699.231119
190.872202	697.215385
193.398228	697.077972
195.923568	694.306643
198.450333	696.377622
200.974302	698.176224
203.497585	700.276923
206.020184	702.793357
208.539990	703.536364
211.059113	702.894406
213.577553	697.791958
216.097418	698.312238
218.610280	696.224126
221.126674	694.227273
223.642387	697.188462
226.153209	700.413287
228.665456	704.728322
231.174920	707.734965
233.683706	711.517483
236.191814	714.880420
238.701346	721.482168
241.205997	724.755245
243.709972	725.098601
246.215371	730.521329
248.715895	731.137413
251.219942	732.291958
253.717019	735.093357
256.217618	739.409790
258.715446	740.829371
261.212601	745.030769
263.709084	747.079371
266.200703	748.810839
268.695841	751.830420
271.188214	753.686014
273.679916	757.705594
276.168855	761.655944
278.659217	766.322028
281.146818	770.500699
283.631659	773.059441
286.120014	778.386014
288.601431	782.852098
291.086361	786.506993
293.566445	786.169930
296.050042	788.580070
298.528797	788.450699
301.008974	788.608741
303.486400	792.850350
305.963162	802.690210
308.439260	833.616434
310.912610	878.845455
313.385299	929.587413
315.857326	979.439860
318.328691	1013.458042
320.797313	1030.424476
323.265275	1031.300000
325.734660	1015.973427
328.199222	985.824476
330.667287	942.016783
333.130533	899.883916
335.593122	867.419930
338.055053	850.901049
340.516328	848.210490
342.974869	851.704196
345.434832	855.375874
347.892063	853.675175
350.348639	853.943706
352.804560	856.862238
355.257753	855.649650
357.712368	855.388811
360.162181	850.665734
362.615490	849.582867
365.064000	845.812937
367.511860	843.856993
369.961141	843.325175
372.405629	843.414336
374.851539	846.305245
377.296800	846.807343
379.739342	848.619231
382.181236	850.972378
384.622482	852.449301
387.061013	852.598951
389.500966	849.697902
391.938205	848.486713
394.372732	844.340210
396.810747	847.086014
399.243985	845.637413
401.678645	844.001399
404.108532	844.762238
406.541904	843.183217
408.970506	843.479720
411.398466	846.614685
413.827847	853.197552
416.252464	859.102797
418.678501	860.304895
421.103899	863.923776
423.528656	865.848252
425.948654	872.096154
428.370074	870.852098
430.788797	869.826573
433.208941	866.780070
435.626390	865.739510
438.045259	864.367483
440.461435	865.255594
442.872864	866.323077
445.287769	866.330070
447.699984	861.916434
450.111565	859.208042
452.522513	858.282517
454.930773	854.204895
457.338402	845.494056
459.745398	838.364336
462.151762	830.266084
464.555445	824.847203
466.958497	818.121678
469.360919	814.645804
471.762711	810.189860
474.161825	808.224476
476.562359	809.139510
478.962264	811.670629
481.357447	816.988811
483.756095	816.219930
486.150024	813.363287
488.543327	808.295455
490.936004	797.920979
493.328056	782.707343
495.721527	761.024476
498.110285	738.751049
500.496377	709.838112
502.883889	681.423776
505.270777	654.996154
507.655002	627.617483
510.040646	604.785664
512.423627	582.663986
514.803948	563.575524
517.185688	548.011538
519.564770	534.994755
521.945269	525.490559
524.323111	516.959790
526.698298	510.261888
529.072867	504.138811
531.448855	497.289510
533.822189	493.101049
536.196942	487.387063
538.567008	481.853147
540.936459	475.790909
543.307329	469.203497
545.673517	464.817832
548.041124	461.432867
550.406085	458.905245
552.770434	456.605944
555.134169	454.212238
557.499322	454.099301
559.859803	452.174126
562.221701	450.755245
564.580960	447.905944
566.937580	444.880769
569.297646	440.480070
571.651020	437.254895
574.007839	433.734965
576.362023	431.803147
578.715598	429.024825
581.068565	427.580070
583.418901	425.300699
585.770654	424.175175
588.115729	423.301748
590.466269	420.385664
592.810136	419.190210
595.159464	420.691608
597.504143	419.960839
599.846198	419.561189
602.189670	417.169930
604.530519	415.629021
606.870765	412.034266
609.208391	410.380420
611.549452	406.575524
613.885876	405.741259
616.223716	403.114685
618.558938	397.788112
620.891545	394.897203
623.225569	392.329021
625.556978	388.838462
627.887789	384.762587
630.218002	380.576573
632.547618	377.455245
634.872610	373.746853
637.203044	370.927622
639.528856	370.078671
641.852062	369.621678
644.176684	368.546853
646.498700	366.196503
648.820122	364.258042
651.138941	365.316783
653.459176	364.146503
655.778818	362.754545
658.095859	361.534965
660.412309	360.943706
662.726160	359.692308
665.041426	357.101748
667.354096	356.665385
669.668181	354.768881
671.977667	351.338811
674.288567	349.394406
676.596875	345.881469
678.904595	343.315385
681.213730	338.533217
683.518272	334.671678
685.822228	333.069930
688.125597	332.519930
690.430381	332.113986
692.730579	331.084266
695.032192	331.001399
697.333219	331.036364
699.629665	327.735315
701.927525	326.703846
704.224803	323.906294
706.521496	321.905245
708.813614	319.490559
711.109143	316.344406
713.400099	316.852098
715.692469	316.759441
717.982263	317.012238
720.271478	318.962937
722.560113	321.699650
724.846175	325.914685
727.133651	325.415035
729.418557	328.112587
731.702884	331.343357
733.984644	333.619930
736.267817	334.931818
738.550413	337.068182
740.828453	338.357343
743.107907	338.273427
745.386786	338.367832
747.665090	341.318531
749.938843	344.165385
752.214011	341.404895
754.488605	339.673776
756.760640	339.789161
759.034088	337.042308
761.304978	339.825175
763.573312	340.932517
765.843059	343.850350
768.110251	345.910140
770.376873	351.311888
772.642926	356.365035
774.906427	363.062238
777.171340	367.396503
779.435685	367.590909
781.695499	371.600350
783.956727	372.782867
786.217387	372.994406
788.475500	372.351748
790.731070	368.096503
792.990029	369.924476
795.242490	366.734266
797.500318	364.734965
799.753627	361.006294
802.004395	358.877273
804.256576	355.807343
806.506219	352.277273
808.757273	351.644056
811.003816	347.888112
813.251772	342.786364
815.497192	337.705594
817.744025	335.316783
819.990295	335.141259
822.232062	331.028322
824.477211	326.111888
826.715888	323.863287
828.957948	323.392657
831.195509	321.680420
833.434481	319.965035
835.670928	319.289860
837.908785	317.797203
840.144117	318.882517
842.376925	318.932517
844.611145	320.094755
846.842843	317.826224
849.073986	314.996154
851.304574	311.016783
853.534608	307.215385
855.764087	308.632867
857.989086	307.933566
860.217458	307.599301
862.441352	307.196853
864.666656	308.566084
866.887485	311.979371
869.111687	312.906993
871.331415	316.332867
873.552553	314.836014
875.773141	315.193007
877.991220	313.340210
880.210708	311.315035
882.425730	314.753147
884.640204	314.301748
886.854131	315.826224
889.067510	315.603846
891.280343	316.422028
893.492628	315.676224
895.702412	314.056643
897.911650	312.218531
900.120342	310.938462
902.326536	312.837063
904.534139	309.912587
906.739245	311.752797
908.943807	312.311538
911.145874	311.900000
913.349350	315.007692
915.550332	317.872028
917.750772	316.848252
919.952621	314.506294
922.148079	313.075175
924.346895	315.021329
926.541274	316.525874
928.739010	320.793357
930.932310	319.289860
933.127018	322.488462
935.319241	323.663986
937.510926	326.171329
939.702073	329.367483
941.890737	332.622378
944.078864	332.112587
946.264511	337.348601
948.453511	342.145105
950.638086	348.760490
952.822127	353.650350
955.009518	360.527273
957.188606	363.764336
959.371044	369.547902
961.552947	375.546154
963.732377	378.494406
965.909334	383.416434
968.087699	387.698951
970.267470	393.854545
972.440893	400.743357
974.617663	407.187063
976.790025	414.726923
978.963795	423.183566
981.133161	429.802098
983.305871	432.541608
985.476115	432.799301
987.645831	433.532517
989.815018	434.770629
991.979808	441.895455
994.147940	444.385664
996.311676	446.570629
998.476820	453.558042
1000.639504	459.499301
1002.801663	464.363636
1004.961364	469.433566
1007.120542	474.373427
1009.281126	476.825524
1011.439255	477.436713
1013.596860	478.019930
1015.753942	479.398601
1017.910501	484.108741
1020.062680	483.477622
1022.216266	485.033217
1024.369330	495.716783
1026.519945	503.665035
1028.671966	508.562937
1030.819615	514.261189
1032.970594	523.690210
1035.117204	529.497902
1037.263294	531.376923
1039.408866	533.533566
1041.555842	539.990559
1043.696531	541.908042
1045.840548	542.888112
1047.982126	547.476224
1050.123186	553.485664
1052.265651	554.636713
1054.401837	554.859091
1056.541349	559.664336
1058.676505	567.279021
1060.814986	571.712587
1062.949114	569.581119
1065.082728	573.022028
1067.217746	565.588112
1069.348415	553.241259
1071.480490	548.960839
1073.610134	540.250000
1075.739267	525.386713
1077.867889	511.623776
1079.995999	507.890559
1082.121683	503.465385
1084.246857	500.097203
1086.373434	495.225524
1088.495675	484.938462
1090.619320	483.674126
1092.738630	472.211538
1094.863169	473.272028
1096.981464	470.796154
1099.101162	471.738462
1101.218442	464.286014
1103.335216	463.232867
1105.451483	461.852448
1107.565335	461.189510
1109.680590	457.110140
1111.791523	450.261538
1113.905768	448.983566
1116.015692	445.261189
1118.127019	439.003497
1120.237843	434.967133
1122.344350	427.096853
1124.454166	427.598252
1126.559668	421.641608
1128.666574	419.929371
1130.767264	417.340909
1132.873165	416.650699
1134.974758	409.717483
1137.077754	406.782168
1139.180249	408.675175
1141.276538	399.718531
1143.378033	396.779021
1145.475226	393.882517
1147.571920	392.290559
1149.668117	396.391608
1151.763815	401.197552
1153.859016	403.280070
1155.951820	406.072727
1158.046026	404.801748
1160.134041	404.096503
1162.227254	401.798951
1164.314279	400.250699
1166.404604	396.635664
1168.490640	396.273776
1170.579974	394.511888
1172.663127	390.100699
1174.747683	390.595804
1176.833639	389.666783
1178.915315	389.981469
1180.998391	392.109441
1183.079082	391.168881
1185.159282	393.076573
1187.238990	389.969231
1189.318207	391.185315
1191.395041	394.140559
1193.469495	393.898252
1195.547241	393.656294
1197.620716	388.149650
1199.695593	387.991259
1201.766202	388.280070
1203.838212	386.126923
1205.907846	382.695105
1207.978881	380.765734
1210.049428	380.819231
1212.115715	376.635315
1214.183401	376.163287
1216.248716	374.936364
1218.315431	378.443007
1220.377890	380.269930
1222.443635	377.832867
1224.505125	381.188811
1226.568015	383.292308
1228.628538	378.089161
1230.688578	378.923427
1232.748134	379.172727
1234.805326	377.876224
1236.862035	375.412587
1238.916382	375.261538
1240.974009	373.971329
1243.029274	377.476573
1245.080298	375.757692
1247.132723	375.036014
1249.184667	374.967832
1251.234253	373.691608
1253.283360	370.213287
1255.331988	372.149301
1257.380138	372.616084
1259.427810	372.701399
1261.471251	374.243357
1263.517967	375.215734
1265.562331	378.767133
1267.606217	382.746503
1269.647753	383.158042
1271.686939	387.155594
1273.729397	386.525874
1275.767634	391.037063
1277.807268	393.825524
1279.846428	399.511189
1281.881370	405.395105
1283.917710	406.890559
1285.951705	412.260490
1287.987099	412.751049
1290.018279	419.789510
1292.050858	423.162937
1294.082964	424.187413
1296.112730	431.739860
1298.143894	436.067832
1300.170850	447.413986
1302.199204	455.722028
1304.223354	464.626923
1306.250769	473.586014
1308.273981	485.010490
1310.298591	496.875175
1312.320866	509.932867
1314.344539	526.944755
1316.365879	540.642657
1318.386752	554.481119
1320.407157	570.582867
1322.423369	588.861189
1324.440978	608.659790
1326.456259	626.598252
1328.474799	646.514336
1330.489149	665.369930
1332.501174	684.278671
1334.516457	697.152448
1336.527554	707.154545
1338.540047	708.237413
1340.548358	705.553497
1342.559925	702.241608
1344.565453	695.810839
1346.574235	689.386014
1348.578841	677.920280
1350.586700	667.384965
1352.594097	655.626573
1354.595462	638.158392
1356.598225	622.175175
1358.600528	603.362587
1360.602370	583.239860
1362.603754	562.308741
1364.602823	542.836364
1366.601434	527.365035
1368.599587	514.939161
1370.597282	506.216434
1372.590813	494.908741
1374.585741	485.796503
1376.580212	475.080070
1378.574226	465.150350
1380.565933	456.973776
1382.557184	450.011538
1384.546130	442.234965
1386.536471	435.404196
1388.526357	429.806643
1390.513940	423.102098
1392.501069	420.565734
1394.485896	419.187762
1396.472118	413.799650
1398.456039	411.715385
1400.439508	408.998951
1402.422525	404.911888
1404.403244	397.533566
1406.385357	395.598252
1408.365173	391.805594
1410.344539	393.553497
1412.319766	392.228671
1414.298231	389.265734
1416.274403	388.098601
1418.250125	388.210839
1420.225398	386.201748
1422.198381	385.960140
1424.170915	383.656643
1426.143001	380.085664
1428.114639	372.479371
1430.082150	372.140559
1432.054734	372.093357
1434.019512	375.026923
1435.989363	372.716434
1437.955089	372.996154
1439.922209	369.871329
1441.887045	367.981469
1443.847761	367.863287
1445.813545	368.069231
1447.773374	370.164685
1449.734596	367.699650
1451.697211	365.571678
1453.655711	371.276224
1455.613769	374.455245
1457.571384	374.205944
1459.528558	372.462937
1461.483456	372.495804
1463.439746	371.436364
1465.393762	369.086364
1467.347338	369.139860
1469.298641	369.302448
1471.251336	371.060140
1473.201760	368.441608
1475.151745	372.899650
1477.101291	377.302448
1479.048567	377.194406
1480.993577	376.308741
1482.939979	376.286713
1484.885943	373.012238
1486.831470	372.468881
1488.774731	365.580769
1490.717556	365.527622
1492.658118	367.541608
1494.600072	369.506294
1496.539763	373.544056
1498.479019	380.451049
1500.417841	386.099650
1502.354403	387.597552
1504.292355	388.696154
1506.228050	388.296503
1508.163311	385.542657
1510.096315	384.104545
1512.028887	380.640559
1513.961027	381.549650
1515.892735	383.227273
1517.822190	384.906643
1519.753034	389.079021
1521.683448	394.339860
1523.609789	399.245105
1525.537520	402.110490
1527.463001	408.346853
1529.388053	412.260490
1531.312676	417.719580
1533.236870	421.322028
1535.158817	425.082168
1537.082153	427.412587
1539.003244	431.288112
1540.922090	437.096503
1542.842326	445.929371
1544.760318	456.144755
1546.677884	467.956643
1548.593209	483.959441
1550.509922	499.539860
1552.422581	516.586364
1554.338444	529.452797
1556.252068	540.110140
1558.163453	550.558741
1560.076227	557.664336
1561.984953	568.866084
1563.895067	580.918531
1565.804758	592.736713
1567.714026	603.090559
1569.621059	613.225524
1571.525860	621.845804
1573.432050	624.131119
1575.336009	624.512587
1577.239546	618.145105
1579.142662	610.202448
1581.043550	597.701399
1582.945826	583.084615
1584.845873	575.973776
1586.747309	566.333217
1588.644710	556.618531
1590.541694	550.326224
1592.438259	541.489860
1594.336211	537.909091
1596.228329	532.618182
1598.123641	532.295804
1600.018534	530.423077
1601.911207	529.871329
1603.803462	522.572378
1605.693498	519.558042
1607.583118	514.598601
1609.472323	507.940210
1611.361112	496.311538
1613.247685	488.033916
1615.135645	474.622727
1617.019588	466.945455
1618.904918	451.215035
1620.789835	443.441608
1622.672538	429.842308
1624.556628	422.509790
1626.436706	401.889860
1628.318171	392.595804
1630.197426	378.143357
1632.078067	371.633916
1633.952905	363.775874
1635.832723	357.087413
1637.708536	349.113287
1639.583940	345.133566
1641.460729	339.503147
1643.331721	341.175175
1645.205896	338.019580
1647.076071	330.456294
1648.949427	322.394056
1650.820580	324.719231
1652.689531	324.514685
1654.559868	326.174126
1656.426211	325.828322
1658.293941	327.029371
1660.159471	328.598252
1662.026386	329.560490
1663.889313	329.723077
1665.753625	332.025175
1667.615742	330.585664
1669.477453	324.330769
1671.340549	323.054895
1673.201451	320.370280
1675.060159	317.204196
1676.918465	311.463287
1678.778154	312.452448
1680.632077	312.589510
1682.489173	311.193706
1684.345865	304.546853
1686.198582	307.526224
1688.054470	311.045105
1689.906384	311.996154
1691.757897	309.134266
1693.609009	306.509790
1695.459720	302.018182
1697.310031	293.491259
1699.158158	290.226923
1701.007668	290.395105
1702.851430	285.540210
1704.700142	282.673776
1706.543107	282.155944
1708.389238	286.693357
1710.231408	283.573776
1712.076742	284.344755
1713.916336	286.339510
1715.757314	285.575874
1717.599676	283.577273
1719.438080	279.093007
1721.277868	284.918531
1723.115481	284.574126
1724.952698	288.452797
1726.787742	290.428671
1728.624169	295.413986
1730.458424	290.302797
1732.292285	287.826573
1734.125751	286.311888
1735.955271	282.545455
1737.787950	279.549650
1739.616685	279.980420
1741.448578	279.801748
1743.276528	276.432517
1745.104086	274.206643
1746.931253	278.850699
1748.758028	278.503147
1750.584411	278.844406
1752.406858	280.113636
1754.232459	278.931119
1756.054126	280.782168
1757.877175	279.762937
1759.698063	279.090210
1761.518561	279.485664
1763.340441	277.062238
1765.156621	267.534266
1766.975953	268.288811
1768.791358	267.043007
1770.609914	266.553147
1772.424544	270.782867
1774.238787	276.057692
1776.052644	280.177972
1777.866114	286.619930
1779.677430	283.420629
1781.490128	279.597902
1783.302439	279.765035
1785.110833	274.861538
1786.920608	277.018531
1788.726467	275.080070
1790.535473	271.238112
1792.340565	272.280070
1794.147037	271.255594
1795.953126	268.345804
1797.755305	274.753846
1799.560627	271.376923
1801.362041	268.463986
1803.164835	267.912937
1804.963724	265.925524
1806.763992	272.486014
1808.563880	280.119580
1810.361625	279.246503
1812.158990	280.608392
1813.955974	280.020629
1815.752578	274.599301
1817.547043	270.073077
1819.342888	272.850000
1821.133077	267.100000
1822.928163	265.535664
1824.717596	261.446853
1826.510167	261.045455
1828.300602	265.359441
1830.088902	265.956643
1831.880338	268.725524
1833.666129	271.745804
1835.453298	273.580769
1837.238337	272.705594
1839.026508	276.647552
1840.810794	282.544406
1842.592951	286.249650
1844.376487	285.795105
1846.157894	282.002797
1847.940679	281.871329
1849.719585	278.979371
1851.499869	277.363287
1853.278028	273.769930
1855.057564	277.043357
1856.834976	275.399301
1858.610264	277.305944
1860.386931	280.994755
1862.161475	278.660839
1863.937396	283.115385
1865.707698	279.006643
1867.481127	279.507343
1869.252436	282.252098
1871.023374	281.379720
1872.795689	279.794406
1874.562392	279.496503
1876.332219	281.906294
1878.098183	282.334965
1879.867271	286.613636
1881.632497	281.574476
1883.397355	278.852797
1885.163589	280.583217
1886.925965	277.666783
1888.687974	276.066434
1890.449616	274.557343
1892.210890	271.283566
1893.971798	270.370629
1895.732338	272.320280
1897.490770	269.844056
1899.248835	269.419580
1901.004793	269.913636
1902.762127	266.041259
1904.519095	267.085664
1906.273958	265.337063
1908.026715	264.603497
1909.779109	262.772028
1911.532879	264.410490
1913.284545	266.554545
1915.034108	267.461888
1916.785048	269.582168
1918.535624	267.879021
1920.282362	263.624476
1922.030475	267.539860
1923.776489	268.104895
1925.523879	271.168881
1927.269170	271.934965
1929.012364	274.596853
1930.756934	274.487762
1932.499407	272.151399
1934.241520	269.821329
1935.983274	268.570280
1937.724667	268.623427
1939.463967	267.388462
1941.202908	264.868881
1942.941490	269.529720
1944.677980	267.512587
1946.414113	271.249650
1948.151620	272.853147
1949.885306	275.450350
1951.620366	271.687762
1953.353337	270.928322
1955.085952	275.451049
1956.818210	277.975524
1958.550112	277.165734
1960.279928	274.639161
1962.007660	276.255594
1963.736766	272.450350
1965.465516	268.994755
1967.192183	267.274126
1968.918496	265.310839
1970.646182	264.476923
1972.368333	259.289860
1974.093584	263.225175
1975.815028	266.911538
1977.539572	269.717483
1979.262037	273.039860
1980.980698	275.525874
1982.702458	283.608741
1984.420416	280.945105
1986.139748	283.159790
1987.855279	280.215385
1989.575632	280.299650
1991.292186	274.108741
1993.004943	267.846154
1994.720796	267.182168
1996.434577	270.121329
1998.148008	271.922028
1999.859367	276.652797
2001.572100	278.975175
2003.281041	284.379720
2004.993076	286.643357
2006.699601	288.383916
2008.409219	288.409790
2010.116769	287.623077
2011.823972	285.133566
2013.529109	284.536364
2015.233899	283.041958
2016.940061	282.887063
2018.642441	277.334266
2020.346193	276.937762
2022.047882	276.767832
2023.749225	277.219580
2025.450223	279.656643
2027.149161	277.943706
2028.849470	278.105245
2030.546003	280.666783
2032.243908	284.689860
2033.939755	286.770979
2035.638687	285.344755
2037.332133	281.304545
2039.026950	277.786364
2040.721424	278.017483
2042.412130	275.960839
2044.105920	275.281119
2045.795943	275.935315
2047.487337	275.535315
2049.176678	274.230420
2050.867389	274.744406
2052.554338	276.633916
2054.240946	278.599301
2055.928925	279.747203
2057.613144	281.012238
2059.298733	280.359441
2060.983983	283.511538
2062.667185	282.470979
2064.351757	282.742657
2066.030865	283.313986
2067.714759	281.669231
2069.393193	277.916434
2071.074704	276.110140
2072.752463	275.509790
2074.429886	276.288462
2076.108678	276.507343
2077.785427	278.136713
2079.460135	274.535664
2081.136212	278.620979
2082.810249	277.600000
2084.483950	275.306294
2086.157316	276.799301
2087.828644	273.936014
2089.499637	273.844406
2091.170296	272.197203
2092.840621	270.589161
2094.510611	267.868881
2096.178566	267.153497
2097.846188	267.854895
2099.511776	266.333916
2101.178732	273.615035
2102.843655	273.990909
2104.508245	277.636364
2106.170804	279.758042
2107.834732	276.588811
2109.496628	279.715035
2111.158193	280.492657
2112.819428	279.775874
2114.478633	278.837063
2116.137509	280.586014
2117.796054	281.967832
2119.454270	286.332168
2121.108763	291.013636
2122.766320	293.508042
2124.423547	296.509091
2126.077054	293.365734
2127.731928	290.815734
2129.383083	292.026224
2131.037301	288.320629
2132.687801	284.090210
2134.339669	281.000350
2135.986128	277.087063
2137.637341	277.425524
2139.284842	278.034266
2140.933709	278.363636
2142.580557	281.314685
2144.227080	279.370280
2145.873277	278.973427
2147.515765	279.669231
2149.161312	281.876224
2150.803152	281.660140
2152.448049	281.776224
2154.089241	279.925874
2155.730109	277.838811
2157.370654	279.174825
2159.009186	279.554545
2160.649084	279.846503
2162.285282	279.421678
2163.922846	279.202448
2165.560088	280.016084
2167.195320	281.241259
2168.830230	282.179720
2170.464819	281.661189
2172.099087	278.830420
2173.729661	275.735664
2175.363286	275.483916
2176.993220	273.098601
2178.624520	271.129371
2180.253814	269.250350
2181.882789	269.191958
2183.511444	272.253497
2185.139780	272.852448
2186.766113	276.957692
2188.392128	275.634615
2190.016142	275.866783
2191.641521	274.117483
2193.264899	273.301049
2194.889642	272.066783
2196.510703	267.248601
2198.131449	266.026224
2199.753558	265.294406
2201.373670	268.034266
2202.991786	268.646503
2204.609586	270.574825
2206.227070	271.906993
2207.844239	273.979021
2209.461093	276.670280
2211.077632	276.821678
2212.692177	275.434266
2214.304731	273.341608
2215.918648	271.798951
2217.530573	276.295105
2219.143863	279.704196
2220.755161	280.878671
2222.364471	274.670280
2223.975143	278.403147
2225.583827	279.332168
2227.192199	280.545455
2228.798583	280.319930
2230.406331	280.729021
2232.012092	275.270629
2233.617543	273.525524
2235.221008	275.973427
2236.825836	281.051049
2238.428680	279.443007
2240.029541	275.503846
2241.631765	272.724126
2243.232007	272.436364
2244.833611	271.917483
2246.431562	270.391958
2248.030876	274.736014
2249.628210	275.701748
2251.225236	272.953846
2252.823623	275.154196
2254.418362	278.935664
2256.011125	280.492657
2257.605249	282.502098
2259.200736	278.785315
2260.792577	275.593007
2262.384112	274.112587
2263.977008	277.354196
2265.564595	280.132168
2267.156879	279.647902
2268.743855	273.077273
2270.333860	271.647552
2271.918560	272.459091
2273.507954	276.966783
2275.092045	277.070629
2276.677498	272.838462
2278.260982	269.583916
2279.847491	271.627972
2281.430367	274.162587
2283.012939	275.279720
2284.595209	276.319580
2286.173848	276.025175
2287.755512	268.447203
2289.333547	272.640559
2290.914605	276.832867
2292.492036	277.932168
2294.067504	272.780070
2295.645994	268.857343
2297.220859	271.766783
2298.795425	270.722378
2300.369689	266.380070
2301.943653	265.575524
2303.517317	262.954895
2305.090680	264.115734
2306.660425	258.551399
2308.229871	260.829720
2309.802336	261.625524
2311.369526	262.166434
2312.939733	263.234965
2314.506327	265.122727
2316.074279	265.739161
2317.640277	263.306643
2319.205977	259.473077
2320.771379	264.648951
2322.334828	269.635664
2323.899636	278.852797
2325.460835	282.833217
2327.025049	284.752448
2328.584002	288.021678
2330.145968	286.638112
2331.705984	288.233566
2333.265704	285.979021
2334.823475	279.472727
2336.380952	277.055245
2337.938133	267.826573
2339.493368	268.120629
2341.048308	268.625874
2342.602955	267.605245
2344.157308	264.367483
2345.711367	260.951049
2347.265133	259.934965
2348.816954	259.687063
2350.366832	261.870979
2351.919718	266.476923
2353.467362	273.243007
2355.018013	274.502448
2356.565074	270.640559
2358.113492	272.792657
2359.661618	270.698601
2361.206157	266.605245
2362.752053	265.206294
2364.296010	261.731119
2365.841325	261.693357
2367.383055	259.794056
2368.926143	266.071329
2370.467294	273.812937
2372.008156	281.637413
2373.548729	279.104196
2375.089013	285.575175
2376.629008	286.264336
2378.165424	279.826923
2379.704842	275.047203
2381.240683	268.750350
2382.777880	258.522028
2384.311503	255.030769
2385.848125	251.910140
2387.382817	257.056993
2388.915578	257.804545
2390.448054	263.667483
2391.978601	266.798252
2393.512146	271.562238
2395.040480	276.065734
2396.570170	271.403497
2398.099575	273.833566
2399.628695	272.622028
2401.157529	269.595105
2402.681159	268.369231
2404.209424	270.897552
2405.732486	273.147902
2407.260183	272.411538
2408.781039	272.512238
2410.306529	277.656643
2411.828459	276.818182
2413.351743	278.849301
2414.873107	272.280070
2416.392551	275.075175
2417.913350	274.692308
2419.432230	272.038462
2420.950828	269.700350
2422.467509	271.293706
2423.985545	270.823427
2425.503299	271.222028
2427.017501	273.868531
2428.531423	283.238462
2430.045066	280.061538
2431.560062	280.522727
2433.071511	280.900000
2434.584313	281.279371
2436.095203	280.947203
2437.605813	276.661888
2439.114512	277.667133
2440.626198	270.811189
2442.134340	274.536713
2443.642203	276.427972
2445.149789	276.452448
2446.653835	278.628322
2448.160865	274.741958
2449.665987	271.500000
2451.170832	270.654545
2452.673770	267.525175
2454.176431	263.453497
2455.678816	258.540909
2457.179296	261.941259
2458.681129	258.441608
2460.181058	261.446503
2461.680711	260.096503
2463.180089	261.310490
2464.677564	265.500699
2466.173137	265.589161
2467.671690	269.079021
2469.166715	270.763986
2470.663092	271.404895
2472.155943	265.051049
2473.650146	266.490909
2475.144077	265.158392
2476.634483	263.247203
2478.127867	258.445105
2479.619353	259.311538
2481.108942	264.257692
2482.598259	268.243007
2484.085680	268.851049
2485.576077	275.875874
2487.062955	275.593706
2488.551186	275.618881
2490.035899	270.360490
2491.520342	270.906643
2493.006137	266.518531
2494.490039	262.805944
2495.975293	256.474825
2497.455413	253.804895
2498.938505	254.363636
2500.419708	250.782867
2501.900640	248.904895
2503.379684	256.396503
2504.858460	255.642308
2506.336967	258.964336
2507.815205	261.387413
2509.293176	268.350350
2510.767641	274.110490
2512.245075	269.929021
2513.719006	269.384266
2515.194288	268.862587
2516.669302	267.867133
2518.140815	266.791958
2519.613679	266.805594
2521.084660	270.966084
2522.556991	265.043706
2524.024208	267.644056
2525.494392	267.162238
2526.962694	270.759790
2528.430732	267.849650
2529.898505	267.081818
2531.366013	267.839860
2532.833257	263.886014
2534.297008	261.363986
2535.762109	260.615734
2537.225333	258.688462
2538.689906	260.221329
2540.150991	258.397552
2541.613425	254.718881
2543.075596	256.752098
2544.534280	261.662238
2545.997537	260.886713
2547.455697	265.436364
2548.915206	261.558741
2550.369622	259.780769
2551.828608	257.971329
2553.285721	252.865035
2554.740964	251.552098
2556.195946	250.583566
2557.649058	248.456643
2559.103519	246.433217
2560.556111	254.391259
2562.008443	256.596853
2563.458907	255.058741
2564.912327	257.370280
2566.360665	256.386713
2567.811959	255.965035
2569.261386	250.399301
2570.707342	246.633217
2572.156252	249.119930
2573.601691	253.173427
2575.048479	260.702448
2576.493403	263.488811
2577.938070	266.763287
2579.384084	262.541259
2580.826631	263.005245
2582.270526	264.388811
2583.710956	260.680070
2585.152734	254.927622
2586.592652	250.229720
2588.033917	246.361538
2589.471720	250.643706
2590.912473	258.961888
2592.348163	262.273776
2593.786803	266.406294
2595.223586	271.600699
2596.658512	271.410140
2598.096387	273.877622
2599.529204	273.358392
2600.963368	272.665035
2602.395677	273.317483
2603.829334	272.472028
2605.261136	269.615734
2606.692686	273.138112
2608.123982	271.746154
2609.553427	269.867133
2610.982619	274.334965
2612.409960	279.186713
2613.838648	272.520280
2615.267083	273.153846
2616.692072	274.332517
2618.118406	276.729371
2619.542892	277.727972
2620.968724	281.274476
2622.391112	280.289161
2623.814846	278.039860
2625.236734	271.841259
2626.658371	275.423776
2628.078164	277.387063
2629.499301	281.268182
2630.920189	281.393706
2632.337639	286.643357
2633.758028	290.132517
2635.174980	289.411189
2636.591684	290.007692
2638.008139	295.171329
2639.424346	289.165385
2640.840304	288.218182
2642.254422	286.613287
2643.668293	291.240210
2645.080324	295.233916
2646.493700	297.377273
2647.903646	299.323776
2649.316528	298.775175
2650.725981	299.131119
2652.135188	297.472378
2653.542559	297.186014
2654.952864	302.181469
2656.361333	297.441958
2657.767967	300.758741
2659.174356	298.299301
2660.578911	305.795105
2661.984810	313.205944
2663.388876	311.974825
2664.792698	307.724126
2666.196275	310.020629
2667.598021	313.371678
2669.001110	315.264336
2670.400781	315.397203
2671.801796	315.244406
2673.199395	312.404545
2674.599923	314.124126
2675.997037	311.714685
2677.395494	318.337063
2678.792123	317.786014
2680.188511	312.082867
2681.584656	306.387762
2682.978975	311.057343
2684.374637	317.113986
2685.766889	315.791958
2687.160485	313.683217
2688.552256	313.080070
2689.945369	314.093706
2691.336659	314.613636
2692.726126	313.067832
2694.115354	313.474476
2695.504341	304.394406
2696.894671	300.070979
2698.280016	295.616084
2699.668286	297.519580
2701.054735	298.972727
2702.440945	296.574476
2703.826916	295.970629
2705.209489	300.062238
2706.593404	301.339161
2707.977080	302.939161
2709.360519	299.448252
2710.740562	298.531469
2712.121947	294.876224
2713.501516	294.516434
2714.882427	288.848951
2716.261523	289.826923
2717.638805	284.681469
2719.017428	284.718881
2720.394237	286.773427
2721.770811	291.424476
2723.147149	288.223077
2724.521675	288.076923
2725.897542	286.247552
2727.270022	289.483217
2728.645419	293.429371
2730.015854	286.818531
2731.387631	280.685315
2732.759174	280.032867
2734.128908	273.174476
2735.499982	272.101049
2736.869249	269.390909
2738.238282	264.369580
2739.605508	257.163986
2740.972502	251.701049
2742.339263	254.256294
2743.705791	258.144755
2745.070515	262.072378
2746.435006	258.368531
2747.799265	261.837413
2749.163293	267.145105
2750.527088	269.642657
2751.887510	270.750350
2753.250843	269.536713
2754.609233	266.214336
2755.970533	259.584266
2757.328462	252.618531
2758.689301	252.096853
2760.048339	247.243357
2761.404009	247.961888
2762.762588	244.143706
2764.117799	242.666084
2765.472781	243.865734
2766.825966	245.983566
2768.182058	249.498951
2769.534786	249.345804
2770.887285	256.241259
2772.239557	254.715734
2773.593166	250.542657
2774.943414	253.368881
2776.291869	255.447552
2777.643228	258.198601
2778.991228	254.962587
2780.340567	250.738112
2781.688113	247.898601
2783.035432	245.722727
2784.382525	247.266434
2785.727827	240.613287
2787.072903	240.629021
2788.417753	234.363986
2789.762377	232.384615
2791.103648	239.982867
2792.446258	243.408741
2793.788643	245.058042
2795.130802	248.769231
2796.469612	246.237413
2797.811322	243.489161
2799.149683	242.135664
2800.489382	243.409790
2801.827295	235.091259
2803.163424	232.314685
2804.499330	231.368531
2805.836572	232.332867
2807.172031	233.562587
2808.507267	235.971678
2809.840721	236.909091
2811.175511	236.833916
2812.506960	235.934615
2813.841305	234.504895
2815.170752	233.839510
2816.501536	235.222028
2817.832098	235.551748
2819.160881	232.143706
2820.491001	234.301049
2821.819341	241.008042
2823.147461	244.491958
2824.473804	245.714685
2825.801482	244.556993
2827.125828	240.955245
2828.451510	241.726923
2829.775416	239.260839
2831.099102	237.970979
2832.424124	238.188462
2833.745817	241.767483
2835.067290	239.731469
2836.388545	243.542657
2837.709581	251.997902
2839.028845	248.710140
2840.349444	245.295455
2841.668271	242.115035
2842.986880	242.688462
2844.303719	243.692657
2845.620340	238.138811
2846.936743	240.617832
2848.251378	241.589161
2849.567347	245.234615
2850.879997	241.746853
2852.193981	237.581469
2853.507749	241.167832
2854.821300	233.070979
2856.133084	233.294406
2857.443103	234.264336
2858.754456	233.894406
2860.062493	227.453846
2861.371866	225.876573
2862.681023	232.274825
2863.989965	234.228671
2865.297144	235.209091
2866.602559	232.672028
2867.909309	227.206993
2869.214297	228.746154
2870.519070	224.749650
2871.822083	224.195455
2873.127976	221.876573
2874.429015	223.972378
2875.731387	228.353497
2877.032000	235.369580
2878.333947	239.409441
2879.635681	244.013986
2880.934111	241.456294
2882.233874	240.521678
2883.531880	237.649650
2884.829674	234.675524
2886.125711	235.840210
2887.423082	233.439860
2888.718697	232.980769
2890.014102	236.351748
2891.309295	240.963287
2892.601190	240.036713
2893.895962	237.385315
2895.187438	237.889161
2896.480246	231.656294
2897.772844	229.255594
2899.062147	226.674476
2900.352783	221.332168
2901.641669	219.600000
2902.931886	215.783217
2904.218812	220.850000
2905.507070	229.388462
2906.793579	239.433217
2908.079879	244.889510
2909.365971	247.536713
2910.650315	246.890210
2911.937531	242.373776
2913.219920	238.906294
2914.503641	231.254545
2915.785615	224.484965
2917.067383	219.237762
2918.347405	219.639860
2919.630297	225.033566
2920.911444	229.816434
2922.189309	228.454196
2923.470043	228.970280
2924.747496	228.168182
2926.024744	228.585315
2927.300249	230.289860
2928.578622	229.177622
2929.852181	226.892308
2931.128606	227.518881
2932.403291	230.306993
2933.676236	231.967832
2934.950511	235.613287
2936.223047	234.134965
2937.495379	229.528322
2938.764438	230.168531
2940.036362	232.271329
2941.306548	234.954545
2942.576530	230.487762
2943.846309	227.606643
2945.114351	223.566084
2946.380658	223.680070
2947.646762	223.918182
2948.914197	227.519580
2950.179896	228.045455
2951.445393	225.910490
2952.710689	224.886364
2953.972719	225.172028
2955.236079	228.333916
2956.499238	229.866434
2957.760664	229.246503
2959.023420	232.423077
2960.284445	230.729021
2961.543739	236.297552
2962.802832	235.153497
2964.061725	237.362587
2965.320418	232.805594
2966.578911	230.657692
2967.835675	227.091259
2969.092240	221.508392
2970.347076	222.850350
2971.603242	222.776224
2972.856152	219.211888
2974.110392	218.275175
2975.364433	216.566434
2976.616748	217.106294
2977.868865	215.062238
2979.119257	215.110140
2980.372504	213.072727
2981.620974	212.792657
2982.872298	215.696503
2984.120374	216.647552
2985.368252	222.275524
2986.615933	220.144056
2987.863418	217.241958
2989.109181	218.499650
2990.354747	215.518182
2991.601642	211.603147
2992.845291	208.477622
2994.090269	206.158392
2995.332004	205.250699
2996.576590	201.968881
2997.819457	208.302797
2999.059082	211.447552
3000.301559	212.653497
3001.540795	210.048252
3002.781359	212.995455
3004.020206	215.303846
3005.258859	214.179720
3006.495796	211.026573
3007.734061	213.929021
3008.970610	212.604895
3010.206966	209.212587
3011.443128	203.801748
3012.677576	204.680420
3013.911831	200.660490
3015.145893	197.799650
3016.378243	198.737762
3017.608881	200.459091
3018.842365	205.106294
3020.074138	206.020979
3021.304199	210.569231
3022.534069	215.785664
3023.762229	214.577622
3024.991716	212.597203
3026.219493	204.449650
3027.447079	199.854895
3028.675991	197.125524
3029.900161	196.033566
3031.127174	199.495455
3032.350964	199.272378
3033.576079	202.615385
3034.799488	203.015035
3036.022708	210.400350
3037.244222	209.372378
3038.468577	211.684965
3039.688197	209.219930
3040.909143	206.189510
3042.129899	204.903147
3043.348952	203.459790
3044.569331	202.637413
3045.786493	206.862937
3047.004980	204.892657
3048.221766	205.614685
3049.438363	205.291608
3050.654773	207.635315
3051.867969	204.140909
3053.084003	202.556643
3054.296825	200.980420
3055.512484	200.748951
3056.723420	199.212238
3057.935682	193.475874
3059.147756	194.251399
3060.359644	196.366783
3061.569834	197.376573
3062.779839	197.416259
3063.989657	195.623077
3065.197779	199.349126
3066.405715	198.438811
3067.611957	198.353671
3068.819523	201.505944
3070.025394	202.641434
3071.231080	202.016084
3072.436582	197.672552
3073.640390	200.203846
3074.845522	199.087937
3076.048961	196.754895
3077.250708	196.375699
3078.452272	195.348951
3079.653652	200.205245
3080.854848	199.381119
3082.054354	202.930769
3083.253676	204.014685
3084.454322	199.890210
3085.653279	197.217483
3086.849040	194.650699
3088.047631	197.264685
3089.243028	191.501049
3090.439749	186.154545
3091.633277	186.398951
3092.829633	180.226224
3094.024302	177.212238
3095.215781	175.030420
3096.411591	182.138112
3097.602708	179.766783
3098.795148	181.281119
3099.984399	185.074476
3101.176477	190.663986
3102.366871	201.023077
3103.554078	201.212238
3104.742609	201.897552
3105.932462	201.694755
3107.119130	193.186014
3108.305619	189.728322
3109.491928	187.444056
3110.679560	186.416434
3111.864009	179.273077
3113.046778	182.776224
3114.232371	182.967133
3115.416283	187.548252
3116.598517	192.372028
3117.780573	194.270979
3118.962450	193.338811
3120.144149	195.128671
3121.324171	192.426224
3122.502516	195.938811
3123.683681	193.758392
3124.861671	191.200699
3126.039484	192.026923
3127.217120	194.875175
3128.393081	190.503147
3129.568866	190.240909
3130.745971	187.618531
3131.921403	184.400000
3133.095161	180.181818
3134.267246	183.320629
3135.440652	181.992308
3136.613883	184.310490
3137.785442	184.368182
3138.958321	186.564685
3140.128033	189.537762
3141.299066	187.993706
3142.468428	186.778671
3143.636121	187.144056
3144.806629	183.638462
3145.972478	182.103147
3147.142637	179.055594
3148.308138	179.377273
3149.473466	177.713287
3150.638620	177.765734
3151.803601	180.013636
3152.969901	185.286364
3154.131548	190.165035
3155.294516	189.355594
3156.457311	190.073776
3157.619932	188.511888
3158.780889	185.622378
3159.941674	183.708741
3161.102286	176.308042
3162.261234	170.184965
3163.420010	168.415035
3164.578615	171.038462
3165.737048	179.587762
3166.895309	184.906294
3168.051909	189.612238
3169.206846	188.394755
3170.363104	186.420629
3171.517700	184.656993
3172.672126	184.021678
3173.824891	179.618881
3174.977487	170.861538
3176.129913	169.384615
3177.282168	171.215734
3178.434254	176.556643
3179.583193	182.094755
3180.734939	183.099650
3181.885028	188.858392
3183.033459	189.751399
3184.181722	188.202797
3185.329816	191.132517
3186.477741	193.668531
3187.624010	193.437762
3188.770111	191.317832
3189.914558	193.669231
3191.058836	190.444406
3192.202947	190.529371
3193.348376	189.437063
3194.490666	187.190559
3195.632788	183.525175
3196.774744	179.972378
3197.916532	177.190909
3199.058153	176.013986
3200.196638	174.732168
3201.336442	177.487063
3202.477562	175.404895
3203.615548	176.840210
3204.751885	175.269231
3205.888056	174.464685
3207.025545	173.714685
3208.161385	172.963287
3209.298542	171.373427
3210.431086	172.425524
3211.567911	170.785315
3212.700125	175.391259
3213.833657	175.079371
3214.967023	178.912937
3216.097262	178.420979
3217.230300	177.009091
3218.360210	172.403846
3219.491438	169.675874
3220.619540	170.117832
3221.750440	168.234266
3222.879695	166.900699
3224.007307	166.359790
3225.131796	166.445455
3226.260561	168.482517
3227.386204	163.485664
3228.511684	166.649650
3229.635523	165.934266
3230.762157	165.223077
3231.884192	163.479021
3233.007544	164.319580
3234.130734	164.574126
3235.253762	165.412587
3236.375150	163.267832
3237.496377	165.563636
3238.615965	166.061189
3239.735392	165.274825
3240.853182	168.157343
3241.973763	169.813287
3243.091231	169.782867
3244.208538	174.420979
3245.325684	173.713287
3246.441195	174.968531
3247.558021	175.913287
3248.671736	176.142308
3249.788242	173.424825
3250.903112	177.926224
3252.014874	174.861888
3253.126477	169.196154
3254.239395	166.780769
3255.352153	163.665035
3256.461805	160.104545
3257.572772	159.563986
3258.683580	155.315734
3259.792756	154.122727
3260.900301	152.884965
3262.009161	152.019231
3263.117862	154.434266
3264.223461	158.361189
3265.330375	160.863986
3266.435659	164.915385
3267.542257	165.216084
3268.645755	169.298951
3269.750567	169.576573
3270.855222	171.436364
3271.956779	171.250699
3273.058179	170.981818
3274.160893	166.127972
3275.263450	163.750350
3276.362912	161.659091
3277.465156	164.937413
3278.564306	168.171678
3279.661830	164.539860
3280.759200	158.928322
3281.859351	164.906643
3282.956409	168.851049
3284.053313	173.219231
3285.150061	175.452098
3286.242250	179.824126
3287.338689	177.301399
3288.433505	177.884965
3289.528166	178.640909
3290.621206	179.554196
3291.714092	176.487413
3292.805357	169.663287
3293.897935	169.967832
3294.988893	171.172378
3296.078231	165.634615
3297.167416	164.782517
3298.257913	161.589860
3299.345326	162.536364
3300.432587	159.750350
3301.521160	155.023776
3302.609580	154.961538
3303.693453	158.059441
3304.781568	159.728322
3305.866602	164.514336
3306.950020	166.434615
3308.034750	167.746503
3309.117864	167.591958
3310.202290	170.485315
3311.283638	171.160140
3312.366298	171.133916
3313.447344	169.922028
3314.528239	163.969231
3315.607521	164.338462
3316.686652	167.368881
3317.767095	164.740559
3318.844463	166.519580
3319.923143	162.631818
3321.000211	165.979371
3322.077129	163.652098
3323.152437	161.293706
3324.227595	162.726224
3325.304064	161.492308
3326.377462	159.724825
3327.450712	159.286364
3328.525273	159.320280
3329.598224	160.443357
3330.669568	158.255944
3331.742222	158.274476
3332.811809	155.910140
3333.882707	156.457343
3334.951998	153.201399
3336.022600	157.676573
3337.091595	158.525874
3338.158985	157.002448
3339.224768	154.502098
3340.294778	155.040909
3341.361725	156.535315
3342.425610	157.009441
3343.492263	153.381469
3344.557312	155.232867
3345.620757	156.902797
3346.684055	160.155245
3347.747208	163.276573
3348.810214	165.009091
3349.873073	162.139161
3350.934331	158.282168
3351.992532	155.684266
3353.054954	154.841958
3354.114319	158.607692
3355.173540	158.019580
3356.234069	159.199301
3357.290089	164.738811
3358.348874	167.980420
3359.403151	167.835315
3360.460192	165.163287
3361.515634	162.037762
3362.572385	158.207692
3363.627539	155.825874
3364.681095	150.980070
3365.733054	150.855944
3366.787776	151.773077
3367.839448	153.692308
3368.890976	157.244056
3369.943814	159.897902
3370.993604	161.828671
3372.044703	159.293357
3373.092755	160.001748
3374.143568	159.563287
3375.191335	159.225175
3376.238960	158.576573
3377.286443	154.448252
3378.332332	154.982517
3379.379531	154.738811
3380.423686	159.793007
3381.470600	157.697552
3382.515923	157.613287
3383.558204	156.811538
3384.600344	156.559091
3385.643793	154.915385
3386.687100	156.379021
3387.728817	154.981119
3388.770394	150.573077
3389.811829	151.345455
3390.851676	149.972028
3391.889934	150.933217
3392.929500	153.934965
3393.968926	151.216434
3395.006764	151.594406
3396.043015	151.166434
3397.079126	152.918182
3398.116545	150.623077
3399.150931	153.423427
3400.186625	151.358741
3401.222179	151.942308
3402.254701	155.598252
3403.289977	154.662587
3404.322222	152.920979
3405.354329	152.955944
3406.384853	151.127972
3407.416683	149.413636
3408.448375	148.701049
3409.477039	149.697203
3410.505566	147.274825
3411.535399	145.784615
3412.565095	148.867483
3413.591765	151.580070
3414.619741	150.545804
3415.644693	150.175175
3416.672396	145.993706
3417.697074	149.151049
3418.723059	152.668881
3419.747465	159.260140
3420.771733	159.771678
3421.794424	158.328671
3422.816978	154.458392
3423.840838	156.505594
3424.861678	154.282168
3425.882382	149.127023
3426.904392	144.688599
3427.923384	142.071179
3428.942241	142.379046
3429.962404	146.716484
3430.979549	156.187775
