-118.277064	2.832418
-115.607463	-1.747253
-112.940798	-2.157542
-110.274885	0.427772
-107.611905	4.834915
-104.947494	9.890110
-102.286014	14.419580
-99.623105	14.430769
-96.965303	9.388811
-94.306070	3.690909
-91.647586	-1.467133
-88.992027	-4.637762
-86.335039	-7.120280
-83.683148	-9.528671
-81.029828	-7.876923
-78.379427	-3.492308
-75.727598	3.107692
-73.080859	6.174825
-70.432690	8.447552
-67.785265	5.942657
-65.140753	3.513287
-62.494812	2.890909
-59.853954	7.720280
-57.211665	9.261538
-54.572286	7.071329
-51.931478	6.332867
-49.291409	6.581818
-46.656414	8.786014
-44.019989	7.379021
-41.386468	0.899301
-38.751517	1.184615
-36.121633	4.611189
-33.488155	3.262937
-30.859740	7.545455
-28.232059	11.426573
-25.602950	5.331469
-22.978897	-38.763636
-20.351254	-182.805594
-17.728666	-419.702098
-15.106808	-270.580420
-12.485681	674.784615
-9.865285	2014.639161
-7.247776	3099.794406
-4.628839	3829.218182
-2.012788	4203.551049
0.602536	4223.988811
3.217131	3886.068531
5.828845	3199.432168
8.441986	2192.995804
11.050095	960.682517
13.661784	-158.458741
16.268443	-598.879720
18.876530	-342.527273
21.483893	-35.528671
24.086231	3.974825
26.692147	6.878322
29.293042	10.272727
31.895364	11.318881
34.492668	11.050350
37.093548	11.379021
39.689414	9.377622
42.286707	0.096503
44.883281	-5.282517
47.474846	-1.552448
50.067839	0.872727
52.657972	4.548252
55.249531	9.443357
57.838231	11.025175
60.428359	10.218182
63.013487	10.029371
65.600043	9.848951
68.185884	9.257343
70.768872	5.275524
73.353287	4.597203
75.930572	7.103497
78.511424	8.524476
81.089427	10.745455
83.666720	9.707692
86.245440	11.300699
88.819177	12.583217
91.394341	12.194406
93.966662	9.444755
96.538276	8.190210
99.107049	7.944056
101.677249	6.566434
104.244610	12.079720
106.813398	18.625175
109.379349	20.060140
111.942464	22.917483
114.509137	20.605594
117.066587	26.632168
119.629723	29.598601
122.187900	34.351049
124.749631	49.422378
127.306405	78.829371
129.864605	125.606993
132.417853	191.496503
134.970402	270.935664
137.526503	355.630769
140.077655	438.573427
142.628110	524.230769
145.177867	594.553846
147.724805	657.146853
150.271048	696.300699
152.818716	722.451748
155.365688	732.362238
157.907724	735.096503
160.449068	731.366434
162.989718	726.602797
165.531793	723.032168
168.071058	715.718881
170.607513	705.737063
173.143278	710.706294
175.680468	710.342657
178.216967	715.202797
180.750660	714.418182
183.281549	714.939860
185.811750	713.353846
188.343376	709.481119
190.872202	696.693706
193.398228	690.448951
195.923568	690.111888
198.450333	682.433566
200.974302	679.639161
203.497585	686.903497
206.020184	686.391608
208.539990	692.418182
211.059113	693.226573
213.577553	694.490909
216.097418	694.900699
218.610280	692.738462
221.126674	689.636364
223.642387	691.054545
226.153209	692.851748
228.665456	696.969231
231.174920	705.756643
233.683706	708.335664
236.191814	712.095105
238.701346	717.637762
241.205997	719.977622
243.709972	719.482517
246.215371	728.067133
248.715895	734.720280
251.219942	742.314685
253.717019	745.415385
256.217618	750.765035
258.715446	749.233566
261.212601	754.332867
263.709084	753.039161
266.200703	752.706294
268.695841	749.397203
271.188214	748.476923
273.679916	747.137063
276.168855	757.181818
278.659217	751.767832
281.146818	754.809790
283.631659	760.085315
286.120014	769.004196
288.601431	774.090909
291.086361	787.405594
293.566445	794.065734
296.050042	792.825175
298.528797	787.860140
301.008974	785.397203
303.486400	786.051748
305.963162	796.524476
308.439260	812.128671
310.912610	860.237762
313.385299	921.433566
315.857326	977.303497
318.328691	1016.388811
320.797313	1040.320280
323.265275	1045.265734
325.734660	1026.889510
328.199222	993.703497
330.667287	946.248951
333.130533	901.413986
335.593122	870.109091
338.055053	847.267133
340.516328	847.569231
342.974869	851.328671
345.434832	853.667133
347.892063	853.869930
350.348639	856.023776
352.804560	854.311888
355.257753	854.864336
357.712368	856.479720
360.162181	857.609790
362.615490	865.514685
365.064000	866.714685
367.511860	864.646154
369.961141	865.163636
372.405629	864.220979
374.851539	861.991608
377.296800	859.338462
379.739342	857.969231
382.181236	853.002797
384.622482	847.520280
387.061013	846.678322
389.500966	848.240559
391.938205	847.124476
394.372732	841.187413
396.810747	839.605594
399.243985	839.138462
401.678645	841.990210
404.108532	843.307692
406.541904	844.678322
408.970506	847.525874
411.398466	846.721678
413.827847	842.444755
416.252464	841.461538
418.678501	843.320280
421.103899	845.344056
423.528656	843.274126
425.948654	847.193007
428.370074	850.391608
430.788797	857.945455
433.208941	859.538462
435.626390	860.303497
438.045259	866.587413
440.461435	864.415385
442.872864	863.439161
445.287769	861.679720
447.699984	861.076923
450.111565	858.867133
452.522513	854.746853
454.930773	852.965035
457.338402	851.615385
459.745398	851.391608
462.151762	844.584615
464.555445	833.089510
466.958497	826.186014
469.360919	811.468531
471.762711	805.941259
474.161825	800.393007
476.562359	795.946853
478.962264	796.630769
481.357447	803.467133
483.756095	809.546853
486.150024	817.786014
488.543327	814.356643
490.936004	804.916084
493.328056	782.885315
495.721527	761.538462
498.110285	733.044755
500.496377	705.055944
502.883889	674.613986
505.270777	640.840559
507.655002	610.316084
510.040646	586.513287
512.423627	563.847552
514.803948	553.320280
517.185688	540.833566
519.564770	533.974825
521.945269	526.808392
524.323111	522.549650
526.698298	519.510490
529.072867	517.482517
531.448855	512.706294
533.822189	506.002797
536.196942	497.202797
538.567008	492.523077
540.936459	487.289510
543.307329	484.306294
545.673517	477.669930
548.041124	472.532867
550.406085	462.847552
552.770434	455.753846
555.134169	455.542657
557.499322	451.935664
559.859803	449.344056
562.221701	448.402797
564.580960	445.211189
566.937580	448.081119
569.297646	449.153846
571.651020	449.559441
574.007839	447.893706
576.362023	441.061538
578.715598	435.113287
581.068565	433.622378
583.418901	427.462937
585.770654	417.538462
588.115729	412.755245
590.466269	410.734266
592.810136	405.524476
595.159464	411.637762
597.504143	415.876923
599.846198	418.211189
602.189670	416.762238
604.530519	417.820979
606.870765	420.825175
609.208391	422.581818
611.549452	413.769231
613.885876	407.864336
616.223716	402.472727
618.558938	395.321678
620.891545	389.520280
623.225569	390.297902
625.556978	388.081119
627.887789	384.769231
630.218002	381.906294
632.547618	383.163636
634.872610	380.029371
637.203044	378.128671
639.528856	370.813986
641.852062	364.784615
644.176684	361.054545
646.498700	354.865734
648.820122	354.753846
651.138941	350.188811
653.459176	350.260140
655.778818	349.079720
658.095859	348.572028
660.412309	346.048951
662.726160	343.218182
665.041426	342.096503
667.354096	343.099301
669.668181	340.179021
671.977667	340.520280
674.288567	337.584615
676.596875	340.893706
678.904595	340.675524
681.213730	344.033566
683.518272	347.765035
685.822228	346.580420
688.125597	341.467133
690.430381	336.299301
692.730579	333.868531
695.032192	324.246154
697.333219	317.483916
699.629665	314.220979
701.927525	309.053147
704.224803	311.965035
706.521496	316.183217
708.813614	316.895105
711.109143	316.759441
713.400099	316.183217
715.692469	317.342657
717.982263	320.180420
720.271478	320.339860
722.560113	318.200000
724.846175	320.613986
727.133651	320.577622
729.418557	324.860140
731.702884	331.025175
733.984644	333.109091
736.267817	332.408392
738.550413	338.205594
740.828453	340.892308
743.107907	347.492308
745.386786	350.236364
747.665090	348.317483
749.938843	350.316084
752.214011	346.504895
754.488605	345.619580
756.760640	353.151049
759.034088	354.370629
761.304978	353.834965
763.573312	354.036364
765.843059	355.317483
768.110251	354.878322
770.376873	360.548252
772.642926	360.359441
774.906427	361.233566
777.171340	364.156643
779.435685	367.756643
781.695499	372.780420
783.956727	380.953846
786.217387	378.507692
788.475500	373.367832
790.731070	371.551049
792.990029	369.931469
795.242490	375.955245
797.500318	379.064336
799.753627	375.934266
802.004395	371.085315
804.256576	371.478322
806.506219	371.187413
808.757273	362.565035
811.003816	356.055944
813.251772	348.239161
815.497192	343.542657
817.744025	343.958042
819.990295	343.767832
822.232062	346.661538
824.477211	343.314685
826.715888	336.103497
828.957948	331.685315
831.195509	326.430769
833.434481	319.465734
835.670928	312.001399
837.908785	310.193007
840.144117	307.858741
842.376925	304.304895
844.611145	306.008392
846.842843	304.089510
849.073986	310.439161
851.304574	313.390210
853.534608	312.844755
855.764087	311.264336
857.989086	310.137063
860.217458	310.773427
862.441352	311.944056
864.666656	312.023776
866.887485	307.605594
869.111687	307.243357
871.331415	310.341259
873.552553	303.560839
875.773141	305.969231
877.991220	305.823776
880.210708	297.588811
882.425730	298.744056
884.640204	304.819580
886.854131	310.100699
889.067510	311.903497
891.280343	309.794406
893.492628	311.902098
895.702412	318.779021
897.911650	318.556643
900.120342	311.306294
902.326536	309.966434
904.534139	313.502098
906.739245	305.695105
908.943807	307.276923
911.145874	312.841958
913.349350	321.570629
915.550332	319.995804
917.750772	311.455944
919.952621	316.703497
922.148079	315.289510
924.346895	312.860140
926.541274	312.847552
928.739010	316.058741
930.932310	321.991608
933.127018	316.704895
935.319241	321.801399
937.510926	330.521678
939.702073	333.296503
941.890737	335.507692
944.078864	328.841958
946.264511	331.265734
948.453511	332.897902
950.638086	338.230769
952.822127	340.984615
955.009518	350.195804
957.188606	356.194406
959.371044	358.735664
961.552947	369.855944
963.732377	376.363636
965.909334	381.030769
968.087699	390.355245
970.267470	388.633566
972.440893	393.046154
974.617663	402.482517
976.790025	402.100699
978.963795	407.383217
981.133161	421.549650
983.305871	414.302098
985.476115	431.344056
987.645831	444.507692
989.815018	441.818182
991.979808	444.697902
994.147940	440.567832
996.311676	446.220979
998.476820	457.693706
1000.639504	461.579021
1002.801663	462.724476
1004.961364	467.759441
1007.120542	470.282517
1009.281126	464.401399
1011.439255	489.579021
1013.596860	482.113287
1015.753942	470.787413
1017.910501	471.774825
1020.062680	473.637762
1022.216266	481.612587
1024.369330	493.718881
1026.519945	491.165035
1028.671966	490.930070
1030.819615	498.878322
1032.970594	507.647552
1035.117204	524.706294
1037.263294	527.630769
1039.408866	525.295105
1041.555842	523.565035
1043.696531	532.990210
1045.840548	536.100699
1047.982126	541.142657
1050.123186	549.588811
1052.265651	544.110490
1054.401837	538.890909
1056.541349	539.976224
1058.676505	553.766434
1060.814986	562.759441
1062.949114	555.552448
1065.082728	554.707692
1067.217746	549.255944
1069.348415	549.043357
1071.480490	532.872727
1073.610134	536.542657
1075.739267	523.809790
1077.867889	518.283916
1079.995999	501.254545
1082.121683	489.462937
1084.246857	491.032168
1086.373434	486.341259
1088.495675	470.394406
1090.619320	458.425175
1092.738630	455.440559
1094.863169	443.401399
1096.981464	435.286713
1099.101162	446.267133
1101.218442	437.932867
1103.335216	450.997203
1105.451483	441.532867
1107.565335	429.793007
1109.680590	428.247552
1111.791523	436.387413
1113.905768	426.454545
1116.015692	428.707692
1118.127019	423.941259
1120.237843	417.846154
1122.344350	411.286713
1124.454166	405.903497
1126.559668	401.055944
1128.666574	399.846154
1130.767264	384.107692
1132.873165	376.230769
1134.974758	380.302098
1137.077754	381.345455
1139.180249	381.074126
1141.276538	389.102098
1143.378033	388.517483
1145.475226	393.307692
1147.571920	393.600000
1149.668117	391.307692
1151.763815	401.299301
1153.859016	391.793007
1155.951820	389.809790
1158.046026	389.030769
1160.134041	378.625175
1162.227254	378.997203
1164.314279	389.069930
1166.404604	393.114685
1168.490640	397.613986
1170.579974	401.193007
1172.663127	401.509091
1174.747683	395.667133
1176.833639	397.465734
1178.915315	382.503497
1180.998391	376.662937
1183.079082	365.033566
1185.159282	353.570629
1187.238990	359.862937
1189.318207	368.425175
1191.395041	369.601399
1193.469495	369.664336
1195.547241	376.627972
1197.620716	383.602797
1199.695593	383.776224
1201.766202	376.667133
1203.838212	365.862937
1205.907846	360.510490
1207.978881	354.678322
1210.049428	351.941259
1212.115715	358.553846
1214.183401	362.037762
1216.248716	362.699301
1218.315431	355.697902
1220.377890	364.931469
1222.443635	368.409790
1224.505125	367.643357
1226.568015	361.504895
1228.628538	360.916084
1230.688578	362.888112
1232.748134	362.061538
1234.805326	365.724476
1236.862035	367.029371
1238.916382	357.988811
1240.974009	357.861538
1243.029274	357.948252
1245.080298	369.387413
1247.132723	373.401399
1249.184667	372.195804
1251.234253	372.275524
1253.283360	373.986014
1255.331988	380.223776
1257.380138	384.155245
1259.427810	391.200000
1261.471251	383.043357
1263.517967	374.455944
1265.562331	376.404196
1267.606217	379.777622
1269.647753	387.338462
1271.686939	379.795804
1273.729397	371.172028
1275.767634	372.813986
1277.807268	369.037762
1279.846428	380.204196
1281.881370	384.723077
1283.917710	386.897902
1285.951705	391.146853
1287.987099	399.724476
1290.018279	404.783217
1292.050858	414.339860
1294.082964	422.781818
1296.112730	424.586014
1298.143894	425.496503
1300.170850	438.156643
1302.199204	443.093706
1304.223354	455.613986
1306.250769	456.861538
1308.273981	466.155245
1310.298591	476.879720
1312.320866	482.490909
1314.344539	490.834965
1316.365879	510.037762
1318.386752	515.637762
1320.407157	530.918881
1322.423369	542.251748
1324.440978	562.937063
1326.456259	578.144056
1328.474799	596.688112
1330.489149	606.531469
1332.501174	617.222378
1334.516457	619.935664
1336.527554	625.081119
1338.540047	632.741259
1340.548358	635.156643
1342.559925	624.479720
1344.565453	619.327273
1346.574235	608.163636
1348.578841	595.689510
1350.586700	589.583217
1352.594097	580.365035
1354.595462	559.335664
1356.598225	550.255944
1358.600528	539.227972
1360.602370	526.948252
1362.603754	516.346853
1364.602823	506.892308
1366.601434	496.048951
1368.599587	484.093706
1370.597282	471.079720
1372.590813	459.723077
1374.585741	461.180420
1376.580212	451.864336
1378.574226	439.832168
1380.565933	437.229371
1382.557184	425.653147
1384.546130	423.302098
1386.536471	420.648951
1388.526357	416.706294
1390.513940	409.194406
1392.501069	399.772028
1394.485896	392.720280
1396.472118	396.766434
1398.456039	397.215385
1400.439508	391.058741
1402.422525	391.517483
1404.403244	384.812587
1406.385357	381.867133
1408.365173	388.307692
1410.344539	385.475524
1412.319766	382.037762
1414.298231	376.201399
1416.274403	374.264336
1418.250125	377.601399
1420.225398	379.925874
1422.198381	381.916084
1424.170915	374.762238
1426.143001	378.320280
1428.114639	372.244755
1430.082150	367.332867
1432.054734	365.444755
1434.019512	362.029371
1435.989363	355.895105
1437.955089	357.314685
1439.922209	360.005594
1441.887045	354.369231
1443.847761	350.928671
1445.813545	353.011189
1447.773374	341.781818
1449.734596	346.841958
1451.697211	350.015385
1453.655711	345.462937
1455.613769	356.436364
1457.571384	358.455944
1459.528558	357.902098
1461.483456	369.065734
1463.439746	367.318881
1465.393762	358.653147
1467.347338	355.546853
1469.298641	349.138462
1471.251336	343.366434
1473.201760	343.723077
1475.151745	345.703497
1477.101291	345.711888
1479.048567	360.005594
1480.993577	358.351049
1482.939979	363.075524
1484.885943	372.367832
1486.831470	376.425175
1488.774731	371.822378
1490.717556	369.191608
1492.658118	365.384615
1494.600072	359.949650
1496.539763	353.641958
1498.479019	351.932867
1500.417841	353.906294
1502.354403	355.862937
1504.292355	354.030769
1506.228050	359.148252
1508.163311	358.054545
1510.096315	366.310490
1512.028887	365.923077
1513.961027	370.590210
1515.892735	369.767832
1517.822190	369.552448
1519.753034	376.247552
1521.683448	377.311888
1523.609789	382.457343
1525.537520	382.317483
1527.463001	388.009790
1529.388053	389.260140
1531.312676	395.172028
1533.236870	405.464336
1535.158817	409.988811
1537.082153	414.544056
1539.003244	420.360839
1540.922090	425.776224
1542.842326	430.183217
1544.760318	429.848951
1546.677884	443.966434
1548.593209	451.180420
1550.509922	461.425175
1552.422581	469.555245
1554.338444	487.457343
1556.252068	495.383217
1558.163453	510.411189
1560.076227	515.030769
1561.984953	535.537063
1563.895067	547.504895
1565.804758	561.959441
1567.714026	575.493706
1569.621059	584.818182
1571.525860	586.609790
1573.432050	584.834965
1575.336009	585.840559
1577.239546	576.944056
1579.142662	560.090909
1581.043550	546.630769
1582.945826	527.566434
1584.845873	528.458741
1586.747309	523.888112
1588.644710	521.387413
1590.541694	517.579021
1592.438259	512.317483
1594.336211	509.225175
1596.228329	502.867133
1598.123641	504.685315
1600.018534	491.365035
1601.911207	482.672727
1603.803462	472.995804
1605.693498	459.362238
1607.583118	452.125874
1609.472323	449.005594
1611.361112	447.444755
1613.247685	446.888112
1615.135645	433.805594
1617.019588	422.406993
1618.904918	423.623776
1620.789835	421.373427
1622.672538	415.053147
1624.556628	400.367832
1626.436706	376.874126
1628.318171	349.909091
1630.197426	332.917483
1632.078067	321.634965
1633.952905	307.581818
1635.832723	306.995804
1637.708536	304.627972
1639.583940	310.048951
1641.460729	325.723077
1643.331721	333.246154
1645.205896	331.205594
1647.076071	335.149650
1648.949427	332.012587
1650.820580	311.861538
1652.689531	295.528671
1654.559868	286.121678
1656.426211	277.703497
1658.293941	291.292308
1660.159471	289.955245
1662.026386	292.650350
1663.889313	303.351049
1665.753625	311.423776
1667.615742	316.401399
1669.477453	334.825175
1671.340549	330.546853
1673.201451	316.931469
1675.060159	318.226573
1676.918465	322.293706
1678.778154	318.749650
1680.632077	316.573427
1682.489173	303.004196
1684.345865	309.916084
1686.198582	304.686713
1688.054470	299.588811
1689.906384	298.942657
1691.757897	296.012587
1693.609009	291.769231
1695.459720	290.349650
1697.310031	295.523077
1699.158158	303.897902
1701.007668	309.937063
1702.851430	305.386014
1704.700142	306.925874
1706.543107	322.551049
1708.389238	323.591608
1710.231408	327.163636
1712.076742	319.352448
1713.916336	310.208392
1715.757314	296.083916
1717.599676	292.960839
1719.438080	286.386014
1721.277868	288.148252
1723.115481	278.016783
1724.952698	262.248951
1726.787742	260.443357
1728.624169	276.612587
1730.458424	279.591608
1732.292285	285.454545
1734.125751	287.581818
1735.955271	293.090909
1737.787950	303.580420
1739.616685	317.309091
1741.448578	314.675524
1743.276528	320.867133
1745.104086	311.746853
1746.931253	306.627972
1748.758028	301.159441
1750.584411	306.553846
1752.406858	298.107692
1754.232459	293.791608
1756.054126	295.110490
1757.877175	291.054545
1759.698063	288.300699
1761.518561	281.862937
1763.340441	275.307692
1765.156621	285.493706
1766.975953	286.798601
1768.791358	297.328671
1770.609914	303.141259
1772.424544	301.534266
1774.238787	295.979021
1776.052644	286.903497
1777.866114	288.394406
1779.677430	282.669930
1781.490128	266.057343
1783.302439	255.275524
1785.110833	253.486713
1786.920608	256.531469
1788.726467	264.918881
1790.535473	269.970629
1792.340565	275.916084
1794.147037	273.233566
1795.953126	265.474126
1797.755305	259.696503
1799.560627	261.583217
1801.362041	267.471329
1803.164835	261.769231
1804.963724	254.300699
1806.763992	256.717483
1808.563880	260.566434
1810.361625	269.689510
1812.158990	268.973427
1813.955974	277.914685
1815.752578	278.413986
1817.547043	277.707692
1819.342888	280.682517
1821.133077	281.260140
1822.928163	285.057343
1824.717596	270.290909
1826.510167	258.650350
1828.300602	254.619580
1830.088902	251.731469
1831.880338	251.395804
1833.666129	246.309091
1835.453298	249.137063
1837.238337	257.813986
1839.026508	265.015385
1840.810794	266.783217
1842.592951	266.827972
1844.376487	270.577622
1846.157894	266.806993
1847.940679	264.131469
1849.719585	258.325874
1851.499869	258.244755
1853.278028	260.405594
1855.057564	258.206993
1856.834976	260.958042
1858.610264	258.658741
1860.386931	255.693706
1862.161475	255.187413
1863.937396	259.910490
1865.707698	272.349650
1867.481127	272.124476
1869.252436	266.965035
1871.023374	274.538462
1872.795689	279.071329
1874.562392	284.127273
1876.332219	279.707692
1878.098183	268.233566
1879.867271	259.847552
1881.632497	249.688112
1883.397355	244.018182
1885.163589	248.339860
1886.925965	252.360839
1888.687974	250.539860
1890.449616	252.984615
1892.210890	263.412587
1893.971798	277.307692
1895.732338	282.430769
1897.490770	276.972028
1899.248835	272.023776
1901.004793	273.132867
1902.762127	265.805594
1904.519095	259.416783
1906.273958	253.804196
1908.026715	251.314685
1909.779109	247.766434
1911.532879	244.739860
1913.284545	247.917483
1915.034108	255.658741
1916.785048	250.569231
1918.535624	254.408392
1920.282362	261.499301
1922.030475	266.019580
1923.776489	266.125874
1925.523879	266.351049
1927.269170	273.030769
1929.012364	278.798601
1930.756934	272.777622
1932.499407	272.779021
1934.241520	271.739860
1935.983274	270.231469
1937.724667	266.657343
1939.463967	272.216084
1941.202908	279.370629
1942.941490	277.262238
1944.677980	286.391608
1946.414113	293.520979
1948.151620	295.784615
1949.885306	291.098601
1951.620366	290.927273
1953.353337	285.680420
1955.085952	289.770629
1956.818210	290.203497
1958.550112	282.016783
1960.279928	282.734266
1962.007660	284.302098
1963.736766	285.998601
1965.465516	288.960839
1967.192183	283.939860
1968.918496	277.738462
1970.646182	274.702098
1972.368333	276.770629
1974.093584	268.406993
1975.815028	280.924476
1977.539572	276.595804
1979.262037	268.471329
1980.980698	267.351049
1982.702458	268.920280
1984.420416	272.144056
1986.139748	272.601399
1987.855279	271.061538
1989.575632	271.972028
1991.292186	273.232168
1993.004943	267.394406
1994.720796	268.632168
1996.434577	282.177622
1998.148008	279.310490
1999.859367	280.980420
2001.572100	282.152448
2003.281041	286.386014
2004.993076	291.925874
2006.699601	293.197203
2008.409219	292.770629
2010.116769	295.348252
2011.823972	289.879720
2013.529109	287.738462
2015.233899	290.026573
2016.940061	289.756643
2018.642441	279.780420
2020.346193	275.524476
2022.047882	269.295105
2023.749225	267.230769
2025.450223	266.681119
2027.149161	261.634965
2028.849470	263.464336
2030.546003	266.167832
2032.243908	264.716084
2033.939755	272.951049
2035.638687	275.605594
2037.332133	277.282517
2039.026950	275.068531
2040.721424	278.113287
2042.412130	281.893706
2044.105920	284.269930
2045.795943	286.429371
2047.487337	287.016783
2049.176678	289.678322
2050.867389	292.011189
2052.554338	290.597203
2054.240946	292.134266
2055.928925	294.318881
2057.613144	295.190210
2059.298733	291.188811
2060.983983	287.962238
2062.667185	287.612587
2064.351757	284.144056
2066.030865	276.745455
2067.714759	275.881119
2069.393193	275.934266
2071.074704	281.156643
2072.752463	278.623776
2074.429886	279.260140
2076.108678	280.436364
2077.785427	278.874126
2079.460135	273.450350
2081.136212	272.172028
2082.810249	273.412587
2084.483950	269.388811
2086.157316	261.749650
2087.828644	263.008392
2089.499637	270.819580
2091.170296	274.827972
2092.840621	269.980420
2094.510611	275.930070
2096.178566	275.418182
2097.846188	277.279720
2099.511776	276.937063
2101.178732	278.502098
2102.843655	276.344056
2104.508245	270.657343
2106.170804	277.611189
2107.834732	282.234965
2109.496628	285.679720
2111.158193	285.795804
2112.819428	285.965035
2114.478633	288.893706
2116.137509	285.739860
2117.796054	285.987413
2119.454270	284.532867
2121.108763	284.461538
2122.766320	280.732867
2124.423547	281.338462
2126.077054	286.264336
2127.731928	280.236364
2129.383083	271.072727
2131.037301	277.619580
2132.687801	274.069930
2134.339669	270.591608
2135.986128	274.447552
2137.637341	275.218182
2139.284842	282.250350
2140.933709	288.307692
2142.580557	287.548252
2144.227080	288.925874
2145.873277	289.744056
2147.515765	289.065734
2149.161312	290.367832
2150.803152	292.520280
2152.448049	294.220979
2154.089241	296.279720
2155.730109	297.149650
2157.370654	292.506294
2159.009186	296.630769
2160.649084	289.647552
2162.285282	285.662937
2163.922846	283.344056
2165.560088	288.892308
2167.195320	293.276923
2168.830230	285.386014
2170.464819	279.062937
2172.099087	283.479720
2173.729661	280.032168
2175.363286	276.676923
2176.993220	276.100699
2178.624520	279.144056
2180.253814	271.777622
2181.882789	272.474126
2183.511444	271.998601
2185.139780	278.535664
2186.766113	280.924476
2188.392128	277.938462
2190.016142	277.531469
2191.641521	277.717483
2193.264899	274.237762
2194.889642	272.725874
2196.510703	271.345455
2198.131449	272.465734
2199.753558	267.233566
2201.373670	260.100699
2202.991786	266.223776
2204.609586	275.384615
2206.227070	274.939860
2207.844239	284.387413
2209.461093	282.338462
2211.077632	279.616783
2212.692177	280.433566
2214.304731	272.227972
2215.918648	259.987413
2217.530573	254.977622
2219.143863	252.323077
2220.755161	248.830769
2222.364471	252.137063
2223.975143	254.935664
2225.583827	256.948252
2227.192199	265.654545
2228.798583	264.584615
2230.406331	266.509091
2232.012092	268.097902
2233.617543	259.330070
2235.221008	259.629371
2236.825836	267.118881
2238.428680	269.542657
2240.029541	274.780420
2241.631765	274.467133
2243.232007	274.991608
2244.833611	277.272727
2246.431562	278.509091
2248.030876	275.953846
2249.628210	278.258741
2251.225236	276.499301
2252.823623	274.437762
2254.418362	270.939860
2256.011125	266.709091
2257.605249	267.081119
2259.200736	270.176224
2260.792577	263.966434
2262.384112	265.302098
2263.977008	267.853147
2265.564595	274.262937
2267.156879	280.018182
2268.743855	289.405594
2270.333860	286.636364
2271.918560	278.190210
2273.507954	276.509091
2275.092045	276.935664
2276.677498	279.899301
2278.260982	277.916084
2279.847491	270.481119
2281.430367	277.163636
2283.012939	275.697203
2284.595209	277.816783
2286.173848	276.585315
2287.755512	278.335664
2289.333547	271.127972
2290.914605	263.706294
2292.492036	267.562937
2294.067504	267.348252
2295.645994	266.266434
2297.220859	265.121678
2298.795425	260.669231
2300.369689	272.299301
2301.943653	268.782517
2303.517317	267.353846
2305.090680	260.474126
2306.660425	266.664336
2308.229871	266.144056
2309.802336	263.054545
2311.369526	262.321678
2312.939733	263.837762
2314.506327	267.450350
2316.074279	265.793007
2317.640277	270.976224
2319.205977	270.890909
2320.771379	270.913287
2322.334828	278.861538
2323.899636	285.703497
2325.460835	296.846154
2327.025049	301.949650
2328.584002	302.482517
2330.145968	301.316084
2331.705984	297.655944
2333.265704	286.765035
2334.823475	280.619580
2336.380952	272.920280
2337.938133	263.794406
2339.493368	267.327273
2341.048308	269.704895
2342.602955	273.181818
2344.157308	277.095105
2345.711367	269.993007
2347.265133	264.172028
2348.816954	256.267133
2350.366832	253.102098
2351.919718	246.886713
2353.467362	248.316084
2355.018013	241.685315
2356.565074	250.162238
2358.113492	246.692308
2359.661618	259.930070
2361.206157	260.386014
2362.752053	261.165035
2364.296010	250.979021
2365.841325	254.206993
2367.383055	253.594406
2368.926143	258.643357
2370.467294	260.067133
2372.008156	249.544056
2373.548729	249.630769
2375.089013	250.759441
2376.629008	253.146853
2378.165424	263.337063
2379.704842	259.572028
2381.240683	256.531469
2382.777880	258.374825
2384.311503	261.735664
2385.848125	262.504895
2387.382817	261.472727
2388.915578	255.430769
2390.448054	249.116084
2391.978601	254.613986
2393.512146	251.844755
2395.040480	257.793007
2396.570170	267.141259
2398.099575	276.503497
2399.628695	270.545455
2401.157529	282.432168
2402.681159	275.334266
2404.209424	276.973427
2405.732486	270.634965
2407.260183	262.226573
2408.781039	257.886713
2410.306529	260.797203
2411.828459	251.113287
2413.351743	253.523077
2414.873107	265.132867
2416.392551	268.025175
2417.913350	270.644755
2419.432230	279.618182
2420.950828	271.889510
2422.467509	288.634965
2423.985545	292.739860
2425.503299	301.669930
2427.017501	298.576224
2428.531423	302.570629
2430.045066	295.713287
2431.560062	288.815385
2433.071511	287.745455
2434.584313	278.907692
2436.095203	276.724476
2437.605813	264.620979
2439.114512	256.572028
2440.626198	265.219580
2442.134340	271.458741
2443.642203	263.980420
2445.149789	262.344056
2446.653835	269.337063
2448.160865	264.752448
2449.665987	261.876923
2451.170832	261.865734
2452.673770	254.991608
2454.176431	259.176224
2455.678816	251.998601
2457.179296	252.212587
2458.681129	261.223776
2460.181058	267.622378
2461.680711	265.008392
2463.180089	278.516084
2464.677564	285.934266
2466.173137	279.815385
2467.671690	289.739860
2469.166715	286.457343
2470.663092	281.977622
2472.155943	280.139860
2473.650146	267.862937
2475.144077	256.549650
2476.634483	252.493706
2478.127867	235.815385
2479.619353	235.883916
2481.108942	231.541259
2482.598259	234.338462
2484.085680	235.241958
2485.576077	242.625175
2487.062955	248.432168
2488.551186	252.200000
2490.035899	262.994406
2491.520342	271.437762
2493.006137	278.029371
2494.490039	288.071329
2495.975293	272.853147
2497.455413	282.244755
2498.938505	284.188811
2500.419708	282.837762
2501.900640	272.285315
2503.379684	255.188811
2504.858460	251.208392
2506.336967	250.409790
2507.815205	255.676923
2509.293176	260.753846
2510.767641	268.335664
2512.245075	266.069930
2513.719006	249.595804
2515.194288	267.784615
2516.669302	267.911888
2518.140815	271.430769
2519.613679	267.240559
2521.084660	259.282517
2522.556991	262.103497
2524.024208	251.282517
2525.494392	244.724476
2526.962694	232.903497
2528.430732	231.865734
2529.898505	220.763636
2531.366013	220.587413
2532.833257	238.325874
2534.297008	235.951049
2535.762109	249.662937
2537.225333	250.446154
2538.689906	247.909091
2540.150991	251.106294
2541.613425	250.054545
2543.075596	257.405594
2544.534280	248.896503
2545.997537	250.794406
2547.455697	251.158042
2548.915206	250.672727
2550.369622	252.805594
2551.828608	248.390210
2553.285721	256.441958
2554.740964	245.369231
2556.195946	249.222378
2557.649058	255.388811
2559.103519	267.261538
2560.556111	276.751049
2562.008443	269.457343
2563.458907	272.648951
2564.912327	278.071329
2566.360665	274.255944
2567.811959	277.758042
2569.261386	278.441958
2570.707342	276.892308
2572.156252	260.976224
2573.601691	264.142657
2575.048479	256.086713
2576.493403	254.595804
2577.938070	252.476923
2579.384084	238.793007
2580.826631	243.552448
2582.270526	248.825175
2583.710956	248.474126
2585.152734	248.200000
2586.592652	254.787413
2588.033917	255.422378
2589.471720	260.765035
2590.912473	266.862937
2592.348163	265.573427
2593.786803	266.213986
2595.223586	263.216783
2596.658512	265.018182
2598.096387	271.794406
2599.529204	276.527273
2600.963368	277.058741
2602.395677	281.945455
2603.829334	284.068531
2605.261136	289.485315
2606.692686	290.391608
2608.123982	283.737063
2609.553427	278.790210
2610.982619	272.351049
2612.409960	264.914685
2613.838648	267.551049
2615.267083	258.738462
2616.692072	256.930070
2618.118406	257.724476
2619.542892	253.681119
2620.968724	246.892308
2622.391112	250.469930
2623.814846	254.369231
2625.236734	252.061538
2626.658371	257.195804
2628.078164	260.893706
2629.499301	263.776224
2630.920189	265.951049
2632.337639	262.949650
2633.758028	276.302098
2635.174980	283.107692
2636.591684	282.524476
2638.008139	275.260140
2639.424346	270.255944
2640.840304	270.611189
2642.254422	268.703497
2643.668293	270.346853
2645.080324	269.619580
2646.493700	270.703497
2647.903646	271.128671
2649.316528	284.374825
2650.725981	300.497902
2652.135188	300.264336
2653.542559	300.594406
2654.952864	287.032168
2656.361333	290.058741
2657.767967	287.906294
2659.174356	290.907692
2660.578911	290.995804
2661.984810	299.728671
2663.388876	312.744056
2664.792698	322.327273
2666.196275	331.201399
2667.598021	333.432168
2669.001110	321.441958
2670.400781	320.832168
2671.801796	306.755245
2673.199395	299.057343
2674.599923	286.365035
2675.997037	290.963636
2677.395494	293.104895
2678.792123	298.829371
2680.188511	307.695105
2681.584656	317.176224
2682.978975	318.237762
2684.374637	325.914685
2685.766889	330.590210
2687.160485	324.311888
2688.552256	318.668531
2689.945369	314.180420
2691.336659	316.125874
2692.726126	321.321678
2694.115354	316.331469
2695.504341	310.682517
2696.894671	316.432168
2698.280016	320.802797
2699.668286	313.223776
2701.054735	302.313287
2702.440945	303.544056
2703.826916	289.604196
2705.209489	293.790210
2706.593404	296.963636
2707.977080	301.460140
2709.360519	301.966434
2710.740562	303.195804
2712.121947	305.813986
2713.501516	303.447552
2714.882427	295.721678
2716.261523	290.907692
2717.638805	282.418182
2719.017428	285.120280
2720.394237	282.141259
2721.770811	276.927273
2723.147149	281.853147
2724.521675	276.461538
2725.897542	272.713287
2727.270022	267.798601
2728.645419	261.134266
2730.015854	242.904895
2731.387631	246.572028
2732.759174	250.142657
2734.128908	247.709091
2735.499982	246.858741
2736.869249	245.383217
2738.238282	236.048951
2739.605508	242.053147
2740.972502	242.886713
2742.339263	247.970629
2743.705791	248.874126
2745.070515	246.055944
2746.435006	245.454545
2747.799265	255.837762
2749.163293	257.457343
2750.527088	261.600000
2751.887510	258.674126
2753.250843	257.054545
2754.609233	257.660140
2755.970533	262.096503
2757.328462	263.685315
2758.689301	259.643357
2760.048339	248.183217
2761.404009	241.939860
2762.762588	240.079720
2764.117799	239.772028
2765.472781	238.082517
2766.825966	239.268531
2768.182058	229.469930
2769.534786	243.213986
2770.887285	250.941259
2772.239557	252.925874
2773.593166	254.854545
2774.943414	252.548252
2776.291869	249.274126
2777.643228	253.914685
2778.991228	254.274126
2780.340567	255.127273
2781.688113	250.394406
2783.035432	248.962238
2784.382525	234.311888
2785.727827	237.864336
2787.072903	239.777622
2788.417753	236.290909
2789.762377	234.030769
2791.103648	232.886713
2792.446258	233.001399
2793.788643	236.019580
2795.130802	232.836364
2796.469612	244.998601
2797.811322	249.113287
2799.149683	254.155245
2800.489382	248.011189
2801.827295	241.089510
2803.163424	242.404196
2804.499330	240.541259
2805.836572	235.193007
2807.172031	228.934266
2808.507267	232.240559
2809.840721	236.406993
2811.175511	236.938462
2812.506960	244.662937
2813.841305	244.706294
2815.170752	244.420979
2816.501536	236.977622
2817.832098	227.984615
2819.160881	225.581818
2820.491001	223.523077
2821.819341	222.721678
2823.147461	224.660140
2824.473804	231.306294
2825.801482	234.374825
2827.125828	237.496503
2828.451510	233.022378
2829.775416	239.172028
2831.099102	236.323077
2832.424124	227.678322
2833.745817	231.430769
2835.067290	224.744056
2836.388545	226.784615
2837.709581	231.321678
2839.028845	229.650350
2840.349444	227.567832
2841.668271	229.502098
2842.986880	234.844755
2844.303719	233.130070
2845.620340	238.132867
2846.936743	233.362238
2848.251378	229.513287
2849.567347	229.574825
2850.879997	222.068531
2852.193981	227.430769
2853.507749	224.586014
2854.821300	226.125874
2856.133084	229.963636
2857.443103	237.618182
2858.754456	247.337063
2860.062493	255.341259
2861.371866	265.067133
2862.681023	267.103497
2863.989965	263.204196
2865.297144	254.177622
2866.602559	252.363636
2867.909309	255.896503
2869.214297	248.766434
2870.519070	242.009790
2871.822083	242.548252
2873.127976	250.303497
2874.429015	248.756643
2875.731387	250.889510
2877.032000	241.502098
2878.333947	230.107692
2879.635681	225.707692
2880.934111	227.198601
2882.233874	229.853147
2883.531880	238.860140
2884.829674	234.074126
2886.125711	227.552448
2887.423082	229.088112
2888.718697	235.830769
2890.014102	234.016783
2891.309295	235.805594
2892.601190	220.808392
2893.895962	218.248951
2895.187438	221.025175
2896.480246	221.833566
2897.772844	231.394406
2899.062147	239.981818
2900.352783	235.969231
2901.641669	237.439161
2902.931886	227.015385
2904.218812	234.995804
2905.507070	246.420979
2906.793579	243.619580
2908.079879	244.323077
2909.365971	247.618182
2910.650315	247.429371
2911.937531	248.165035
2913.219920	259.275524
2914.503641	255.629371
2915.785615	246.107692
2917.067383	237.837762
2918.347405	217.278322
2919.630297	219.509091
2920.911444	224.244755
2922.189309	214.774825
2923.470043	218.288112
2924.747496	214.404196
2926.024744	212.183217
2927.300249	214.646154
2928.578622	218.485315
2929.852181	212.993007
2931.128606	208.927273
2932.403291	216.159441
2933.676236	211.415385
2934.950511	220.081119
2936.223047	224.600000
2937.495379	229.311888
2938.764438	227.664336
2940.036362	224.088112
2941.306548	213.425175
2942.576530	209.413986
2943.846309	209.813986
2945.114351	210.965035
2946.380658	217.780420
2947.646762	227.507692
2948.914197	222.026573
2950.179896	221.158042
2951.445393	221.911888
2952.710689	226.327273
2953.972719	213.855944
2955.236079	209.281119
2956.499238	202.858741
2957.760664	201.503497
2959.023420	198.910490
2960.284445	202.818182
2961.543739	208.369231
2962.802832	208.012587
2964.061725	210.446154
2965.320418	211.006993
2966.578911	222.537063
2967.835675	226.302098
2969.092240	222.597203
2970.347076	230.046154
2971.603242	229.834965
2972.856152	218.020979
2974.110392	203.283916
2975.364433	197.604196
2976.616748	189.685315
2977.868865	180.795804
2979.119257	179.948252
2980.372504	180.784615
2981.620974	187.461538
2982.872298	191.565035
2984.120374	190.858741
2985.368252	203.107692
2986.615933	206.938462
2987.863418	207.836364
2989.109181	210.860140
2990.354747	217.728671
2991.601642	219.734266
2992.845291	219.935664
2994.090269	225.833566
2995.332004	234.090909
2996.576590	235.229371
2997.819457	227.897902
2999.059082	228.808392
3000.301559	227.415385
3001.540795	219.937063
3002.781359	215.676923
3004.020206	215.586014
3005.258859	218.753846
3006.495796	211.955245
3007.734061	207.639161
3008.970610	210.279720
3010.206966	213.074126
3011.443128	209.064336
3012.677576	206.703497
3013.911831	210.962238
3015.145893	212.127273
3016.378243	208.860140
3017.608881	215.075524
3018.842365	214.046154
3020.074138	218.493706
3021.304199	211.981818
3022.534069	205.861538
3023.762229	204.661538
3024.991716	200.492308
3026.219493	197.332867
3027.447079	191.226573
3028.675991	189.834965
3029.900161	200.020979
3031.127174	192.288112
3032.350964	202.900699
3033.576079	200.029371
3034.799488	203.205594
3036.022708	206.076923
3037.244222	205.309091
3038.468577	203.058741
3039.688197	196.409790
3040.909143	191.949650
3042.129899	188.374825
3043.348952	191.286713
3044.569331	200.286713
3045.786493	198.229371
3047.004980	208.511888
3048.221766	209.393007
3049.438363	211.356643
3050.654773	217.966434
3051.867969	216.882517
3053.084003	211.591608
3054.296825	208.341259
3055.512484	211.577622
3056.723420	215.535664
3057.935682	220.641958
3059.147756	220.693706
3060.359644	216.179021
3061.569834	215.124476
3062.779839	212.982517
3063.989657	207.903497
3065.197779	195.435664
3066.405715	184.078322
3067.611957	178.536364
3068.819523	178.241958
3070.025394	185.046853
3071.231080	196.216783
3072.436582	201.831469
3073.640390	201.759441
3074.845522	207.595105
3076.048961	210.945455
3077.250708	212.818881
3078.452272	209.883916
3079.653652	199.544056
3080.854848	198.716084
3082.054354	200.258741
3083.253676	195.860140
3084.454322	197.159441
3085.653279	198.825175
3086.849040	191.611189
3088.047631	188.930070
3089.243028	183.565035
3090.439749	178.250350
3091.633277	178.032168
3092.829633	182.779021
3094.024302	185.173427
3095.215781	189.415385
3096.411591	180.739860
3097.602708	178.613986
3098.795148	181.934266
3099.984399	181.612587
3101.176477	175.544056
3102.366871	172.360839
3103.554078	175.172028
3104.742609	176.995804
3105.932462	181.801399
3107.119130	194.802797
3108.305619	203.955245
3109.491928	206.595804
3110.679560	201.450350
3111.864009	204.809790
3113.046778	201.518881
3114.232371	197.692308
3115.416283	185.030769
3116.598517	175.455944
3117.780573	173.275524
3118.962450	166.760839
3120.144149	163.507692
3121.324171	166.798601
3122.502516	174.229371
3123.683681	171.222378
3124.861671	172.896503
3126.039484	176.830769
3127.217120	180.076923
3128.393081	187.013986
3129.568866	187.201399
3130.745971	187.820979
3131.921403	190.914685
3133.095161	193.482517
3134.267246	189.163636
3135.440652	185.429371
3136.613883	194.225175
3137.785442	195.369231
3138.958321	201.787413
3140.128033	197.819580
3141.299066	200.064336
3142.468428	201.265734
3143.636121	198.805594
3144.806629	197.875524
3145.972478	195.276923
3147.142637	196.020979
3148.308138	200.475524
3149.473466	202.302098
3150.638620	208.581818
3151.803601	209.916084
3152.969901	207.559441
3154.131548	199.627972
3155.294516	196.862937
3156.457311	189.601399
3157.619932	189.579021
3158.780889	185.995804
3159.941674	182.651748
3161.102286	182.766434
3162.261234	184.594406
3163.420010	180.423776
3164.578615	181.076923
3165.737048	178.204196
3166.895309	168.969231
3168.051909	164.451748
3169.206846	155.928671
3170.363104	159.654545
3171.517700	160.872727
3172.672126	155.436364
3173.824891	159.674126
3174.977487	166.820979
3176.129913	174.191608
3177.282168	181.731469
3178.434254	185.139860
3179.583193	187.292308
3180.734939	186.054545
3181.885028	179.186014
3183.033459	171.875524
3184.181722	169.379021
3185.329816	163.036364
3186.477741	158.278322
3187.624010	164.176224
3188.770111	174.440559
3189.914558	176.816783
3191.058836	182.426573
3192.202947	187.499301
3193.348376	197.209790
3194.490666	198.088112
3195.632788	198.092308
3196.774744	194.988811
3197.916532	196.106294
3199.058153	181.958042
3200.196638	168.474126
3201.336442	161.141259
3202.477562	165.615385
3203.615548	164.377622
3204.751885	172.991608
3205.888056	178.697902
3207.025545	186.608392
3208.161385	189.360839
3209.298542	200.711888
3210.431086	198.871329
3211.567911	196.676923
3212.700125	176.324476
3213.833657	163.751049
3214.967023	153.097902
3216.097262	155.696503
3217.230300	155.844755
3218.360210	153.858741
3219.491438	157.795804
3220.619540	160.671329
3221.750440	159.709091
3222.879695	169.593007
3224.007307	167.720280
3225.131796	164.920280
3226.260561	163.874126
3227.386204	154.015385
3228.511684	147.274126
3229.635523	147.511888
3230.762157	141.910490
3231.884192	142.837762
3233.007544	150.145455
3234.130734	158.212587
3235.253762	163.102098
3236.375150	171.109091
3237.496377	169.500699
3238.615965	171.302098
3239.735392	174.227972
3240.853182	167.699301
3241.973763	171.268531
3243.091231	173.857343
3244.208538	168.015385
3245.325684	177.358042
3246.441195	171.500699
3247.558021	175.170629
3248.671736	172.338462
3249.788242	175.770629
3250.903112	169.366434
3252.014874	165.506294
3253.126477	163.475524
3254.239395	165.033566
3255.352153	168.216783
3256.461805	167.043357
3257.572772	167.240559
3258.683580	167.681119
3259.792756	159.674126
3260.900301	155.548252
3262.009161	157.039161
3263.117862	158.784615
3264.223461	162.386014
3265.330375	167.426573
3266.435659	176.724476
3267.542257	181.864336
3268.645755	176.752448
3269.750567	180.338462
3270.855222	180.065734
3271.956779	170.341259
3273.058179	165.841958
3274.160893	156.225175
3275.263450	152.511888
3276.362912	149.388811
3277.465156	146.846154
3278.564306	145.806993
3279.661830	145.155245
3280.759200	144.144056
3281.859351	138.036364
3282.956409	136.583217
3284.053313	138.675524
3285.150061	139.790210
3286.242250	146.158042
3287.338689	148.710490
3288.433505	150.023776
3289.528166	152.748252
3290.621206	157.363636
3291.714092	166.342657
3292.805357	162.416783
3293.897935	166.036364
3294.988893	156.662937
3296.078231	157.267133
3297.167416	156.219580
3298.257913	153.216783
3299.345326	152.433566
3300.432587	150.257343
3301.521160	149.513287
3302.609580	151.183217
3303.693453	159.416783
3304.781568	162.593007
3305.866602	150.117483
3306.950020	149.332867
3308.034750	140.629371
3309.117864	136.959441
3310.202290	136.928671
3311.283638	142.186014
3312.366298	142.127273
3313.447344	148.455944
3314.528239	157.123077
3315.607521	172.019580
3316.686652	181.844755
3317.767095	189.593007
3318.844463	183.758042
3319.923143	183.655944
3321.000211	177.951049
3322.077129	169.801399
3323.152437	170.660140
3324.227595	168.868531
3325.304064	162.690909
3326.377462	164.450350
3327.450712	162.191608
3328.525273	161.401399
3329.598224	159.952448
3330.669568	169.703497
3331.742222	166.948252
3332.811809	165.619580
3333.882707	153.338462
3334.951998	148.370629
3336.022600	144.200000
3337.091595	152.853147
3338.158985	146.436364
3339.224768	142.658741
3340.294778	140.219580
3341.361725	141.594406
3342.425610	147.383217
3343.492263	153.844755
3344.557312	149.885315
3345.620757	143.120280
3346.684055	137.860140
3347.747208	142.358042
3348.810214	144.313287
3349.873073	156.212587
3350.934331	158.777622
3351.992532	167.096503
3353.054954	171.510490
3354.114319	176.972028
3355.173540	177.409790
3356.234069	180.883916
3357.290089	177.402797
3358.348874	171.363636
3359.403151	173.939860
3360.460192	168.779021
3361.515634	169.836364
3362.572385	178.274126
3363.627539	172.144056
3364.681095	161.767832
3365.733054	161.848951
3366.787776	162.321678
3367.839448	157.281119
3368.890976	153.644755
3369.943814	140.118881
3370.993604	141.946853
3372.044703	143.830769
3373.092755	137.678322
3374.143568	144.257343
3375.191335	155.516084
3376.238960	151.888112
3377.286443	152.398601
3378.332332	171.034965
3379.379531	165.700699
3380.423686	160.895105
3381.470600	157.475524
3382.515923	150.227972
3383.558204	155.034965
3384.600344	151.398601
3385.643793	141.106294
3386.687100	141.723077
3387.728817	143.590210
3388.770394	152.609790
3389.811829	158.118881
3390.851676	162.755245
3391.889934	150.995804
3392.929500	152.625175
3393.968926	153.720280
3395.006764	149.218182
3396.043015	150.728671
3397.079126	150.167832
3398.116545	134.572028
3399.150931	135.071329
3400.186625	130.306294
3401.222179	145.737063
3402.254701	148.039161
3403.289977	146.048951
3404.322222	143.363636
3405.354329	156.636364
3406.384853	158.830769
3407.416683	154.658741
3408.448375	157.029371
3409.477039	153.930070
3410.505566	143.965035
3411.535399	144.583217
3412.565095	137.492308
3413.591765	137.377622
3414.619741	128.391608
3415.644693	123.731469
3416.672396	122.318881
3417.697074	128.404196
3418.723059	126.864336
3419.747465	133.116084
3420.771733	143.172028
3421.794424	149.760839
3422.816978	149.917483
3423.840838	151.027972
3424.861678	155.107692
3425.882382	149.590010
3426.904392	144.681968
3427.923384	142.158042
3428.942241	143.792707
3429.962404	151.360440
3430.979549	166.635714
