-118.277064	9.189286
-115.607463	3.618681
-112.940798	-0.106044
-110.274885	-2.237163
-107.611905	-3.026948
-104.947494	-2.727672
-102.286014	-1.591608
-99.623105	0.242657
-96.965303	4.853147
-94.306070	3.883217
-91.647586	3.796503
-88.992027	5.010490
-86.335039	2.681818
-83.683148	2.006294
-81.029828	2.253846
-78.379427	2.413986
-75.727598	0.121678
-73.080859	0.425874
-70.432690	2.113986
-67.785265	3.511189
-65.140753	6.343357
-62.494812	5.402098
-59.853954	2.744056
-57.211665	3.790909
-54.572286	4.109091
-51.931478	6.316783
-49.291409	6.653147
-46.656414	6.370629
-44.019989	6.184615
-41.386468	8.786713
-38.751517	11.653147
-36.121633	12.379720
-33.488155	14.673427
-30.859740	14.891608
-28.232059	13.088811
-25.602950	10.162238
-22.978897	-25.751748
-20.351254	-179.480420
-17.728666	-493.160839
-15.106808	-322.475524
-12.485681	725.096503
-9.865285	2180.518182
-7.247776	3345.183916
-4.628839	4127.902098
-2.012788	4530.327273
0.602536	4548.681119
3.217131	4185.134266
5.828845	3448.642657
8.441986	2362.183217
11.050095	1023.148252
13.661784	-214.843357
16.268443	-643.280420
18.876530	-348.642657
21.483893	-21.102797
24.086231	14.332168
26.692147	9.900000
29.293042	9.904196
31.895364	5.123776
34.492668	3.751748
37.093548	4.191608
39.689414	5.838462
42.286707	7.365734
44.883281	6.560839
47.474846	8.386713
50.067839	9.651748
52.657972	5.271329
55.249531	3.275524
57.838231	3.027273
60.428359	3.686014
63.013487	1.866434
65.600043	5.427273
68.185884	7.942657
70.768872	8.518881
73.353287	8.877622
75.930572	9.103497
78.511424	10.242657
81.089427	8.554545
83.666720	5.067133
86.245440	4.881818
88.819177	3.434965
91.394341	2.230070
93.966662	2.119580
96.538276	4.196503
99.107049	5.339860
101.677249	8.493007
104.244610	11.032168
106.813398	10.218182
109.379349	9.630769
111.942464	9.623776
114.509137	13.962937
117.066587	18.282517
119.629723	22.098601
122.187900	34.681818
124.749631	54.842657
127.306405	90.346853
129.864605	143.711888
132.417853	212.906993
134.970402	293.901399
137.526503	382.249650
140.077655	473.847552
142.628110	565.695804
145.177867	647.210490
147.724805	711.193007
150.271048	751.752448
152.818716	776.928671
155.365688	785.776923
157.907724	788.134965
160.449068	784.432867
162.989718	780.072028
165.531793	771.543357
168.071058	764.960140
170.607513	758.004895
173.143278	756.774126
175.680468	753.018881
178.216967	753.126573
180.750660	752.729371
183.281549	754.942657
185.811750	756.442657
188.343376	756.227273
190.872202	757.183916
193.398228	760.616783
195.923568	754.737762
198.450333	752.704196
200.974302	750.980420
203.497585	748.100000
206.020184	742.472028
208.539990	745.163636
211.059113	744.079021
213.577553	745.394406
216.097418	748.178322
218.610280	747.027273
221.126674	752.036364
223.642387	754.859441
226.153209	755.844755
228.665456	760.088811
231.174920	766.660140
233.683706	769.602098
236.191814	769.818182
238.701346	774.166434
241.205997	776.541259
243.709972	779.125175
246.215371	782.505594
248.715895	785.289510
251.219942	787.802797
253.717019	791.627273
256.217618	798.054545
258.715446	800.700000
261.212601	806.359441
263.709084	807.662238
266.200703	811.372028
268.695841	815.497902
271.188214	820.737762
273.679916	824.136364
276.168855	824.299301
278.659217	831.761538
281.146818	830.290210
283.631659	834.416783
286.120014	835.200699
288.601431	833.662937
291.086361	831.189510
293.566445	831.095804
296.050042	837.202098
298.528797	839.299301
301.008974	842.172727
303.486400	845.912587
305.963162	856.866434
308.439260	887.520979
310.912610	927.942657
313.385299	982.510490
315.857326	1027.537762
318.328691	1058.756643
320.797313	1074.697203
323.265275	1078.891608
325.734660	1065.013986
328.199222	1032.688112
330.667287	994.183217
333.130533	951.915385
335.593122	918.489510
338.055053	903.902797
340.516328	901.497902
342.974869	907.674126
345.434832	910.873427
347.892063	911.354545
350.348639	911.143357
352.804560	910.419580
355.257753	910.434965
357.712368	908.153147
360.162181	909.004895
362.615490	904.941958
365.064000	897.830070
367.511860	897.167832
369.961141	894.702098
372.405629	896.972727
374.851539	901.933566
377.296800	902.841259
379.739342	902.704895
382.181236	903.793007
384.622482	903.919580
387.061013	903.544056
389.500966	900.145455
391.938205	894.539860
394.372732	887.709790
396.810747	884.955944
399.243985	886.390210
401.678645	888.429371
404.108532	894.918182
406.541904	900.678322
408.970506	902.067832
411.398466	904.000699
413.827847	906.803497
416.252464	908.958042
418.678501	907.637762
421.103899	909.606993
423.528656	909.209091
425.948654	912.971329
428.370074	919.024476
430.788797	922.619580
433.208941	925.645455
435.626390	929.155245
438.045259	927.626573
440.461435	930.364336
442.872864	926.076923
445.287769	916.120280
447.699984	911.209091
450.111565	907.616783
452.522513	905.879720
454.930773	902.615385
457.338402	896.734266
459.745398	890.311189
462.151762	881.199301
464.555445	877.978322
466.958497	876.981119
469.360919	874.944056
471.762711	870.034266
474.161825	867.163636
476.562359	874.244056
478.962264	882.085315
481.357447	889.266434
483.756095	889.088112
486.150024	886.060140
488.543327	877.662937
490.936004	861.566434
493.328056	841.596503
495.721527	817.668531
498.110285	789.516783
500.496377	763.075524
502.883889	735.658042
505.270777	708.048951
507.655002	680.667133
510.040646	658.009790
512.423627	638.541259
514.803948	617.667832
517.185688	600.809790
519.564770	589.257343
521.945269	579.058741
524.323111	569.993007
526.698298	564.415385
529.072867	558.718182
531.448855	554.672727
533.822189	547.979720
536.196942	542.774825
538.567008	543.458741
540.936459	540.440559
543.307329	533.450350
545.673517	529.530070
548.041124	526.127273
550.406085	522.902098
552.770434	515.063636
555.134169	509.622378
557.499322	503.506993
559.859803	503.797902
562.221701	502.372727
564.580960	501.694406
566.937580	501.788112
569.297646	503.753147
571.651020	497.741259
574.007839	495.699301
576.362023	493.858741
578.715598	492.003497
581.068565	487.651049
583.418901	484.147552
585.770654	481.211888
588.115729	482.590210
590.466269	481.290909
592.810136	485.595804
595.159464	487.387413
597.504143	491.741958
599.846198	486.716084
602.189670	484.705594
604.530519	478.460839
606.870765	473.574126
609.208391	468.341958
611.549452	461.631469
613.885876	457.757343
616.223716	454.132168
618.558938	450.043357
620.891545	452.077622
623.225569	448.011888
625.556978	445.321678
627.887789	442.438462
630.218002	439.290909
632.547618	437.270629
634.872610	433.451748
637.203044	431.516084
639.528856	431.606993
641.852062	428.934965
644.176684	429.393007
646.498700	430.551049
648.820122	431.482517
651.138941	425.766434
653.459176	422.904895
655.778818	425.363636
658.095859	423.180420
660.412309	418.212587
662.726160	411.541958
665.041426	407.630769
667.354096	405.870629
669.668181	402.355944
671.977667	400.534965
674.288567	399.460140
676.596875	397.202098
678.904595	393.746853
681.213730	392.878322
683.518272	391.083217
685.822228	389.584615
688.125597	385.497902
690.430381	384.986014
692.730579	381.670629
695.032192	384.162937
697.333219	383.876923
699.629665	386.176224
701.927525	388.932867
704.224803	392.526573
706.521496	390.854545
708.813614	388.318182
711.109143	385.990210
713.400099	388.314685
715.692469	382.345455
717.982263	383.093706
720.271478	379.923077
722.560113	378.944056
724.846175	375.767133
727.133651	382.779720
729.418557	385.272028
731.702884	390.053846
733.984644	392.461538
736.267817	396.940559
738.550413	399.958042
740.828453	403.406993
743.107907	404.912587
745.386786	408.162238
747.665090	405.440559
749.938843	404.504895
752.214011	401.569930
754.488605	404.913287
756.760640	407.293706
759.034088	408.969231
761.304978	410.667832
763.573312	414.590909
765.843059	414.828671
768.110251	419.554545
770.376873	422.485315
772.642926	425.951748
774.906427	427.660839
777.171340	431.202797
779.435685	430.534965
781.695499	433.746154
783.956727	436.230070
786.217387	434.228671
788.475500	435.425874
790.731070	439.325175
792.990029	439.107692
795.242490	436.157343
797.500318	433.500699
799.753627	434.075524
802.004395	429.785315
804.256576	427.796503
806.506219	426.376224
808.757273	427.283916
811.003816	428.079021
813.251772	428.260140
815.497192	428.242657
817.744025	426.774126
819.990295	422.469231
822.232062	409.606294
824.477211	406.721678
826.715888	399.320979
828.957948	396.640559
831.195509	392.665035
833.434481	390.532168
835.670928	389.597902
837.908785	392.124476
840.144117	389.560140
842.376925	386.888811
844.611145	384.732168
846.842843	382.304196
849.073986	377.486014
851.304574	375.339860
853.534608	371.977622
855.764087	371.321678
857.989086	369.676923
860.217458	371.443357
862.441352	373.420280
864.666656	375.017483
866.887485	372.658042
869.111687	376.244056
871.331415	376.799301
873.552553	378.431469
875.773141	378.306993
877.991220	373.760140
880.210708	374.179021
882.425730	367.889510
884.640204	370.081119
886.854131	371.428671
889.067510	369.530769
891.280343	368.811189
893.492628	367.689510
895.702412	368.973427
897.911650	370.348951
900.120342	370.624476
902.326536	373.535664
904.534139	375.838462
906.739245	378.937762
908.943807	375.167832
911.145874	379.012587
913.349350	382.649650
915.550332	379.497902
917.750772	379.434965
919.952621	377.859441
922.148079	376.618182
924.346895	374.280420
926.541274	372.425175
928.739010	373.351049
930.932310	369.616084
933.127018	366.296503
935.319241	360.190909
937.510926	360.634965
939.702073	363.520280
941.890737	367.495105
944.078864	373.123776
946.264511	379.447552
948.453511	385.060839
950.638086	395.245455
952.822127	408.770629
955.009518	415.753147
957.188606	420.969231
959.371044	426.152448
961.552947	430.565035
963.732377	435.778322
965.909334	447.644755
968.087699	454.523776
970.267470	459.183217
972.440893	463.539860
974.617663	459.341958
976.790025	458.477622
978.963795	459.104895
981.133161	461.024476
983.305871	461.986713
985.476115	461.075524
987.645831	467.882517
989.815018	473.993007
991.979808	487.934965
994.147940	491.024476
996.311676	501.978322
998.476820	515.291608
1000.639504	516.337063
1002.801663	521.127972
1004.961364	528.123776
1007.120542	530.242657
1009.281126	529.074825
1011.439255	529.000000
1013.596860	534.948252
1015.753942	540.106294
1017.910501	547.355944
1020.062680	547.451049
1022.216266	555.741259
1024.369330	576.591608
1026.519945	585.050350
1028.671966	583.139161
1030.819615	579.067133
1032.970594	577.125175
1035.117204	578.074825
1037.263294	573.794406
1039.408866	574.909790
1041.555842	572.660140
1043.696531	573.018881
1045.840548	579.593706
1047.982126	588.624476
1050.123186	610.016084
1052.265651	620.820979
1054.401837	625.465734
1056.541349	623.636364
1058.676505	625.465734
1060.814986	623.294406
1062.949114	611.476923
1065.082728	602.207692
1067.217746	595.486713
1069.348415	587.753846
1071.480490	588.552448
1073.610134	579.009091
1075.739267	577.861538
1077.867889	578.337063
1079.995999	572.172028
1082.121683	565.622378
1084.246857	560.579720
1086.373434	550.471329
1088.495675	540.215385
1090.619320	532.305594
1092.738630	528.256643
1094.863169	517.119580
1096.981464	520.031469
1099.101162	506.895804
1101.218442	506.348252
1103.335216	507.704196
1105.451483	511.546154
1107.565335	510.009091
1109.680590	502.312587
1111.791523	497.813287
1113.905768	495.067133
1116.015692	488.376224
1118.127019	481.026573
1120.237843	477.720979
1122.344350	477.469231
1124.454166	470.946853
1126.559668	470.520280
1128.666574	471.995804
1130.767264	477.391608
1132.873165	470.664336
1134.974758	470.743357
1137.077754	474.367832
1139.180249	472.309091
1141.276538	468.734965
1143.378033	463.260839
1145.475226	463.155245
1147.571920	455.718881
1149.668117	451.053147
1151.763815	447.056643
1153.859016	447.453846
1155.951820	450.316783
1158.046026	453.044755
1160.134041	454.702098
1162.227254	458.859441
1164.314279	464.804196
1166.404604	467.230070
1168.490640	465.626573
1170.579974	468.751049
1172.663127	457.458741
1174.747683	455.553147
1176.833639	454.472028
1178.915315	454.507692
1180.998391	452.766434
1183.079082	451.889510
1185.159282	453.052448
1187.238990	453.787413
1189.318207	456.272727
1191.395041	456.566434
1193.469495	451.107692
1195.547241	448.364336
1197.620716	442.328671
1199.695593	441.423077
1201.766202	440.278322
1203.838212	440.737762
1205.907846	436.632168
1207.978881	436.239161
1210.049428	440.705594
1212.115715	441.651049
1214.183401	445.296503
1216.248716	453.464336
1218.315431	455.288112
1220.377890	455.691608
1222.443635	459.229371
1224.505125	453.956643
1226.568015	449.660140
1228.628538	444.298601
1230.688578	438.430769
1232.748134	440.079720
1234.805326	438.996503
1236.862035	440.188112
1238.916382	439.518182
1240.974009	440.333566
1243.029274	442.581119
1245.080298	440.529371
1247.132723	441.773427
1249.184667	438.555944
1251.234253	440.419580
1253.283360	444.600000
1255.331988	449.058042
1257.380138	459.493007
1259.427810	461.972727
1261.471251	470.294406
1263.517967	468.360839
1265.562331	471.228671
1267.606217	477.160140
1269.647753	474.767832
1271.686939	475.960839
1273.729397	477.915385
1275.767634	485.371329
1277.807268	488.682517
1279.846428	490.690210
1281.881370	498.474825
1283.917710	502.839161
1285.951705	511.072727
1287.987099	515.575524
1290.018279	521.888112
1292.050858	525.875524
1294.082964	527.588811
1296.112730	534.040559
1298.143894	537.847552
1300.170850	544.304196
1302.199204	553.886014
1304.223354	565.078322
1306.250769	580.531469
1308.273981	595.827972
1310.298591	612.355245
1312.320866	639.000699
1314.344539	657.853147
1316.365879	674.009790
1318.386752	691.097902
1320.407157	707.128671
1322.423369	724.749650
1324.440978	743.472028
1326.456259	757.965035
1328.474799	770.646853
1330.489149	781.729371
1332.501174	790.859441
1334.516457	800.758042
1336.527554	812.154545
1338.540047	810.265035
1340.548358	800.923776
1342.559925	798.634965
1344.565453	789.675524
1346.574235	778.757343
1348.578841	764.329371
1350.586700	745.501399
1352.594097	727.437762
1354.595462	712.767832
1356.598225	697.797203
1358.600528	683.862937
1360.602370	665.287413
1362.603754	647.790909
1364.602823	629.456643
1366.601434	617.177622
1368.599587	599.595804
1370.597282	581.415385
1372.590813	571.220979
1374.585741	557.882517
1376.580212	546.404196
1378.574226	538.283217
1380.565933	531.941958
1382.557184	521.485315
1384.546130	512.949650
1386.536471	509.188112
1388.526357	503.478322
1390.513940	498.920280
1392.501069	498.650350
1394.485896	497.309790
1396.472118	495.720280
1398.456039	487.231469
1400.439508	483.226573
1402.422525	477.134266
1404.403244	472.862937
1406.385357	463.593706
1408.365173	459.861538
1410.344539	456.439860
1412.319766	452.696503
1414.298231	454.491608
1416.274403	459.390909
1418.250125	463.159441
1420.225398	462.037063
1422.198381	463.115385
1424.170915	467.811189
1426.143001	468.693706
1428.114639	465.159441
1430.082150	461.727273
1432.054734	454.884615
1434.019512	445.951049
1435.989363	439.634965
1437.955089	436.852448
1439.922209	438.872028
1441.887045	441.516783
1443.847761	443.365035
1445.813545	445.068531
1447.773374	445.039161
1449.734596	443.628671
1451.697211	445.562937
1453.655711	446.347552
1455.613769	444.671329
1457.571384	441.799301
1459.528558	438.446853
1461.483456	439.236364
1463.439746	443.134965
1465.393762	445.086713
1467.347338	449.723776
1469.298641	448.232867
1471.251336	443.253147
1473.201760	444.282517
1475.151745	445.567832
1477.101291	447.391608
1479.048567	447.532168
1480.993577	443.050350
1482.939979	441.355245
1484.885943	444.974126
1486.831470	451.187413
1488.774731	452.653846
1490.717556	456.745455
1492.658118	454.674825
1494.600072	451.058741
1496.539763	447.616084
1498.479019	445.793007
1500.417841	448.015385
1502.354403	442.326573
1504.292355	441.611189
1506.228050	443.088811
1508.163311	451.803497
1510.096315	459.854545
1512.028887	467.425175
1513.961027	475.123776
1515.892735	483.811888
1517.822190	489.458741
1519.753034	486.920280
1521.683448	492.956643
1523.609789	494.450350
1525.537520	495.021678
1527.463001	499.244755
1529.388053	499.863636
1531.312676	502.716783
1533.236870	508.780420
1535.158817	518.018881
1537.082153	521.379021
1539.003244	532.421678
1540.922090	542.921678
1542.842326	549.902098
1544.760318	566.677622
1546.677884	583.130070
1548.593209	604.909091
1550.509922	621.141259
1552.422581	637.144755
1554.338444	652.981119
1556.252068	669.241259
1558.163453	679.988112
1560.076227	687.665035
1561.984953	696.677622
1563.895067	708.581818
1565.804758	708.644755
1567.714026	709.914685
1569.621059	706.853147
1571.525860	706.174825
1573.432050	701.114685
1575.336009	700.079021
1577.239546	701.174825
1579.142662	689.995804
1581.043550	682.922378
1582.945826	675.749650
1584.845873	664.826573
1586.747309	658.911189
1588.644710	645.786014
1590.541694	640.778322
1592.438259	630.965734
1594.336211	630.281119
1596.228329	624.081818
1598.123641	624.847552
1600.018534	624.426573
1601.911207	618.877622
1603.803462	615.202797
1605.693498	602.660140
1607.583118	587.529371
1609.472323	571.994406
1611.361112	557.027972
1613.247685	541.052448
1615.135645	518.903497
1617.019588	502.446154
1618.904918	488.139860
1620.789835	471.279021
1622.672538	462.683916
1624.556628	460.501399
1626.436706	452.386014
1628.318171	449.367133
1630.197426	441.373427
1632.078067	430.675524
1633.952905	424.116084
1635.832723	416.743357
1637.708536	408.665734
1639.583940	402.752448
1641.460729	394.151049
1643.331721	380.599301
1645.205896	381.486713
1647.076071	382.540559
1648.949427	378.791608
1650.820580	383.684615
1652.689531	377.225175
1654.559868	384.051049
1656.426211	389.489510
1658.293941	394.052448
1660.159471	391.368531
1662.026386	386.183217
1663.889313	377.593007
1665.753625	371.453147
1667.615742	372.168531
1669.477453	363.710490
1671.340549	348.936364
1673.201451	347.221678
1675.060159	344.308392
1676.918465	356.422378
1678.778154	360.374825
1680.632077	368.646853
1682.489173	370.765734
1684.345865	372.848951
1686.198582	378.686713
1688.054470	379.113287
1689.906384	378.115385
1691.757897	368.586014
1693.609009	357.190909
1695.459720	351.156643
1697.310031	341.702797
1699.158158	342.586014
1701.007668	341.349650
1702.851430	340.567133
1704.700142	336.957343
1706.543107	333.862937
1708.389238	339.007692
1710.231408	334.920979
1712.076742	335.860839
1713.916336	343.555944
1715.757314	338.034266
1717.599676	337.307692
1719.438080	340.137762
1721.277868	349.881818
1723.115481	349.698601
1724.952698	346.919580
1726.787742	340.073427
1728.624169	340.302098
1730.458424	340.979720
1732.292285	338.887413
1734.125751	342.606294
1735.955271	350.584615
1737.787950	344.663636
1739.616685	344.882517
1741.448578	342.461538
1743.276528	338.851049
1745.104086	331.228671
1746.931253	325.781119
1748.758028	320.169231
1750.584411	324.684615
1752.406858	323.557343
1754.232459	325.154545
1756.054126	323.321678
1757.877175	328.572028
1759.698063	326.075524
1761.518561	330.227273
1763.340441	331.637063
1765.156621	332.206294
1766.975953	330.134266
1768.791358	331.654545
1770.609914	337.034965
1772.424544	338.416084
1774.238787	345.095804
1776.052644	345.162238
1777.866114	333.876923
1779.677430	333.683916
1781.490128	330.337063
1783.302439	336.662238
1785.110833	339.734965
1786.920608	334.144056
1788.726467	324.481818
1790.535473	326.961538
1792.340565	324.141259
1794.147037	316.411189
1795.953126	324.891608
1797.755305	321.006993
1799.560627	324.616084
1801.362041	328.988811
1803.164835	328.017483
1804.963724	335.981818
1806.763992	339.530769
1808.563880	342.593007
1810.361625	341.438462
1812.158990	347.041958
1813.955974	340.490210
1815.752578	336.792308
1817.547043	341.048252
1819.342888	343.262937
1821.133077	353.356643
1822.928163	345.746853
1824.717596	342.544755
1826.510167	345.527972
1828.300602	350.429371
1830.088902	350.202098
1831.880338	350.805594
1833.666129	353.685315
1835.453298	347.097902
1837.238337	345.919580
1839.026508	347.235664
1840.810794	347.426573
1842.592951	341.465035
1844.376487	332.278322
1846.157894	331.223077
1847.940679	331.613986
1849.719585	334.304196
1851.499869	332.406993
1853.278028	339.020280
1855.057564	341.134965
1856.834976	338.944755
1858.610264	342.762238
1860.386931	347.620280
1862.161475	344.514685
1863.937396	343.290210
1865.707698	342.949650
1867.481127	337.802797
1869.252436	333.283217
1871.023374	332.757343
1872.795689	330.088811
1874.562392	328.150350
1876.332219	327.844755
1878.098183	326.967133
1879.867271	329.456643
1881.632497	332.542657
1883.397355	337.802797
1885.163589	343.442657
1886.925965	343.297902
1888.687974	339.848252
1890.449616	338.613986
1892.210890	336.416084
1893.971798	335.811888
1895.732338	333.382517
1897.490770	326.958042
1899.248835	323.215385
1901.004793	323.928671
1902.762127	328.051049
1904.519095	336.641958
1906.273958	334.510490
1908.026715	338.967133
1909.779109	343.536364
1911.532879	343.500699
1913.284545	345.886713
1915.034108	349.260140
1916.785048	344.229371
1918.535624	339.929371
1920.282362	336.795804
1922.030475	334.236364
1923.776489	338.871329
1925.523879	341.616084
1927.269170	344.065035
1929.012364	345.117483
1930.756934	346.659441
1932.499407	345.658042
1934.241520	344.817483
1935.983274	339.775175
1937.724667	331.983916
1939.463967	328.603147
1941.202908	327.476224
1942.941490	323.087762
1944.677980	328.113287
1946.414113	329.850000
1948.151620	335.891608
1949.885306	335.368881
1951.620366	340.813287
1953.353337	346.039510
1955.085952	350.234965
1956.818210	347.775175
1958.550112	349.412587
1960.279928	353.104196
1962.007660	356.298601
1963.736766	351.937063
1965.465516	351.311189
1967.192183	350.348951
1968.918496	348.518881
1970.646182	349.465035
1972.368333	341.849650
1974.093584	346.633566
1975.815028	348.758042
1977.539572	343.019580
1979.262037	340.337762
1980.980698	339.879021
1982.702458	340.655944
1984.420416	340.645455
1986.139748	343.616783
1987.855279	346.832168
1989.575632	347.864336
1991.292186	353.710490
1993.004943	349.119580
1994.720796	354.644755
1996.434577	351.706294
1998.148008	349.281119
1999.859367	348.104196
2001.572100	349.922378
2003.281041	345.138462
2004.993076	342.726573
2006.699601	340.253147
2008.409219	343.347552
2010.116769	342.102098
2011.823972	348.662238
2013.529109	342.705594
2015.233899	341.679720
2016.940061	340.267832
2018.642441	349.525874
2020.346193	356.267133
2022.047882	361.793706
2023.749225	362.106993
2025.450223	366.686014
2027.149161	368.197902
2028.849470	371.500000
2030.546003	365.655245
2032.243908	362.628671
2033.939755	349.841958
2035.638687	350.689510
2037.332133	345.950350
2039.026950	348.812587
2040.721424	350.008392
2042.412130	350.813287
2044.105920	349.106993
2045.795943	349.738462
2047.487337	352.157343
2049.176678	350.573427
2050.867389	346.793007
2052.554338	345.986713
2054.240946	344.253147
2055.928925	345.683916
2057.613144	341.482517
2059.298733	345.842657
2060.983983	340.706993
2062.667185	335.862937
2064.351757	330.268531
2066.030865	329.688811
2067.714759	334.174825
2069.393193	337.536364
2071.074704	343.088811
2072.752463	347.763636
2074.429886	347.281119
2076.108678	350.621678
2077.785427	354.304895
2079.460135	356.147552
2081.136212	346.834266
2082.810249	336.197902
2084.483950	332.727273
2086.157316	332.970629
2087.828644	333.590210
2089.499637	330.839860
2091.170296	331.890909
2092.840621	331.041259
2094.510611	333.751748
2096.178566	339.562238
2097.846188	337.560140
2099.511776	337.469231
2101.178732	336.515385
2102.843655	333.613287
2104.508245	339.988811
2106.170804	348.032168
2107.834732	354.102098
2109.496628	357.797902
2111.158193	363.319580
2112.819428	369.635664
2114.478633	370.068531
2116.137509	371.509091
2117.796054	367.815385
2119.454270	367.841958
2121.108763	362.932168
2122.766320	362.137063
2124.423547	358.890210
2126.077054	360.934266
2127.731928	361.092308
2129.383083	362.911888
2131.037301	357.379021
2132.687801	354.327972
2134.339669	350.339860
2135.986128	355.017483
2137.637341	356.649650
2139.284842	356.941958
2140.933709	358.687413
2142.580557	364.464336
2144.227080	361.880420
2145.873277	356.956643
2147.515765	354.616084
2149.161312	355.020979
2150.803152	349.389510
2152.448049	345.844755
2154.089241	342.186713
2155.730109	342.003497
2157.370654	346.245455
2159.009186	348.887413
2160.649084	348.105594
2162.285282	345.672727
2163.922846	349.444755
2165.560088	348.751049
2167.195320	346.247552
2168.830230	347.497902
2170.464819	345.798601
2172.099087	345.549650
2173.729661	343.987413
2175.363286	346.682517
2176.993220	351.753846
2178.624520	352.938462
2180.253814	344.770629
2181.882789	339.348252
2183.511444	342.729371
2185.139780	341.103497
2186.766113	336.996503
2188.392128	337.546853
2190.016142	336.371329
2191.641521	339.602098
2193.264899	335.922378
2194.889642	335.574126
2196.510703	338.553846
2198.131449	343.556643
2199.753558	337.832867
2201.373670	334.302098
2202.991786	338.384615
2204.609586	341.272028
2206.227070	336.131469
2207.844239	333.340559
2209.461093	333.240559
2211.077632	335.004895
2212.692177	330.941259
2214.304731	334.101399
2215.918648	337.072727
2217.530573	343.072028
2219.143863	340.802098
2220.755161	343.470629
2222.364471	347.789510
2223.975143	350.110490
2225.583827	346.848252
2227.192199	349.813287
2228.798583	347.000699
2230.406331	351.241259
2232.012092	347.609091
2233.617543	345.528671
2235.221008	343.955245
2236.825836	347.055245
2238.428680	347.232168
2240.029541	350.660839
2241.631765	347.334266
2243.232007	346.644755
2244.833611	343.414685
2246.431562	340.935664
2248.030876	339.172727
2249.628210	347.833566
2251.225236	346.246853
2252.823623	349.941259
2254.418362	348.969231
2256.011125	347.633566
2257.605249	345.405594
2259.200736	334.960839
2260.792577	328.593007
2262.384112	323.586713
2263.977008	320.905594
2265.564595	321.251049
2267.156879	323.627972
2268.743855	325.896503
2270.333860	331.127972
2271.918560	337.133566
2273.507954	336.406993
2275.092045	337.627972
2276.677498	333.778322
2278.260982	331.466434
2279.847491	329.706294
2281.430367	328.958741
2283.012939	328.530070
2284.595209	325.304895
2286.173848	326.376224
2287.755512	322.020979
2289.333547	326.519580
2290.914605	331.053147
2292.492036	332.017483
2294.067504	332.897203
2295.645994	328.355944
2297.220859	331.874126
2298.795425	320.945455
2300.369689	322.236364
2301.943653	317.937063
2303.517317	317.542657
2305.090680	314.358042
2306.660425	312.857343
2308.229871	320.490909
2309.802336	324.541259
2311.369526	329.313287
2312.939733	337.465734
2314.506327	338.552448
2316.074279	336.695804
2317.640277	328.525874
2319.205977	325.395105
2320.771379	325.637762
2322.334828	329.451748
2323.899636	331.365035
2325.460835	340.833566
2327.025049	341.411189
2328.584002	342.576224
2330.145968	342.437762
2331.705984	338.283217
2333.265704	336.037762
2334.823475	324.900000
2336.380952	319.446853
2337.938133	321.903497
2339.493368	333.011189
2341.048308	332.759441
2342.602955	336.001399
2344.157308	330.625874
2345.711367	326.847552
2347.265133	326.976923
2348.816954	312.597203
2350.366832	306.174825
2351.919718	306.323077
2353.467362	300.904895
2355.018013	303.376923
2356.565074	309.279021
2358.113492	318.316783
2359.661618	315.782517
2361.206157	327.787413
2362.752053	324.069231
2364.296010	326.481119
2365.841325	328.600000
2367.383055	320.373427
2368.926143	321.798601
2370.467294	317.075524
2372.008156	320.576923
2373.548729	320.386713
2375.089013	324.006993
2376.629008	324.931469
2378.165424	326.885315
2379.704842	331.012587
2381.240683	323.972028
2382.777880	331.911189
2384.311503	336.241259
2385.848125	336.360140
2387.382817	339.322378
2388.915578	335.351748
2390.448054	337.113287
2391.978601	336.306993
2393.512146	335.900000
2395.040480	324.442657
2396.570170	323.769930
2398.099575	325.038462
2399.628695	326.172727
2401.157529	327.776923
2402.681159	321.449650
2404.209424	320.250350
2405.732486	318.751049
2407.260183	315.680420
2408.781039	314.032867
2410.306529	319.125175
2411.828459	326.686713
2413.351743	331.289510
2414.873107	330.772727
2416.392551	336.337762
2417.913350	332.615385
2419.432230	337.698601
2420.950828	339.881818
2422.467509	339.457343
2423.985545	334.846154
2425.503299	335.994406
2427.017501	335.969930
2428.531423	347.901399
2430.045066	350.686014
2431.560062	346.286713
2433.071511	337.741958
2434.584313	334.671329
2436.095203	337.813287
2437.605813	351.639860
2439.114512	353.118881
2440.626198	355.874126
2442.134340	356.587413
2443.642203	361.813287
2445.149789	361.558042
2446.653835	365.010490
2448.160865	356.673427
2449.665987	341.881818
2451.170832	328.165734
2452.673770	310.558042
2454.176431	308.416084
2455.678816	310.496503
2457.179296	308.195804
2458.681129	309.423077
2460.181058	305.823776
2461.680711	308.059441
2463.180089	312.139860
2464.677564	315.007692
2466.173137	322.150350
2467.671690	315.734965
2469.166715	313.422378
2470.663092	311.492308
2472.155943	317.093007
2473.650146	323.106993
2475.144077	317.593007
2476.634483	314.375524
2478.127867	314.395105
2479.619353	321.480420
2481.108942	322.452448
2482.598259	324.382517
2484.085680	331.242657
2485.576077	323.418881
2487.062955	321.353147
2488.551186	321.204895
2490.035899	314.613287
2491.520342	311.225175
2493.006137	305.357343
2494.490039	307.522378
2495.975293	313.002797
2497.455413	319.031469
2498.938505	319.232867
2500.419708	329.144755
2501.900640	328.868531
2503.379684	328.230070
2504.858460	325.227273
2506.336967	318.399301
2507.815205	310.227273
2509.293176	315.885315
2510.767641	314.614685
2512.245075	313.894406
2513.719006	316.539161
2515.194288	317.306294
2516.669302	321.327972
2518.140815	325.225175
2519.613679	320.367133
2521.084660	317.363636
2522.556991	313.344755
2524.024208	306.946154
2525.494392	307.529371
2526.962694	308.960839
2528.430732	305.495804
2529.898505	308.071329
2531.366013	318.522378
2532.833257	319.955944
2534.297008	328.244755
2535.762109	326.692308
2537.225333	326.662238
2538.689906	329.630070
2540.150991	330.105594
2541.613425	326.399301
2543.075596	321.167133
2544.534280	315.400000
2545.997537	316.429371
2547.455697	322.234266
2548.915206	332.336364
2550.369622	329.880420
2551.828608	328.851748
2553.285721	327.133566
2554.740964	330.829371
2556.195946	332.440559
2557.649058	326.373427
2559.103519	321.374126
2560.556111	315.174126
2562.008443	315.726573
2563.458907	317.177622
2564.912327	317.572028
2566.360665	323.937762
2567.811959	317.653846
2569.261386	319.381119
2570.707342	320.593706
2572.156252	324.372028
2573.601691	322.812587
2575.048479	324.474825
2576.493403	322.195105
2577.938070	316.548252
2579.384084	320.897902
2580.826631	319.528671
2582.270526	317.045455
2583.710956	319.503497
2585.152734	319.544056
2586.592652	323.162238
2588.033917	325.047552
2589.471720	332.090909
2590.912473	328.879021
2592.348163	333.230769
2593.786803	334.002098
2595.223586	331.211189
2596.658512	338.796503
2598.096387	337.706993
2599.529204	334.918182
2600.963368	336.176224
2602.395677	333.732867
2603.829334	335.502098
2605.261136	336.305594
2606.692686	331.767133
2608.123982	323.139161
2609.553427	322.291608
2610.982619	326.048252
2612.409960	331.422378
2613.838648	336.487413
2615.267083	340.157343
2616.692072	341.074126
2618.118406	349.313287
2619.542892	348.973427
2620.968724	361.708392
2622.391112	362.916783
2623.814846	356.922378
2625.236734	353.823077
2626.658371	349.918881
2628.078164	355.148951
2629.499301	361.287413
2630.920189	360.755944
2632.337639	357.139860
2633.758028	353.458042
2635.174980	355.883916
2636.591684	357.209091
2638.008139	358.671329
2639.424346	356.343357
2640.840304	351.968531
2642.254422	352.525874
2643.668293	352.699301
2645.080324	357.546853
2646.493700	364.165734
2647.903646	363.201399
2649.316528	358.317483
2650.725981	353.964336
2652.135188	354.511888
2653.542559	355.176923
2654.952864	356.786014
2656.361333	363.309091
2657.767967	370.260140
2659.174356	373.744056
2660.578911	375.249650
2661.984810	378.723776
2663.388876	381.970629
2664.792698	376.629371
2666.196275	371.348252
2667.598021	370.095804
2669.001110	366.344056
2670.400781	361.693007
2671.801796	368.613287
2673.199395	371.997203
2674.599923	380.769231
2675.997037	387.160140
2677.395494	387.555245
2678.792123	388.641958
2680.188511	384.325175
2681.584656	377.931469
2682.978975	378.656643
2684.374637	375.049650
2685.766889	364.823776
2687.160485	359.570629
2688.552256	363.388811
2689.945369	363.289510
2691.336659	374.567832
2692.726126	376.227273
2694.115354	371.686014
2695.504341	372.474825
2696.894671	370.451748
2698.280016	373.576923
2699.668286	373.927972
2701.054735	368.560140
2702.440945	366.046853
2703.826916	368.219580
2705.209489	365.960839
2706.593404	362.886713
2707.977080	365.381119
2709.360519	354.690909
2710.740562	349.965734
2712.121947	348.344056
2713.501516	343.499301
2714.882427	347.513287
2716.261523	344.715385
2717.638805	347.249650
2719.017428	348.980420
2720.394237	350.478322
2721.770811	343.049650
2723.147149	343.435664
2724.521675	344.883916
2725.897542	341.874825
2727.270022	341.760839
2728.645419	339.177622
2730.015854	337.176923
2731.387631	333.417483
2732.759174	326.472028
2734.128908	324.206294
2735.499982	321.089510
2736.869249	315.501399
2738.238282	313.041958
2739.605508	317.879720
2740.972502	321.738462
2742.339263	324.660839
2743.705791	323.544755
2745.070515	324.947552
2746.435006	328.612587
2747.799265	321.737762
2749.163293	318.946154
2750.527088	318.086014
2751.887510	318.950350
2753.250843	318.100000
2754.609233	319.196503
2755.970533	315.938462
2757.328462	311.152448
2758.689301	304.770629
2760.048339	301.175524
2761.404009	306.091608
2762.762588	300.647552
2764.117799	297.332867
2765.472781	292.864336
2766.825966	288.606993
2768.182058	293.060140
2769.534786	297.643357
2770.887285	303.260140
2772.239557	302.824476
2773.593166	307.095105
2774.943414	308.596503
2776.291869	315.925874
2777.643228	316.890909
2778.991228	303.684615
2780.340567	303.077622
2781.688113	288.683217
2783.035432	281.447552
2784.382525	281.272028
2785.727827	283.105594
2787.072903	291.478322
2788.417753	295.418881
2789.762377	300.013986
2791.103648	299.789510
2792.446258	308.557343
2793.788643	312.965734
2795.130802	308.186014
2796.469612	306.208392
2797.811322	288.374126
2799.149683	283.704895
2800.489382	282.449650
2801.827295	286.361538
2803.163424	294.820280
2804.499330	297.112587
2805.836572	291.155245
2807.172031	285.408392
2808.507267	290.582517
2809.840721	291.348951
2811.175511	288.962238
2812.506960	288.272028
2813.841305	279.109790
2815.170752	288.469930
2816.501536	289.750350
2817.832098	300.398601
2819.160881	303.092308
2820.491001	298.322378
2821.819341	289.936364
2823.147461	288.093007
2824.473804	289.121678
2825.801482	286.736364
2827.125828	285.867832
2828.451510	282.191608
2829.775416	278.422378
2831.099102	283.239161
2832.424124	280.590210
2833.745817	278.665734
2835.067290	276.213986
2836.388545	271.853846
2837.709581	275.781119
2839.028845	284.469231
2840.349444	291.483217
2841.668271	292.311888
2842.986880	293.095804
2844.303719	290.611189
2845.620340	292.944755
2846.936743	293.217483
2848.251378	286.863636
2849.567347	277.991608
2850.879997	275.601399
2852.193981	271.223077
2853.507749	267.781818
2854.821300	269.474126
2856.133084	264.627273
2857.443103	263.890909
2858.754456	267.622378
2860.062493	266.350350
2861.371866	272.231469
2862.681023	275.490909
2863.989965	275.797902
2865.297144	280.098601
2866.602559	281.836364
2867.909309	288.404895
2869.214297	286.943357
2870.519070	289.402098
2871.822083	291.933566
2873.127976	295.255245
2874.429015	296.717483
2875.731387	294.983217
2877.032000	293.572028
2878.333947	292.897203
2879.635681	292.773427
2880.934111	291.209790
2882.233874	290.593706
2883.531880	297.096503
2884.829674	295.413287
2886.125711	290.386014
2887.423082	296.021678
2888.718697	290.573427
2890.014102	287.314685
2891.309295	278.993007
2892.601190	278.164336
2893.895962	274.539860
2895.187438	273.508392
2896.480246	269.772028
2897.772844	275.481818
2899.062147	283.020280
2900.352783	285.224476
2901.641669	288.099301
2902.931886	293.500699
2904.218812	294.718182
2905.507070	290.714685
2906.793579	295.134965
2908.079879	296.175524
2909.365971	287.532867
2910.650315	283.027273
2911.937531	281.573427
2913.219920	280.436364
2914.503641	283.441259
2915.785615	281.772028
2917.067383	277.860839
2918.347405	278.818881
2919.630297	280.895804
2920.911444	283.013986
2922.189309	291.448951
2923.470043	289.994406
2924.747496	294.035664
2926.024744	294.265734
2927.300249	297.400000
2928.578622	289.460140
2929.852181	284.101399
2931.128606	279.447552
2932.403291	276.542657
2933.676236	276.621678
2934.950511	277.157343
2936.223047	278.645455
2937.495379	278.967832
2938.764438	279.830070
2940.036362	282.775524
2941.306548	284.042657
2942.576530	282.436364
2943.846309	279.883217
2945.114351	273.463636
2946.380658	274.811888
2947.646762	270.821678
2948.914197	270.289510
2950.179896	270.500000
2951.445393	270.030769
2952.710689	275.609091
2953.972719	278.227273
2955.236079	279.977622
2956.499238	283.685315
2957.760664	279.501399
2959.023420	281.258042
2960.284445	271.584615
2961.543739	272.630070
2962.802832	271.216084
2964.061725	270.206993
2965.320418	262.441259
2966.578911	268.161538
2967.835675	273.174825
2969.092240	269.535664
2970.347076	266.000699
2971.603242	266.761538
2972.856152	260.212587
2974.110392	257.023776
2975.364433	248.067133
2976.616748	252.441958
2977.868865	250.120280
2979.119257	247.318881
2980.372504	246.326573
2981.620974	249.134965
2982.872298	249.316084
2984.120374	254.629371
2985.368252	261.679720
2986.615933	270.451748
2987.863418	274.156643
2989.109181	275.063636
2990.354747	269.883916
2991.601642	272.930769
2992.845291	270.026573
2994.090269	269.913986
2995.332004	269.626573
2996.576590	258.781818
2997.819457	259.629371
2999.059082	260.707692
3000.301559	262.201399
3001.540795	264.223776
3002.781359	266.676224
3004.020206	263.139161
3005.258859	259.590210
3006.495796	262.715385
3007.734061	259.427273
3008.970610	258.837762
3010.206966	259.430769
3011.443128	250.914685
3012.677576	249.263636
3013.911831	245.106993
3015.145893	242.005594
3016.378243	246.474126
3017.608881	249.400000
3018.842365	251.248951
3020.074138	253.555944
3021.304199	257.036364
3022.534069	254.399301
3023.762229	255.621678
3024.991716	257.807692
3026.219493	252.667832
3027.447079	252.297902
3028.675991	247.527972
3029.900161	246.818881
3031.127174	249.488112
3032.350964	248.036364
3033.576079	247.094406
3034.799488	252.587413
3036.022708	256.358741
3037.244222	257.469231
3038.468577	261.927273
3039.688197	267.725175
3040.909143	264.034965
3042.129899	265.637762
3043.348952	257.310490
3044.569331	256.842657
3045.786493	247.265035
3047.004980	241.481818
3048.221766	234.830070
3049.438363	234.814685
3050.654773	233.399301
3051.867969	239.448252
3053.084003	248.253846
3054.296825	251.609091
3055.512484	247.547552
3056.723420	249.335664
3057.935682	253.242657
3059.147756	252.730769
3060.359644	251.666434
3061.569834	250.500699
3062.779839	243.341259
3063.989657	236.728671
3065.197779	237.662238
3066.405715	239.826573
3067.611957	238.324476
3068.819523	232.359441
3070.025394	231.422378
3071.231080	238.539161
3072.436582	243.779021
3073.640390	241.502797
3074.845522	245.306993
3076.048961	245.734266
3077.250708	243.645455
3078.452272	242.593007
3079.653652	243.395105
3080.854848	244.208392
3082.054354	240.232867
3083.253676	243.084615
3084.454322	248.079021
3085.653279	251.479720
3086.849040	250.206993
3088.047631	249.674825
3089.243028	245.023776
3090.439749	244.295804
3091.633277	236.918881
3092.829633	232.967832
3094.024302	232.631469
3095.215781	233.235664
3096.411591	227.069231
3097.602708	234.410490
3098.795148	239.045455
3099.984399	238.245455
3101.176477	240.769930
3102.366871	248.299301
3103.554078	247.493007
3104.742609	242.048252
3105.932462	236.297902
3107.119130	235.223077
3108.305619	233.257343
3109.491928	230.167832
3110.679560	226.869930
3111.864009	235.456643
3113.046778	237.111888
3114.232371	239.106294
3115.416283	239.561538
3116.598517	251.504196
3117.780573	248.808392
3118.962450	249.390210
3120.144149	254.810490
3121.324171	253.913986
3122.502516	250.426573
3123.683681	248.257343
3124.861671	246.662238
3126.039484	245.019580
3127.217120	236.576923
3128.393081	233.523776
3129.568866	225.793706
3130.745971	225.359441
3131.921403	223.479021
3133.095161	237.798601
3134.267246	242.148252
3135.440652	243.806993
3136.613883	250.300699
3137.785442	253.336364
3138.958321	253.866434
3140.128033	250.622378
3141.299066	246.607692
3142.468428	242.927972
3143.636121	237.326573
3144.806629	229.175524
3145.972478	229.872028
3147.142637	232.023077
3148.308138	225.148951
3149.473466	221.802098
3150.638620	226.220280
3151.803601	228.246154
3152.969901	231.616783
3154.131548	236.088112
3155.294516	238.636364
3156.457311	245.427273
3157.619932	248.428671
3158.780889	243.918182
3159.941674	248.955944
3161.102286	242.539161
3162.261234	240.581119
3163.420010	239.002098
3164.578615	237.703497
3165.737048	237.187413
3166.895309	235.108392
3168.051909	227.111888
3169.206846	226.425175
3170.363104	229.960839
3171.517700	228.748951
3172.672126	225.562238
3173.824891	228.467832
3174.977487	228.839161
3176.129913	227.522378
3177.282168	223.950350
3178.434254	216.819580
3179.583193	212.823077
3180.734939	206.726573
3181.885028	199.200699
3183.033459	206.851748
3184.181722	208.284615
3185.329816	211.144755
3186.477741	214.152448
3187.624010	217.315385
3188.770111	227.208392
3189.914558	226.986014
3191.058836	226.690210
3192.202947	222.259441
3193.348376	221.434965
3194.490666	220.311189
3195.632788	219.449650
3196.774744	221.295105
3197.916532	222.096503
3199.058153	218.869930
3200.196638	213.835664
3201.336442	221.570629
3202.477562	228.233566
3203.615548	228.160140
3204.751885	225.181818
3205.888056	220.336364
3207.025545	223.951748
3208.161385	222.744056
3209.298542	220.848951
3210.431086	214.553147
3211.567911	215.723077
3212.700125	212.698601
3213.833657	214.769930
3214.967023	219.913986
3216.097262	214.276923
3217.230300	210.040559
3218.360210	206.236364
3219.491438	204.679021
3220.619540	212.033566
3221.750440	214.597902
3222.879695	214.911189
3224.007307	213.699301
3225.131796	217.220280
3226.260561	218.476224
3227.386204	225.606993
3228.511684	221.897203
3229.635523	215.695105
3230.762157	207.665734
3231.884192	202.068531
3233.007544	197.835664
3234.130734	198.729371
3235.253762	194.937762
3236.375150	187.749650
3237.496377	183.458741
3238.615965	176.576224
3239.735392	174.615385
3240.853182	182.750350
3241.973763	181.745455
3243.091231	181.774126
3244.208538	185.314685
3245.325684	188.739860
3246.441195	192.044755
3247.558021	196.000000
3248.671736	199.667832
3249.788242	203.541259
3250.903112	205.508392
3252.014874	207.265734
3253.126477	209.883217
3254.239395	212.451049
3255.352153	218.588112
3256.461805	218.070629
3257.572772	219.434965
3258.683580	216.779720
3259.792756	215.307692
3260.900301	213.228671
3262.009161	216.345455
3263.117862	218.541958
3264.223461	218.137762
3265.330375	219.206294
3266.435659	220.348951
3267.542257	216.172727
3268.645755	217.416783
3269.750567	211.665734
3270.855222	207.780420
3271.956779	205.506294
3273.058179	202.092308
3274.160893	201.988811
3275.263450	205.018182
3276.362912	206.986713
3277.465156	209.753846
3278.564306	210.983217
3279.661830	214.124476
3280.759200	204.209790
3281.859351	205.963636
3282.956409	203.054545
3284.053313	196.409790
3285.150061	197.574126
3286.242250	197.125874
3287.338689	195.540559
3288.433505	198.076224
3289.528166	200.093007
3290.621206	203.495804
3291.714092	208.290909
3292.805357	214.117483
3293.897935	212.893007
3294.988893	220.412587
3296.078231	223.085315
3297.167416	219.501399
3298.257913	220.437762
3299.345326	218.127972
3300.432587	213.479021
3301.521160	211.709790
3302.609580	207.104895
3303.693453	200.285315
3304.781568	209.356643
3305.866602	210.211888
3306.950020	211.286713
3308.034750	215.651049
3309.117864	215.385315
3310.202290	212.080420
3311.283638	214.364336
3312.366298	216.182517
3313.447344	214.037063
3314.528239	211.424476
3315.607521	210.760140
3316.686652	208.313287
3317.767095	212.780420
3318.844463	209.453846
3319.923143	207.545455
3321.000211	207.683217
3322.077129	205.135664
3323.152437	207.647552
3324.227595	211.009790
3325.304064	212.069930
3326.377462	208.961538
3327.450712	209.142657
3328.525273	215.642657
3329.598224	216.823776
3330.669568	215.132867
3331.742222	213.060140
3332.811809	212.563636
3333.882707	205.500699
3334.951998	205.993007
3336.022600	206.181119
3337.091595	207.723077
3338.158985	202.881818
3339.224768	198.060140
3340.294778	198.517483
3341.361725	205.420280
3342.425610	206.185315
3343.492263	207.356643
3344.557312	205.854545
3345.620757	208.411888
3346.684055	200.818881
3347.747208	203.441259
3348.810214	199.844056
3349.873073	199.224476
3350.934331	196.158741
3351.992532	195.413287
3353.054954	196.239161
3354.114319	202.439161
3355.173540	204.434965
3356.234069	207.818182
3357.290089	208.841259
3358.348874	207.980420
3359.403151	203.569231
3360.460192	199.655944
3361.515634	195.688112
3362.572385	192.620280
3363.627539	189.320979
3364.681095	189.194406
3365.733054	189.688112
3366.787776	193.125874
3367.839448	194.006993
3368.890976	190.257343
3369.943814	193.127273
3370.993604	189.460839
3372.044703	193.151748
3373.092755	190.425175
3374.143568	192.684615
3375.191335	193.282517
3376.238960	195.586014
3377.286443	201.174126
3378.332332	206.570629
3379.379531	207.570629
3380.423686	205.450350
3381.470600	199.429371
3382.515923	201.590909
3383.558204	194.543357
3384.600344	195.964336
3385.643793	189.670629
3386.687100	188.188811
3387.728817	185.474126
3388.770394	180.563636
3389.811829	180.172727
3390.851676	182.357343
3391.889934	180.797203
3392.929500	182.470629
3393.968926	181.087413
3395.006764	183.773427
3396.043015	189.386014
3397.079126	194.197902
3398.116545	192.666434
3399.150931	195.031469
3400.186625	194.377622
3401.222179	190.792308
3402.254701	194.158042
3403.289977	197.190210
3404.322222	195.955245
3405.354329	194.660140
3406.384853	189.241259
3407.416683	187.675524
3408.448375	187.535664
3409.477039	181.552448
3410.505566	178.620280
3411.535399	185.230769
3412.565095	187.730769
3413.591765	189.434965
3414.619741	194.240559
3415.644693	199.346154
3416.672396	197.983217
3417.697074	200.986713
3418.723059	201.758741
3419.747465	197.933566
3420.771733	191.000699
3421.794424	187.324476
3422.816978	185.567133
3423.840838	185.705594
3424.861678	179.270629
3425.882382	173.477423
3426.904392	169.089436
3427.923384	167.119780
3428.942241	168.581568
3429.962404	174.487912
3430.979549	185.851923
