-118.155753	17.369231
-115.486152	-2.167033
-112.819487	-13.299700
-110.153575	-17.553247
-107.490594	-16.452148
-104.826183	-11.520879
-102.164703	-4.283916
-99.501794	-1.131469
-96.843992	8.615385
-94.184759	11.899301
-91.526275	13.106294
-88.870716	10.934266
-86.213728	2.600000
-83.561837	1.419580
-80.908517	-0.860140
-78.258117	-1.797203
-75.606287	-8.117483
-72.959548	-8.240559
-70.311379	-7.197203
-67.663954	-3.019580
-65.019442	3.739860
-62.373501	3.366434
-59.732643	1.724476
-57.090354	-0.619580
-54.450975	1.492308
-51.810167	7.890909
-49.170098	7.681119
-46.535103	4.983217
-43.898678	3.276923
-41.265157	3.686713
-38.630206	5.436364
-36.000322	9.851748
-33.366844	14.241958
-30.738429	13.218182
-28.110748	14.397203
-25.481639	3.338462
-22.857586	-65.300699
-20.229944	-272.860140
-17.607355	-706.531469
-14.985497	-549.658741
-12.364370	1026.648951
-9.743974	3389.552448
-7.126465	5338.966434
-4.507528	6669.152448
-1.891477	7366.946853
0.723846	7440.900699
3.338442	6895.844755
5.950156	5727.737063
8.563297	3992.475524
11.171405	1867.190210
13.783095	-162.005594
16.389754	-1054.913287
18.997841	-652.158042
21.605204	-80.654545
24.207542	6.601399
26.813458	5.713287
29.414353	1.934266
32.016675	0.960839
34.613979	8.514685
37.214859	7.723077
39.810725	11.689510
42.408018	12.502098
45.004592	14.598601
47.596157	11.447552
50.189150	14.671329
52.779282	9.520280
55.370842	9.820979
57.959542	8.626573
60.549670	8.861538
63.134798	3.946853
65.721354	7.039161
68.307195	4.521678
70.890183	6.888112
73.474598	3.502098
76.051883	1.674126
78.632735	8.135664
81.210738	14.864336
83.788031	12.376224
86.366750	15.208392
88.940488	12.923077
91.515652	13.809790
94.087973	9.602797
96.659587	6.243357
99.228360	8.430769
101.798560	15.797203
104.365921	11.622378
106.934709	15.902098
109.500659	25.104895
112.063775	30.100699
114.630448	28.683916
117.187898	38.209790
119.751034	49.481119
122.309211	62.791608
124.870942	88.990210
127.427716	139.907692
129.985916	227.843357
132.539164	340.518881
135.091713	466.471329
137.647814	609.517483
140.198966	757.148252
142.749420	902.044755
145.299178	1031.604196
147.846116	1141.910490
150.392358	1211.478322
152.940027	1248.854545
155.486999	1268.941259
158.029035	1283.079720
160.570378	1288.239161
163.111029	1281.338462
165.653104	1268.777622
168.192369	1252.135664
170.728824	1244.802797
173.264589	1236.376224
175.801779	1233.465734
178.338277	1237.043357
180.871971	1229.212587
183.402860	1227.401399
185.933061	1227.872727
188.464687	1233.709091
190.993513	1231.921678
193.519539	1229.384615
196.044879	1221.965035
198.571644	1212.836364
201.095613	1213.704895
203.618896	1207.586014
206.141495	1218.626573
208.661301	1224.776224
211.180424	1221.546853
213.698864	1226.206993
216.218728	1230.731469
218.731591	1236.009790
221.247985	1240.627972
223.763698	1246.818182
226.274520	1246.699301
228.786767	1257.815385
231.296231	1262.606993
233.805017	1265.478322
236.313125	1270.062937
238.822657	1268.155245
241.327308	1268.181818
243.831283	1268.338462
246.336682	1270.910490
248.837206	1270.324476
251.341253	1279.580420
253.838330	1280.205594
256.338929	1287.745455
258.836757	1302.282517
261.333912	1304.644755
263.830394	1312.423776
266.322014	1313.993007
268.817152	1320.423776
271.309525	1322.988811
273.801227	1330.623776
276.290166	1340.358042
278.780528	1342.944056
281.268129	1343.619580
283.752970	1336.419580
286.241325	1340.979021
288.722742	1345.269930
291.207672	1350.573427
293.687756	1355.183217
296.171353	1359.482517
298.650108	1360.156643
301.130285	1364.776224
303.607711	1362.661538
306.084473	1376.213986
308.560571	1409.503497
311.033921	1469.025175
313.506610	1546.535664
315.978637	1616.675524
318.450002	1678.634965
320.918624	1720.025175
323.386586	1733.794406
325.855971	1721.355245
328.320533	1682.422378
330.788598	1626.883916
333.251844	1556.102098
335.714433	1505.732867
338.176364	1468.664336
340.637639	1458.220979
343.096180	1459.237762
345.556143	1458.608392
348.013374	1467.923077
350.469950	1469.685315
352.925871	1472.644755
355.379064	1475.124476
357.833679	1472.766434
360.283492	1478.900699
362.736801	1472.709091
365.185311	1465.268531
367.633171	1456.169231
370.082452	1449.648951
372.526940	1449.186014
374.972850	1455.244755
377.418111	1455.083916
379.860653	1455.474126
382.302547	1459.218182
384.743793	1456.959441
387.182324	1446.454545
389.622277	1452.430769
392.059516	1444.313287
394.494043	1450.660140
396.932058	1452.384615
399.365296	1448.535664
401.799956	1452.159441
404.229843	1457.735664
406.663215	1456.650350
409.091816	1465.963636
411.519777	1466.855944
413.949158	1463.074126
416.373775	1456.825175
418.799812	1463.065734
421.225210	1466.243357
423.649967	1475.307692
426.069965	1475.538462
428.491385	1473.370629
430.910108	1480.440559
433.330252	1484.300699
435.747701	1485.384615
438.166570	1486.388811
440.582746	1485.118881
442.994175	1483.692308
445.409080	1478.890909
447.821295	1483.264336
450.232876	1482.822378
452.643823	1483.899301
455.052084	1478.138462
457.459713	1469.332867
459.866709	1470.751049
462.273073	1461.839161
464.676756	1449.048951
467.079808	1437.102098
469.482230	1420.790210
471.884022	1403.229371
474.283136	1393.872727
476.683670	1390.774825
479.083575	1394.180420
481.478757	1406.200000
483.877406	1415.327273
486.271335	1419.082517
488.664638	1428.577622
491.057315	1416.039161
493.449367	1392.688112
495.842838	1356.988811
498.231596	1318.142657
500.617688	1268.356643
503.005200	1221.855944
505.392088	1173.843357
507.776313	1136.402797
510.161957	1104.492308
512.544938	1073.829371
514.925259	1048.208392
517.306999	1024.369231
519.686080	996.861538
522.066580	974.208392
524.444422	958.612587
526.819609	951.918881
529.194178	935.644755
531.570166	934.924476
533.943500	927.953846
536.318253	921.118881
538.688319	918.788811
541.057770	914.124476
543.428640	913.465734
545.794828	908.829371
548.162435	906.200000
550.527396	899.125874
552.891744	900.282517
555.255480	898.675524
557.620633	895.402797
559.981114	895.118881
562.343012	889.653147
564.702271	883.019580
567.058891	878.953846
569.418957	867.802797
571.772331	865.179021
574.129150	862.241958
576.483334	865.027972
578.836909	865.041958
581.189876	875.837762
583.540212	878.260140
585.891964	879.426573
588.237040	875.019580
590.587580	874.623776
592.931447	868.200000
595.280775	865.201399
597.625454	859.633566
599.967509	857.483916
602.310981	849.983217
604.651830	854.509091
606.992076	848.941259
609.329702	851.654545
611.670763	848.471329
614.007187	840.153846
616.345027	834.932867
618.680249	832.485315
621.012856	824.254545
623.346880	821.478322
625.678289	818.100699
628.009100	808.770629
630.339313	802.121678
632.668929	797.532867
634.993921	790.620979
637.324355	792.774825
639.650167	795.675524
641.973373	792.597203
644.297995	800.067133
646.620011	798.230769
648.941433	793.758042
651.260252	783.939860
653.580487	778.981818
655.900129	772.949650
658.217170	767.878322
660.533620	761.748252
662.847471	759.966434
665.162737	757.703497
667.475407	759.976224
669.789492	753.304895
672.098978	753.215385
674.409878	749.260140
676.718186	740.517483
679.025906	730.657343
681.335041	732.675524
683.639583	737.724476
685.943539	737.060140
688.246908	742.260140
690.551692	741.483916
692.851890	742.117483
695.153503	748.429371
697.454530	740.853147
699.750976	740.597203
702.048836	740.193007
704.346114	731.734266
706.642807	730.932867
708.934925	732.451748
711.230454	733.567832
713.521410	725.200000
715.813780	723.857343
718.103574	712.455944
720.392789	706.318881
722.681423	705.535664
724.967486	703.002797
727.254962	709.188811
729.539868	717.034965
731.824195	720.818182
734.105955	732.948252
736.389128	738.320280
738.671724	743.152448
740.949764	748.286713
743.229218	752.493706
745.508097	748.285315
747.786400	749.972028
750.060154	750.408392
752.335322	750.290909
754.609916	752.661538
756.881951	754.485315
759.155399	757.806993
761.426289	765.647552
763.694622	761.004196
765.964370	760.990210
768.231562	770.492308
770.498184	772.300699
772.764237	773.332867
775.027738	776.366434
777.292651	774.012587
779.556996	771.676923
781.816810	775.718881
784.078038	778.977622
786.338698	784.881119
788.596811	787.048951
790.852380	785.966434
793.111340	785.587413
795.363801	788.490909
797.621629	783.180420
799.874938	782.609790
802.125706	778.130070
804.377887	771.921678
806.627530	771.446154
808.878584	774.104895
811.125127	768.525874
813.373083	765.997203
815.618503	762.932867
817.865336	759.774825
820.111606	750.758042
822.353373	744.229371
824.598522	738.695105
826.837199	741.237762
829.079259	737.067133
831.316820	735.958042
833.555792	737.450350
835.792238	736.011189
838.030096	726.685315
840.265428	725.144056
842.498236	718.945455
844.732456	707.795804
846.964154	704.034965
849.195297	701.625175
851.425885	700.493706
853.655919	699.318881
855.885398	696.127273
858.110397	698.158042
860.338769	695.702098
862.562663	695.923077
864.787967	691.372028
867.008796	691.572028
869.232997	689.388811
871.452725	693.043357
873.673864	699.822378
875.894452	698.514685
878.112531	695.709091
880.332019	696.282517
882.547041	698.655944
884.761515	699.057343
886.975442	692.756643
889.188821	689.524476
891.401654	687.752448
893.613939	688.051748
895.823723	689.986014
898.032961	695.688112
900.241653	694.956643
902.447847	686.840559
904.655450	681.776224
906.860556	683.204196
909.065118	685.651748
911.267185	687.766434
913.470661	689.760839
915.671643	692.374825
917.872083	700.644755
920.073932	707.127273
922.269390	710.783217
924.468206	717.348252
926.662585	716.510490
928.860321	715.446154
931.053621	719.697902
933.248329	722.264336
935.440552	725.963636
937.632237	726.864336
939.823384	728.313287
942.012048	725.352448
944.200175	728.854545
946.385822	737.693706
948.574821	745.267133
950.759397	759.113287
952.943438	769.415385
955.130829	784.609790
957.309917	799.844755
959.492354	808.201399
961.674258	814.432168
963.853688	822.830769
966.030645	833.092308
968.209010	835.555245
970.388781	840.916084
972.562204	854.212587
974.738973	862.945455
976.911336	871.674126
979.085106	877.212587
981.254472	878.896503
983.427182	886.261538
985.597426	889.735664
987.767142	893.174825
989.936329	897.966434
992.101119	905.183217
994.269251	906.517483
996.432987	907.110490
998.598131	916.514685
1000.760815	921.972028
1002.922974	928.888112
1005.082675	935.387413
1007.241853	937.397203
1009.402437	947.213986
1011.560566	952.897902
1013.718171	955.538462
1015.875253	966.993007
1018.031812	975.320280
1020.183991	978.097902
1022.337577	986.289510
1024.490640	997.215385
1026.641256	1003.065734
1028.793277	1015.756643
1030.940925	1023.780420
1033.091905	1029.906294
1035.238515	1033.205594
1037.384605	1038.030769
1039.530177	1049.104895
1041.677153	1060.697902
1043.817842	1065.274126
1045.961859	1072.997203
1048.103437	1084.580420
1050.244497	1090.455944
1052.386962	1094.832168
1054.523148	1096.089510
1056.662660	1094.651748
1058.797816	1094.429371
1060.936297	1089.110490
1063.070425	1089.201399
1065.204039	1093.758042
1067.339057	1084.781818
1069.469726	1084.346853
1071.601801	1081.972028
1073.731445	1075.506294
1075.860578	1070.559441
1077.989200	1058.132867
1080.117310	1044.976224
1082.242994	1037.234965
1084.368168	1023.342657
1086.494745	1006.372028
1088.616986	990.864336
1090.740631	973.924476
1092.859941	957.297902
1094.984480	951.548252
1097.102775	939.569231
1099.222473	935.567832
1101.339753	938.374825
1103.456527	934.440559
1105.572794	937.335664
1107.686646	937.769231
1109.801901	934.142657
1111.912834	925.772028
1114.027078	918.660140
1116.137003	913.532867
1118.248330	905.672727
1120.359154	892.404196
1122.465661	888.227972
1124.575477	881.944056
1126.680979	876.271329
1128.787885	866.811189
1130.888574	862.788811
1132.994476	859.338462
1135.096069	855.082517
1137.199065	850.546853
1139.301560	850.832168
1141.397849	849.717483
1143.499344	842.986014
1145.596537	836.288112
1147.693231	847.717483
1149.789428	847.577622
1151.885126	853.128671
1153.980327	859.191608
1156.073131	862.976224
1158.167337	864.790210
1160.255352	862.346853
1162.348565	860.927273
1164.435590	856.847552
1166.525915	848.682517
1168.611951	847.225175
1170.701285	837.786014
1172.784438	835.544056
1174.868994	835.186014
1176.954950	836.406993
1179.036625	841.490909
1181.119702	844.510490
1183.200393	846.240559
1185.280593	849.377622
1187.360301	849.620979
1189.439518	850.527273
1191.516352	847.737063
1193.590806	849.405594
1195.668552	838.167832
1197.742027	832.187413
1199.816904	835.640559
1201.887513	832.446154
1203.959523	834.048951
1206.029157	836.927273
1208.100192	834.917483
1210.170739	837.261538
1212.237025	835.184615
1214.304712	832.475524
1216.370027	833.429371
1218.436742	836.001399
1220.499201	829.951049
1222.564946	823.111888
1224.626436	824.678322
1226.689326	820.629371
1228.749849	823.728671
1230.809889	823.051748
1232.869445	820.871329
1234.926637	823.163636
1236.983346	824.209790
1239.037693	826.636364
1241.095320	830.869930
1243.150585	829.808392
1245.201609	827.103497
1247.254033	825.141259
1249.305978	827.988811
1251.355564	830.860140
1253.404671	835.099301
1255.453299	837.096503
1257.501449	843.173427
1259.549121	855.030769
1261.592562	850.767832
1263.639278	857.716084
1265.683642	858.422378
1267.727528	860.039161
1269.769064	864.303497
1271.808250	865.255944
1273.850708	865.216783
1275.888945	869.650350
1277.928579	874.363636
1279.967739	882.952448
1282.002681	888.974825
1284.039021	902.144056
1286.073016	897.808392
1288.108410	911.379021
1290.139590	915.721678
1292.172169	923.430769
1294.204275	931.149650
1296.234041	936.627972
1298.265205	947.819580
1300.292161	955.951049
1302.320515	970.462937
1304.344665	983.432168
1306.372080	993.890909
1308.395292	1017.209790
1310.419902	1029.678322
1312.442177	1056.274126
1314.465850	1074.655944
1316.487190	1096.997203
1318.508063	1113.481119
1320.528468	1139.244755
1322.544679	1166.510490
1324.562289	1190.338462
1326.577570	1220.173427
1328.596110	1237.440559
1330.610460	1255.156643
1332.622485	1282.044755
1334.637768	1299.109091
1336.648865	1311.855944
1338.661358	1309.833566
1340.669669	1303.109091
1342.681236	1290.415385
1344.686764	1279.155245
1346.695546	1259.394406
1348.700152	1238.716084
1350.708011	1214.606993
1352.715407	1187.095105
1354.716773	1163.551049
1356.719536	1148.667133
1358.721839	1123.148252
1360.723681	1093.734266
1362.725065	1066.618182
1364.724134	1041.496503
1366.722745	1017.965035
1368.720898	994.620979
1370.718593	974.465734
1372.712124	956.523077
1374.707052	937.504895
1376.701523	925.425175
1378.695537	910.327273
1380.687244	903.089510
1382.678495	887.130070
1384.667441	877.738462
1386.657782	869.836364
1388.647668	861.745455
1390.635251	852.088112
1392.622380	847.504895
1394.607207	839.542657
1396.593429	837.774825
1398.577350	833.054545
1400.560819	829.731469
1402.543836	824.558042
1404.524555	821.404196
1406.506668	813.267133
1408.486484	819.037762
1410.465850	818.651748
1412.441077	813.609790
1414.419542	813.695105
1416.395714	810.654545
1418.371436	815.274126
1420.346709	823.827972
1422.319691	826.258741
1424.292226	829.974825
1426.264312	825.043357
1428.235950	822.979021
1430.203461	821.662937
1432.176045	826.337063
1434.140823	825.620979
1436.110674	823.362238
1438.076400	827.404196
1440.043520	824.941259
1442.008356	828.681119
1443.969072	827.062937
1445.934856	829.623776
1447.894685	824.801399
1449.855907	812.664336
1451.818522	813.275524
1453.777022	813.534266
1455.735080	819.546853
1457.692695	820.034965
1459.649869	822.563636
1461.604767	819.953846
1463.561057	812.892308
1465.515073	804.752448
1467.468649	798.372028
1469.419952	797.387413
1471.372647	786.637762
1473.323071	785.997203
1475.273056	788.117483
1477.222601	796.209790
1479.169878	801.102098
1481.114888	796.089510
1483.061290	796.893706
1485.007254	792.615385
1486.952780	790.012587
1488.896042	789.061538
1490.838867	792.795804
1492.779429	796.142657
1494.721382	804.114685
1496.661074	810.683916
1498.600330	812.402797
1500.539152	818.316084
1502.475714	815.022378
1504.413666	815.393007
1506.349361	817.994406
1508.284622	822.847552
1510.217626	821.944056
1512.150198	831.397203
1514.082338	836.485315
1516.014046	840.739860
1517.943501	849.016783
1519.874345	846.406993
1521.804759	846.507692
1523.731100	849.346853
1525.658831	851.697902
1527.584312	863.394406
1529.509364	869.653147
1531.433987	876.972028
1533.358181	887.118881
1535.280128	900.271329
1537.203464	907.029371
1539.124555	919.316084
1541.043401	929.945455
1542.963637	939.620979
1544.881629	955.662937
1546.799195	974.485315
1548.714519	999.481119
1550.631233	1027.311888
1552.543892	1048.958042
1554.459755	1076.886713
1556.373379	1103.353846
1558.284764	1125.437762
1560.197538	1146.588811
1562.106263	1173.556643
1564.016378	1189.704895
1565.926069	1205.749650
1567.835336	1215.306294
1569.742370	1219.372028
1571.647171	1221.910490
1573.553361	1219.342657
1575.457319	1213.619580
1577.360857	1203.366434
1579.263973	1185.264336
1581.164861	1173.373427
1583.067137	1160.209790
1584.967184	1145.306294
1586.868620	1126.113287
1588.766021	1110.706294
1590.663005	1089.013986
1592.559570	1070.489510
1594.457522	1061.668531
1596.349640	1055.997203
1598.244952	1053.360839
1600.139845	1049.197203
1602.032517	1041.753846
1603.924773	1039.622378
1605.814809	1031.261538
1607.704429	1016.225175
1609.593634	1007.068531
1611.482423	991.123077
1613.368996	977.104895
1615.256955	956.843357
1617.140899	945.197203
1619.026229	932.727273
1620.911146	916.745455
1622.793849	900.253147
1624.677938	880.514685
1626.558017	864.006993
1628.439482	849.205594
1630.318737	834.758042
1632.199378	828.979021
1634.074215	822.506294
1635.954034	816.020979
1637.829847	798.400000
1639.705251	791.113287
1641.582040	782.100699
1643.453032	769.595804
1645.327206	764.223776
1647.197382	756.398601
1649.070738	750.425175
1650.941891	757.797203
1652.810842	759.037762
1654.681179	765.672727
1656.547522	766.967832
1658.415252	764.109091
1660.280782	758.558042
1662.147697	760.622378
1664.010624	758.906294
1665.874936	759.883916
1667.737053	760.258741
1669.598764	755.043357
1671.461860	752.202797
1673.322762	759.135664
1675.181470	754.544056
1677.039775	751.443357
1678.899465	749.665734
1680.753388	748.043357
1682.610483	745.074126
1684.467176	744.914685
1686.319893	739.318881
1688.175781	741.613986
1690.027695	740.083916
1691.879208	737.812587
1693.730320	733.946853
1695.581031	732.454545
1697.431342	728.193007
1699.279469	723.772028
1701.128979	724.567832
1702.972741	727.734266
1704.821453	730.479720
1706.664418	731.430769
1708.510549	730.644755
1710.352719	736.297902
1712.198053	742.213986
1714.037647	744.643357
1715.878625	739.205594
1717.720986	734.254545
1719.559391	727.275524
1721.399179	721.262937
1723.236792	717.537063
1725.074009	718.036364
1726.909053	718.076923
1728.745480	713.355245
1730.579735	710.046154
1732.413596	712.483916
1734.247062	716.938462
1736.076582	714.198601
1737.909261	710.401399
1739.737996	706.758042
1741.569889	702.285315
1743.397839	699.970629
1745.225397	701.735664
1747.052564	699.711888
1748.879338	699.476923
1750.705722	701.570629
1752.528169	704.286713
1754.353770	706.813986
1756.175437	706.067133
1757.998486	703.997203
1759.819374	699.646154
1761.639872	696.123077
1763.461752	690.128671
1765.277932	688.644755
1767.097264	688.524476
1768.912669	687.039161
1770.731225	689.801399
1772.545855	690.078322
1774.360098	694.188811
1776.173955	692.841958
1777.987425	690.777622
1779.798741	687.960839
1781.611439	686.448951
1783.423750	682.255944
1785.232144	680.570629
1787.041919	687.587413
1788.847778	687.583217
1790.656784	697.565035
1792.461876	697.490909
1794.268348	702.096503
1796.074437	710.864336
1797.876616	702.293706
1799.681938	697.927273
1801.483352	690.518881
1803.286146	688.977622
1805.085035	682.320280
1806.885303	685.482517
1808.685191	688.100699
1810.482936	682.939860
1812.280301	691.703497
1814.077285	690.918881
1815.873889	699.604196
1817.668354	700.060140
1819.464199	700.665734
1821.254388	700.226573
1823.049474	695.580420
1824.838907	690.393007
1826.631478	688.960839
1828.421913	688.606993
1830.210213	686.730070
1832.001649	681.516084
1833.787440	681.588811
1835.574609	682.064336
1837.359647	687.693706
1839.147819	690.413986
1840.932105	697.560839
1842.714262	696.433566
1844.497797	694.198601
1846.279205	694.288112
1848.061990	696.397203
1849.840896	690.394406
1851.621180	691.265734
1853.399339	690.137063
1855.178875	687.823776
1856.956287	694.215385
1858.731575	697.457343
1860.508242	694.184615
1862.282786	698.156643
1864.058707	698.696503
1865.829009	698.302098
1867.602438	701.422378
1869.373747	700.383217
1871.144685	697.074126
1872.917000	700.804196
1874.683703	704.664336
1876.453530	702.545455
1878.219494	702.314685
1879.988582	693.836364
1881.753808	687.577622
1883.518666	684.703497
1885.284900	680.616783
1887.047276	679.886713
1888.809285	678.379021
1890.570927	678.931469
1892.332201	680.910490
1894.093109	682.692308
1895.853649	688.405594
1897.612080	688.597203
1899.370146	692.054545
1901.126104	693.665734
1902.883438	698.759441
1904.640406	695.783217
1906.395269	695.127273
1908.148026	692.530070
1909.900420	685.867133
1911.654190	680.734266
1913.405856	681.650350
1915.155419	673.872727
1916.906359	674.093706
1918.656935	672.935664
1920.403673	674.278322
1922.151786	675.310490
1923.897800	673.626573
1925.645190	671.949650
1927.390481	671.036364
1929.133675	676.083916
1930.878245	678.781818
1932.620718	686.079720
1934.362831	688.406993
1936.104585	687.072028
1937.845978	690.974825
1939.585278	688.122378
1941.324219	687.041958
1943.062801	688.445455
1944.799291	688.053147
1946.535424	693.211888
1948.272931	689.990210
1950.006617	694.519580
1951.741677	695.381818
1953.474648	700.031469
1955.207263	694.230769
1956.939521	696.765734
1958.671423	696.149650
1960.401239	693.534266
1962.128971	694.597203
1963.858077	698.545455
1965.586827	700.169231
1967.313494	701.683916
1969.039807	694.075524
1970.767493	688.848951
1972.489643	689.216783
1974.214895	687.746853
1975.936339	687.039161
1977.660883	686.567832
1979.383348	685.721678
1981.102009	688.099301
1982.823769	690.798601
1984.541727	702.096503
1986.261059	705.914685
1987.976590	704.695105
1989.696943	700.559441
1991.413496	694.837762
1993.126254	695.504895
1994.842107	692.804196
1996.555888	690.829371
1998.269318	686.051748
1999.980678	687.686713
2001.693411	686.777622
2003.402352	688.706294
2005.114387	699.790210
2006.820912	702.012587
2008.530530	701.106294
2010.238080	700.899301
2011.945283	698.623776
2013.650420	700.451748
2015.355210	700.862937
2017.061372	700.219580
2018.763752	705.478322
2020.467504	710.948252
2022.169193	709.545455
2023.870536	712.404196
2025.571534	718.770629
2027.270472	718.976224
2028.970781	717.802797
2030.667314	713.627972
2032.365219	715.208392
2034.061066	713.109091
2035.759998	714.732867
2037.453444	720.945455
2039.148261	728.702098
2040.842735	730.009790
2042.533441	730.465734
2044.227231	730.506294
2045.917254	734.026573
2047.608648	736.573427
2049.297989	736.979021
2050.988700	735.545455
2052.675649	737.369231
2054.362257	729.555245
2056.050236	726.020979
2057.734455	720.078322
2059.420044	714.496503
2061.105294	706.328671
2062.788496	701.806993
2064.473068	699.434965
2066.152176	699.676923
2067.836070	701.471329
2069.514504	701.335664
2071.196015	698.988811
2072.873774	696.871329
2074.551197	696.367832
2076.229989	697.202797
2077.906738	702.553846
2079.581446	704.841958
2081.257523	709.945455
2082.931560	711.439161
2084.605261	712.310490
2086.278627	705.000000
2087.949955	705.027972
2089.620948	703.446154
2091.291607	698.208392
2092.961932	699.318881
2094.631922	701.412587
2096.299877	702.246154
2097.967499	704.641958
2099.633087	707.797203
2101.300043	713.144056
2102.964966	711.934266
2104.629556	710.913287
2106.292115	705.709091
2107.956043	711.489510
2109.617939	704.682517
2111.279504	702.446154
2112.940739	702.372028
2114.599944	702.469930
2116.258820	701.664336
2117.917365	705.205594
2119.575581	711.471329
2121.230074	712.118881
2122.887631	715.716084
2124.544858	719.805594
2126.198365	721.525874
2127.853239	718.339860
2129.504394	709.262937
2131.158612	706.465734
2132.809112	706.699301
2134.460980	707.956643
2136.107439	706.441958
2137.758652	706.387413
2139.406153	705.500699
2141.055020	704.583217
2142.701868	710.163636
2144.348391	711.360839
2145.994588	710.025175
2147.637076	705.594406
2149.282623	703.781818
2150.924463	703.864336
2152.569360	707.818182
2154.210552	708.490909
2155.851420	711.713287
2157.491965	715.485315
2159.130497	717.902098
2160.770395	721.004196
2162.406593	723.788811
2164.044157	722.113287
2165.681399	722.124476
2167.316631	722.379021
2168.951541	719.236364
2170.586130	718.748252
2172.220398	715.462937
2173.850972	707.815385
2175.484597	710.790210
2177.114531	706.646154
2178.745830	702.619580
2180.375125	696.720280
2182.004099	693.787413
2183.632755	692.137063
2185.261091	693.753846
2186.887424	695.370629
2188.513439	699.128671
2190.137453	699.890909
2191.762832	701.232168
2193.386210	701.377622
2195.010953	704.162238
2196.632014	701.482517
2198.252760	700.786014
2199.874869	698.738462
2201.494981	697.737063
2203.113097	698.669930
2204.730897	702.841958
2206.348381	707.679720
2207.965550	709.742657
2209.582404	705.011189
2211.198943	708.683916
2212.813488	704.504895
2214.426042	696.660140
2216.039959	692.020979
2217.651884	684.664336
2219.265174	679.753846
2220.876472	678.201399
2222.485782	677.995804
2224.096454	680.139860
2225.705138	684.507692
2227.313510	685.960839
2228.919894	684.482517
2230.527642	693.620979
2232.133403	689.681119
2233.738853	686.397203
2235.342319	683.657343
2236.947147	681.349650
2238.549991	682.125874
2240.150852	686.102098
2241.753076	688.590210
2243.353317	690.970629
2244.954922	694.483916
2246.552873	693.444755
2248.152187	691.854545
2249.749521	696.151049
2251.346547	694.633566
2252.944934	692.370629
2254.539673	693.248951
2256.132436	697.910490
2257.726560	700.661538
2259.322046	698.921678
2260.913888	705.065734
2262.505423	702.514685
2264.098319	697.398601
2265.685906	694.762238
2267.278190	693.853147
2268.865166	688.025175
2270.455171	689.990210
2272.039871	682.377622
2273.629265	682.969231
2275.213356	685.679720
2276.798809	684.156643
2278.382293	680.076923
2279.968802	683.079720
2281.551678	683.725874
2283.134250	684.330070
2284.716520	688.865734
2286.295159	688.760839
2287.876822	684.942657
2289.454858	688.795804
2291.035916	684.886713
2292.613347	683.641958
2294.188815	684.784615
2295.767305	686.427972
2297.342170	684.525874
2298.916735	677.405594
2300.491000	676.427972
2302.064964	676.868531
2303.638628	670.658741
2305.211991	668.823776
2306.781736	668.581818
2308.351182	670.117483
2309.923647	669.517483
2311.490837	668.675524
2313.061044	675.584615
2314.627637	679.241958
2316.195590	681.744056
2317.761588	680.924476
2319.327288	699.278322
2320.892690	712.615385
2322.456139	724.889510
2324.020947	736.251748
2325.582146	743.661538
2327.146360	740.939860
2328.705313	734.279720
2330.267279	729.653147
2331.827295	722.735664
2333.387015	710.128671
2334.944786	703.121678
2336.502263	696.832168
2338.059444	701.401399
2339.614679	696.209790
2341.169619	699.699301
2342.724266	695.739860
2344.278619	693.702098
2345.832678	687.493706
2347.386444	688.095105
2348.938265	689.994406
2350.488143	685.648951
2352.041029	687.316084
2353.588673	686.513287
2355.139324	686.036364
2356.686385	683.524476
2358.234803	678.376224
2359.782929	681.218182
2361.327468	685.914685
2362.873364	687.897902
2364.417321	691.788811
2365.962636	696.745455
2367.504366	697.117483
2369.047454	693.016783
2370.588605	696.114685
2372.129467	690.420979
2373.670040	686.882517
2375.210324	682.331469
2376.750319	678.865734
2378.286735	680.794406
2379.826153	685.829371
2381.361994	682.834965
2382.899191	688.072727
2384.432814	686.632168
2385.969436	687.686713
2387.504127	685.283916
2389.036889	682.156643
2390.569365	677.502098
2392.099912	680.798601
2393.633457	678.990210
2395.161791	678.939860
2396.691481	682.482517
2398.220886	684.359441
2399.750006	688.088112
2401.278840	696.068531
2402.802470	698.244755
2404.330735	703.664336
2405.853797	700.225175
2407.381494	700.843357
2408.902350	702.562238
2410.427840	705.226573
2411.949770	702.374825
2413.473054	701.711888
2414.994418	700.862937
2416.513862	697.511888
2418.034661	696.493706
2419.553541	696.274126
2421.072139	694.118881
2422.588820	689.744056
2424.106856	691.109091
2425.624610	696.039161
2427.138812	699.523077
2428.652734	702.997203
2430.166377	706.812587
2431.681373	712.011189
2433.192821	715.183217
2434.705624	718.317483
2436.216514	721.212587
2437.727124	722.646154
2439.235823	720.205594
2440.747509	718.988811
2442.255651	723.914685
2443.763514	722.365035
2445.271100	720.962238
2446.775146	714.527273
2448.282176	709.369231
2449.787298	704.260140
2451.292143	696.897902
2452.795081	692.366434
2454.297742	691.153846
2455.800127	685.925874
2457.300607	684.780420
2458.802440	685.359441
2460.302369	686.076923
2461.802022	690.616783
2463.301400	694.372028
2464.798875	690.956643
2466.294448	693.331469
2467.793001	686.974825
2469.288026	682.598601
2470.784403	679.349650
2472.277254	678.608392
2473.771457	676.239161
2475.265387	672.774825
2476.755794	666.530070
2478.249178	660.772028
2479.740663	664.090909
2481.230252	663.976224
2482.719570	662.734266
2484.206991	665.001399
2485.697388	663.457343
2487.184266	659.476923
2488.672496	656.690909
2490.157210	652.482517
2491.641653	653.211189
2493.127448	655.220979
2494.611350	655.071329
2496.096604	656.135664
2497.576724	665.801399
2499.059816	669.544056
2500.541018	672.439161
2502.021951	672.541259
2503.500995	671.074126
2504.979771	664.121678
2506.458278	658.254545
2507.936516	653.793007
2509.414486	664.166434
2510.888952	676.232168
2512.366386	685.051748
2513.840317	690.247552
2515.315599	700.106294
2516.790613	704.050350
2518.262126	704.497902
2519.734990	700.562238
2521.205971	696.840559
2522.678301	695.513287
2524.145519	684.829371
2525.615703	682.095105
2527.084005	687.107692
2528.552043	687.264336
2530.019816	684.819580
2531.487324	681.688112
2532.954567	684.942657
2534.418319	684.632168
2535.883420	682.888112
2537.346644	679.815385
2538.811217	680.780420
2540.272301	685.232168
2541.734736	682.281119
2543.196907	689.226573
2544.655591	690.429371
2546.118848	692.969231
2547.577008	691.746853
2549.036517	693.942657
2550.490933	694.500699
2551.949919	694.149650
2553.407032	692.895105
2554.862275	691.481119
2556.317257	694.780420
2557.770369	698.939860
2559.224830	700.734266
2560.677422	701.563636
2562.129754	692.787413
2563.580218	692.016783
2565.033638	686.286713
2566.481976	688.630769
2567.933270	686.365035
2569.382697	693.500699
2570.828653	699.570629
2572.277563	702.804196
2573.723002	708.251748
2575.169790	715.462937
2576.614714	719.609790
2578.059381	715.517483
2579.505395	704.300699
2580.947942	698.843357
2582.391837	690.948252
2583.832267	688.753846
2585.274045	683.876923
2586.713963	689.471329
2588.155228	691.474126
2589.593031	691.623776
2591.033784	696.944056
2592.469474	700.731469
2593.908114	704.089510
2595.344897	705.748252
2596.779823	705.160839
2598.217698	703.016783
2599.650515	697.191608
2601.084679	693.758042
2602.516988	698.927273
2603.950644	701.660140
2605.382447	699.748252
2606.813997	703.711888
2608.245293	705.472727
2609.674738	706.246154
2611.103930	709.130070
2612.531271	712.644755
2613.959959	717.980420
2615.388394	722.641958
2616.813383	724.945455
2618.239717	728.848951
2619.664203	731.751049
2621.090035	728.609790
2622.512423	721.927273
2623.936157	719.404196
2625.358045	712.159441
2626.779682	708.531469
2628.199474	708.193007
2629.620612	708.998601
2631.041500	715.330070
2632.458950	721.818182
2633.879339	728.613986
2635.296291	734.436364
2636.712995	732.911888
2638.129450	733.339860
2639.545657	733.481119
2640.961615	739.223776
2642.375733	742.524476
2643.789604	750.695105
2645.201635	756.191608
2646.615011	753.468531
2648.024957	754.634965
2649.437839	754.402797
2650.847292	755.057343
2652.256499	753.830769
2653.663870	752.137063
2655.074175	754.608392
2656.482644	760.960839
2657.889278	771.523077
2659.295667	774.896503
2660.700222	777.159441
2662.106121	770.623776
2663.510187	771.897902
2664.914009	775.675524
2666.317586	774.953846
2667.719331	776.809790
2669.122420	776.744056
2670.522092	778.394406
2671.923107	783.076923
2673.320705	781.325874
2674.721234	783.475524
2676.118348	783.081119
2677.516805	778.335664
2678.913434	770.260140
2680.309822	769.862937
2681.705967	771.606993
2683.100286	769.538462
2684.495948	775.008392
2685.888200	771.451748
2687.281796	771.167832
2688.673567	771.381818
2690.066680	766.468531
2691.457970	764.683916
2692.847437	762.184615
2694.236665	751.925874
2695.625652	744.772028
2697.015982	736.644755
2698.401327	735.931469
2699.789597	732.958042
2701.176046	730.429371
2702.562256	723.090909
2703.948227	720.966434
2705.330800	722.500699
2706.714714	718.758042
2708.098391	714.387413
2709.481830	713.630769
2710.861873	706.937063
2712.243258	708.528671
2713.622827	711.970629
2715.003738	711.860140
2716.382834	708.928671
2717.760115	703.194406
2719.138738	701.342657
2720.515548	701.379021
2721.892122	696.074126
2723.268460	690.020979
2724.642986	685.296503
2726.018853	682.067133
2727.391333	674.587413
2728.766730	674.393007
2730.137165	674.013986
2731.508942	672.672727
2732.880485	673.890909
2734.250219	670.194406
2735.621293	669.944056
2736.990560	669.679720
2738.359593	663.388811
2739.726819	662.924476
2741.093813	662.079720
2742.460574	657.121678
2743.827102	652.716084
2745.191826	658.918881
2746.556317	663.850350
2747.920576	668.405594
2749.284604	663.808392
2750.648399	660.020979
2752.008821	661.222378
2753.372154	657.510490
2754.730544	658.693706
2756.091844	656.732867
2757.449773	658.593007
2758.810612	655.738462
2760.169650	657.173427
2761.525320	661.812587
2762.883899	661.815385
2764.239110	654.674126
2765.594092	643.639161
2766.947277	641.258741
2768.303369	638.751049
2769.656097	636.640559
2771.008596	643.083916
2772.360867	640.327273
2773.714477	641.320280
2775.064725	641.346853
2776.413180	644.503497
2777.764539	639.299301
2779.112539	644.653147
2780.461878	641.889510
2781.809424	631.648951
2783.156743	626.271329
2784.503836	624.853147
2785.849138	620.594406
2787.194214	617.651748
2788.539064	608.981818
2789.883688	605.213986
2791.224959	602.583217
2792.567569	604.800000
2793.909954	608.002797
2795.252113	622.311888
2796.590923	625.788811
2797.932633	628.805594
2799.270994	638.116084
2800.610693	644.822378
2801.948606	647.093706
2803.284735	647.002797
2804.620641	643.064336
2805.957883	637.942657
2807.293342	633.404196
2808.628578	629.730070
2809.962032	632.268531
2811.296822	630.337063
2812.628271	630.439161
2813.962616	630.869930
2815.292063	635.514685
2816.622847	635.068531
2817.953409	640.130070
2819.282192	636.620979
2820.612312	633.394406
2821.940652	627.604196
2823.268772	626.675524
2824.595115	624.955245
2825.922793	621.918881
2827.247139	621.671329
2828.572820	620.639161
2829.896727	614.430769
2831.220413	618.311888
2832.545435	613.786014
2833.867128	614.369231
2835.188601	609.118881
2836.509856	601.608392
2837.830892	598.448951
2839.150156	598.827972
2840.470755	596.965035
2841.789582	596.959441
2843.108191	603.050350
2844.425030	604.706294
2845.741651	603.349650
2847.058054	603.678322
2848.372689	598.344056
2849.688658	602.746853
2851.001307	603.584615
2852.315292	602.123077
2853.629060	603.741259
2854.942611	603.840559
2856.254395	603.648951
2857.564414	604.107692
2858.875767	605.886713
2860.183804	605.693706
2861.493177	600.104895
2862.802334	597.869930
2864.111276	596.503497
2865.418455	597.311888
2866.723870	600.481119
2868.030620	604.376224
2869.335607	606.907692
2870.640381	609.409790
2871.943393	614.232168
2873.249287	607.988811
2874.550326	609.583217
2875.852698	605.412587
2877.153311	603.345455
2878.455258	601.054545
2879.756992	597.798601
2881.055422	597.321678
2882.355185	606.909091
2883.653191	606.212587
2884.950985	605.765035
2886.247022	606.924476
2887.544393	607.862937
2888.840008	595.293706
2890.135413	592.955245
2891.430606	585.855944
2892.722501	582.190210
2894.017273	579.860140
2895.308749	580.008392
2896.601557	587.278322
2897.894155	591.172028
2899.183458	589.937063
2900.474094	588.123077
2901.762980	590.109091
2903.053197	593.313287
2904.340123	593.251748
2905.628381	598.759441
2906.914890	603.366434
2908.201190	603.699301
2909.487282	608.741259
2910.771626	613.676923
2912.058842	617.254545
2913.341231	609.583217
2914.624952	604.131469
2915.906926	591.514685
2917.188694	591.116084
2918.468716	590.728671
2919.751608	588.282517
2921.032755	587.574825
2922.310620	591.728671
2923.591354	592.593007
2924.868807	599.086713
2926.146055	605.159441
2927.421560	609.365035
2928.699933	609.237762
2929.973491	607.453147
2931.249917	603.377622
2932.524602	607.219580
2933.797547	600.727273
2935.071822	596.639161
2936.344358	595.760839
2937.616690	594.965035
2938.885749	589.827972
2940.157673	587.937063
2941.427859	587.850350
2942.697841	588.654545
2943.967620	586.465734
2945.235662	582.737063
2946.501969	586.316084
2947.768073	587.426573
2949.035508	587.606993
2950.301207	590.481119
2951.566704	593.934266
2952.831999	592.637762
2954.094030	594.307692
2955.357390	597.534266
2956.620549	596.034965
2957.881975	594.907692
2959.144731	589.963636
2960.405756	593.977622
2961.665050	597.275524
2962.924143	598.071329
2964.183036	595.748252
2965.441729	590.104895
2966.700222	591.881119
2967.956986	583.013986
2969.213551	579.510490
2970.468387	577.809790
2971.724553	573.805594
2972.977463	573.923077
2974.231703	571.148252
2975.485744	575.563636
2976.738059	574.440559
2977.990176	577.257343
2979.240568	574.310490
2980.493815	569.572028
2981.742285	571.436364
2982.993609	558.630769
2984.241685	554.288112
2985.489563	557.446154
2986.737244	556.397203
2987.984729	560.008392
2989.230492	560.934266
2990.476058	564.525874
2991.722953	568.804196
2992.966602	577.132867
2994.211580	579.956643
2995.453315	576.092308
2996.697901	570.372028
2997.940768	566.690909
2999.180393	564.963636
3000.422870	561.602797
3001.662106	557.927273
3002.902670	561.160839
3004.141517	560.429371
3005.380170	558.163636
3006.617107	560.160839
3007.855371	565.202797
3009.091921	561.444755
3010.328277	556.861538
3011.564439	553.411189
3012.798887	557.253147
3014.033142	555.773427
3015.267204	550.454545
3016.499554	550.479720
3017.730192	553.483916
3018.963676	547.546853
3020.195449	543.895105
3021.425510	544.825175
3022.655380	545.832168
3023.883540	545.791608
3025.113027	546.772028
3026.340804	551.625175
3027.568390	550.283916
3028.797302	547.461538
3030.021472	545.759441
3031.248485	544.844755
3032.472275	546.883916
3033.697390	543.806993
3034.920799	543.085315
3036.144019	542.969231
3037.365533	543.742657
3038.589888	547.994406
3039.809508	545.071329
3041.030454	546.390210
3042.251210	543.226573
3043.470263	544.542657
3044.690642	547.130070
3045.907804	549.004196
3047.126291	553.346853
3048.343077	557.130070
3049.559674	557.346853
3050.776084	554.462937
3051.989280	554.717483
3053.205314	556.918881
3054.418136	549.584615
3055.633795	543.588811
3056.844731	536.158042
3058.056993	532.274126
3059.269067	529.902098
3060.480955	525.760839
3061.691145	523.120280
3062.901150	522.700000
3064.110968	522.765035
3065.319090	525.616084
3066.527026	532.802797
3067.733268	533.153147
3068.940834	529.611189
3070.146705	528.049650
3071.352391	523.546853
3072.557893	523.720979
3073.761701	526.293706
3074.966833	524.818881
3076.170272	521.479720
3077.372019	520.438462
3078.573583	520.069930
3079.774963	525.100699
3080.976159	525.911888
3082.175665	522.013986
3083.374987	521.173427
3084.575633	520.276923
3085.774590	519.181818
3086.970351	519.763636
3088.168942	521.527273
3089.364339	524.882517
3090.561060	523.679720
3091.754588	525.623776
3092.950944	531.758042
3094.145613	535.107692
3095.337092	536.841958
3096.532902	537.082517
3097.724019	532.289510
3098.916459	531.735664
3100.105710	529.695105
3101.297788	523.532867
3102.488182	522.580420
3103.675389	525.057343
3104.863920	520.993007
3106.053773	518.559441
3107.240441	522.300699
3108.426930	515.055944
3109.613239	516.499301
3110.800871	519.158042
3111.985320	513.412587
3113.168089	516.107692
3114.353682	516.300699
3115.537594	514.323077
3116.719828	519.265734
3117.901884	515.753846
3119.083761	510.099301
3120.265460	511.655944
3121.445482	512.215385
3122.623826	507.468531
3123.804992	507.102098
3124.982982	508.332867
3126.160795	506.197203
3127.338431	506.800000
3128.514392	507.805594
3129.690177	506.272727
3130.867282	512.085315
3132.042714	508.741259
3133.216472	514.402797
3134.388557	518.805594
3135.561963	522.497902
3136.735194	530.058741
3137.906752	533.586014
3139.079632	537.987413
3140.249344	535.647552
3141.420377	530.274126
3142.589739	522.706294
3143.757432	518.895105
3144.927940	518.709091
3146.093789	515.085315
3147.263948	511.640559
3148.429449	511.160839
3149.594777	508.454545
3150.759931	511.539860
3151.924912	510.078322
3153.091212	509.903497
3154.252859	500.732867
3155.415827	497.822378
3156.578621	491.737063
3157.741243	493.653147
3158.902200	495.320280
3160.062984	495.289510
3161.223597	491.033566
3162.382545	489.444755
3163.541321	488.521678
3164.699926	490.643357
3165.858359	490.482517
3167.016620	491.137063
3168.173219	484.211189
3169.328157	487.548252
3170.484414	488.716084
3171.639011	486.427972
3172.793436	490.674126
3173.946202	490.651748
3175.098798	489.669930
3176.251224	490.409790
3177.403479	495.232168
3178.555565	491.372028
3179.704504	491.748252
3180.856250	491.882517
3182.006339	489.068531
3183.154770	491.962238
3184.303033	489.804196
3185.451127	486.871329
3186.599052	499.250350
3187.745321	500.629371
3188.891422	503.384615
3190.035869	508.657343
3191.180147	512.418182
3192.324258	512.127273
3193.469687	512.853147
3194.611977	515.573427
3195.754099	512.626573
3196.896055	512.906294
3198.037843	510.931469
3199.179464	507.089510
3200.317949	508.060140
3201.457753	499.527273
3202.598873	496.875524
3203.736859	497.337063
3204.873196	494.713287
3206.009367	492.861538
3207.146856	490.886713
3208.282696	497.006993
3209.419852	500.840559
3210.552397	507.311888
3211.689222	505.994406
3212.821436	500.728671
3213.954968	493.351049
3215.088334	489.103497
3216.218573	489.186014
3217.351611	486.025175
3218.481521	483.288112
3219.612749	482.384615
3220.740851	480.304895
3221.871751	487.702098
3223.001006	489.706294
3224.128617	492.324476
3225.253107	488.363636
3226.381872	488.012587
3227.507515	481.843357
3228.632995	480.036364
3229.756834	478.026573
3230.883468	475.732867
3232.005503	472.121678
3233.128855	470.862937
3234.252045	469.367832
3235.375073	469.282517
3236.496461	469.556643
3237.617688	469.131469
3238.737276	469.794406
3239.856703	475.541259
3240.974493	475.507692
3242.095074	476.502098
3243.212542	480.476923
3244.329849	481.969231
3245.446995	480.714685
3246.562506	485.125874
3247.679332	484.125874
3248.793047	481.483916
3249.909553	481.944056
3251.024423	477.700699
3252.136185	479.083916
3253.247788	478.219580
3254.360706	475.749650
3255.473464	474.139860
3256.583116	468.962238
3257.694083	462.798601
3258.804891	458.553846
3259.914067	458.186014
3261.021612	455.142657
3262.130472	457.264336
3263.239173	456.655944
3264.344772	459.292308
3265.451686	456.458741
3266.556970	456.379021
3267.663568	457.790210
3268.767066	460.250350
3269.871878	462.440559
3270.976533	466.535664
3272.078090	467.800000
3273.179490	471.855944
3274.282204	472.321678
3275.384761	475.721678
3276.484223	469.808392
3277.586467	472.316084
3278.685617	465.359441
3279.783141	468.847552
3280.880510	469.865734
3281.980662	474.448951
3283.077720	474.460140
3284.174624	477.949650
3285.271372	474.306294
3286.363561	477.204196
3287.460000	469.450350
3288.554816	465.420979
3289.649477	458.857343
3290.742517	460.876923
3291.835403	457.984615
3292.926668	459.686713
3294.019246	451.078322
3295.110204	448.506294
3296.199542	442.751049
3297.288727	437.797203
3298.379224	435.790210
3299.466637	434.219580
3300.553898	429.545455
3301.642471	429.780420
3302.730891	436.262937
3303.814764	443.664336
3304.902879	445.738462
3305.987913	449.611189
3307.071331	449.272727
3308.156061	455.881119
3309.239175	455.598601
3310.323601	454.437762
3311.404949	460.011189
3312.487609	452.735664
3313.568655	449.439161
3314.649550	450.972028
3315.728832	455.155245
3316.807963	456.425175
3317.888406	456.907692
3318.965774	456.170629
3320.044454	454.159441
3321.121522	450.149650
3322.198440	445.693706
3323.273748	443.565035
3324.348906	437.111888
3325.425375	428.537063
3326.498773	424.346853
3327.572023	426.813986
3328.646584	427.766434
3329.719535	429.998601
3330.790879	435.134266
3331.863533	435.358042
3332.933120	439.051748
3334.004018	440.047552
3335.073309	441.406993
3336.143911	441.023776
3337.212906	434.678322
3338.280295	430.953846
3339.346079	428.395804
3340.416089	427.890909
3341.483036	426.264336
3342.546921	424.432168
3343.613574	427.657343
3344.678623	424.756643
3345.742068	425.997203
3346.805366	424.523077
3347.868519	419.142657
3348.931525	416.327273
3349.994384	408.998601
3351.055642	406.483916
3352.113843	410.710490
3353.176265	417.208392
3354.235630	416.360839
3355.294851	421.867133
3356.355380	426.162238
3357.411400	425.871329
3358.470185	430.416783
3359.524462	431.363636
3360.581503	429.323077
3361.636945	432.546853
3362.693696	433.334266
3363.748850	433.918881
3364.802406	435.980420
3365.854365	437.260140
3366.909086	431.208392
3367.960759	430.093706
3369.012287	425.437762
3370.065125	424.489510
3371.114915	424.197203
3372.166014	425.772028
3373.214066	427.584615
3374.264879	433.781818
3375.312646	437.338462
3376.360271	437.688112
3377.407754	437.425175
3378.453643	438.606993
3379.500842	435.511888
3380.544997	433.262937
3381.591911	431.088112
3382.637233	429.997203
3383.679515	427.092308
3384.721655	426.612587
3385.765104	424.553846
3386.808411	426.309091
3387.850128	428.439161
3388.891704	427.765035
3389.933140	423.304895
3390.972987	423.510490
3392.011245	420.416783
3393.050811	425.402797
3394.090237	427.517483
3395.128075	426.131469
3396.164326	426.106294
3397.200437	426.453147
3398.237856	427.867133
3399.272242	426.627972
3400.307936	423.932867
3401.343490	421.924476
3402.376012	418.110490
3403.411288	420.283916
3404.443533	422.309091
3405.475640	427.753846
3406.506163	429.509091
3407.537994	425.660140
3408.569686	423.699301
3409.598350	423.772028
3410.626877	420.015385
3411.656710	412.566434
3412.686406	411.620979
3413.713075	412.216783
3414.741052	414.815385
3415.766004	415.151049
3416.793706	417.871329
3417.818385	417.791608
3418.844370	420.833566
3419.868776	419.854545
3420.893044	417.916084
3421.915734	416.279720
3422.938289	413.917483
3423.962148	417.163636
3424.982989	417.299301
3426.003693	416.904695
3427.025703	416.167782
3428.044695	415.063736
3429.063552	413.567732
3430.083715	411.654945
3431.100860	409.300549
