-118.155753	-5.800000
-115.486152	20.000000
-112.819487	-18.000000
-110.153575	5.800000
-107.490594	3.600000
-104.826183	-15.200000
-102.164703	-9.800000
-99.501794	12.800000
-96.843992	17.400000
-94.184759	-0.600000
-91.526275	21.800000
-88.870716	40.600000
-86.213728	-6.200000
-83.561837	16.800000
-80.908517	-40.400000
-78.258117	2.200000
-75.606287	-10.800000
-72.959548	-12.600000
-70.311379	-15.200000
-67.663954	23.400000
-65.019442	12.600000
-62.373501	-30.400000
-59.732643	-23.200000
-57.090354	24.600000
-54.450975	10.200000
-51.810167	23.200000
-49.170098	-27.000000
-46.535103	39.600000
-43.898678	19.800000
-41.265157	33.600000
-38.630206	-4.400000
-36.000322	-12.000000
-33.366844	16.400000
-30.738429	32.800000
-28.110748	26.600000
-25.481639	32.600000
-22.857586	4.000000
-20.229944	63.600000
-17.607355	50.200000
-14.985497	109.400000
-12.364370	166.800000
-9.743974	480.600000
-7.126465	1524.600000
-4.507528	4919.600000
-1.891477	11782.000000
0.723846	15609.600000
3.338442	9967.200000
5.950156	1375.600000
8.563297	125.400000
11.171405	65.000000
13.783095	35.200000
16.389754	33.800000
18.997841	-13.800000
21.605204	27.400000
24.207542	25.400000
26.813458	30.800000
29.414353	9.600000
32.016675	-23.800000
34.613979	-23.000000
37.214859	9.800000
39.810725	23.800000
42.408018	23.400000
45.004592	7.800000
47.596157	47.200000
50.189150	-2.600000
52.779282	7.200000
55.370842	-20.800000
57.959542	40.200000
60.549670	3.400000
63.134798	16.400000
65.721354	11.600000
68.307195	35.000000
70.890183	-5.800000
73.474598	17.200000
76.051883	6.200000
78.632735	-2.600000
81.210738	9.800000
83.788031	38.200000
86.366750	20.400000
88.940488	23.200000
91.515652	17.600000
94.087973	16.600000
96.659587	-17.800000
99.228360	4.400000
101.798560	-23.800000
104.365921	13.400000
106.934709	21.400000
109.500659	23.800000
112.063775	27.400000
114.630448	16.800000
117.187898	20.000000
119.751034	38.400000
122.309211	53.600000
124.870942	70.800000
127.427716	116.400000
129.985916	198.400000
132.539164	276.200000
135.091713	358.000000
137.647814	532.800000
140.198966	711.200000
142.749420	808.400000
145.299178	924.600000
147.846116	1010.400000
150.392358	1060.600000
152.940027	1095.200000
155.486999	1103.600000
158.029035	1125.800000
160.570378	1086.400000
163.111029	1127.200000
165.653104	1079.200000
168.192369	1063.800000
170.728824	1094.200000
173.264589	1071.200000
175.801779	1085.800000
178.338277	1068.200000
180.871971	1056.400000
183.402860	1081.800000
185.933061	1036.400000
188.464687	1036.800000
190.993513	1066.800000
193.519539	989.400000
196.044879	1034.200000
198.571644	1126.200000
201.095613	1034.600000
203.618896	1016.600000
206.141495	1026.600000
208.661301	1038.000000
211.180424	1064.800000
213.698864	1081.800000
216.218728	1070.800000
218.731591	1033.400000
221.247985	1035.400000
223.763698	1042.800000
226.274520	1064.200000
228.786767	1072.200000
231.296231	1066.000000
233.805017	1102.600000
236.313125	1099.200000
238.822657	1058.600000
241.327308	1099.800000
243.831283	1038.200000
246.336682	1109.000000
248.837206	1140.800000
251.341253	1122.600000
253.838330	1062.800000
256.338929	1141.200000
258.836757	1123.400000
261.333912	1158.000000
263.830394	1160.400000
266.322014	1146.200000
268.817152	1193.000000
271.309525	1163.200000
273.801227	1101.600000
276.290166	1180.800000
278.780528	1169.400000
281.268129	1185.600000
283.752970	1165.800000
286.241325	1193.600000
288.722742	1161.000000
291.207672	1141.000000
293.687756	1133.200000
296.171353	1159.200000
298.650108	1169.200000
301.130285	1238.400000
303.607711	1171.600000
306.084473	1194.400000
308.560571	1200.000000
311.033921	1275.600000
313.506610	1289.000000
315.978637	1402.800000
318.450002	1523.800000
320.918624	1635.200000
323.386586	1663.600000
325.855971	1552.800000
328.320533	1395.200000
330.788598	1385.800000
333.251844	1305.200000
335.714433	1310.800000
338.176364	1292.000000
340.637639	1303.400000
343.096180	1273.600000
345.556143	1242.000000
348.013374	1237.000000
350.469950	1285.400000
352.925871	1286.800000
355.379064	1274.000000
357.833679	1294.200000
360.283492	1273.200000
362.736801	1267.400000
365.185311	1320.400000
367.633171	1236.800000
370.082452	1293.600000
372.526940	1294.800000
374.972850	1242.600000
377.418111	1243.400000
379.860653	1284.200000
382.302547	1230.600000
384.743793	1262.600000
387.182324	1284.600000
389.622277	1254.400000
392.059516	1312.800000
394.494043	1299.000000
396.932058	1258.200000
399.365296	1248.000000
401.799956	1254.200000
404.229843	1241.800000
406.663215	1298.200000
409.091816	1254.200000
411.519777	1288.200000
413.949158	1298.000000
416.373775	1268.400000
418.799812	1277.800000
421.225210	1335.400000
423.649967	1261.000000
426.069965	1293.400000
428.491385	1266.200000
430.910108	1291.600000
433.330252	1267.000000
435.747701	1294.200000
438.166570	1317.600000
440.582746	1259.800000
442.994175	1320.600000
445.409080	1284.400000
447.821295	1290.000000
450.232876	1306.000000
452.643823	1279.600000
455.052084	1267.800000
457.459713	1290.400000
459.866709	1292.000000
462.273073	1248.000000
464.676756	1264.600000
467.079808	1254.600000
469.482230	1214.000000
471.884022	1265.200000
474.283136	1196.400000
476.683670	1181.800000
479.083575	1199.000000
481.478757	1199.200000
483.877406	1211.600000
486.271335	1220.400000
488.664638	1251.400000
491.057315	1186.800000
493.449367	1191.800000
495.842838	1127.600000
498.231596	1102.600000
500.617688	1111.000000
503.005200	1017.600000
505.392088	973.600000
507.776313	946.400000
510.161957	924.000000
512.544938	889.800000
514.925259	875.400000
517.306999	817.600000
519.686080	822.200000
522.066580	814.200000
524.444422	791.800000
526.819609	766.000000
529.194178	778.600000
531.570166	785.600000
533.943500	756.400000
536.318253	734.000000
538.688319	767.000000
541.057770	728.800000
543.428640	714.800000
545.794828	690.400000
548.162435	708.200000
550.527396	731.600000
552.891744	710.800000
555.255480	713.000000
557.620633	725.400000
559.981114	708.000000
562.343012	696.000000
564.702271	687.200000
567.058891	665.800000
569.418957	693.400000
571.772331	696.000000
574.129150	677.800000
576.483334	663.400000
578.836909	656.400000
581.189876	644.800000
583.540212	669.200000
585.891964	657.600000
588.237040	705.200000
590.587580	675.000000
592.931447	693.000000
595.280775	708.400000
597.625454	620.000000
599.967509	669.000000
602.310981	685.000000
604.651830	650.400000
606.992076	644.200000
609.329702	661.000000
611.670763	626.200000
614.007187	656.200000
616.345027	630.000000
618.680249	621.400000
621.012856	620.800000
623.346880	634.800000
625.678289	674.200000
628.009100	610.000000
630.339313	595.400000
632.668929	604.600000
634.993921	592.000000
637.324355	599.200000
639.650167	626.200000
641.973373	615.800000
644.297995	596.800000
646.620011	602.800000
648.941433	590.000000
651.260252	604.400000
653.580487	592.400000
655.900129	578.000000
658.217170	571.800000
660.533620	574.800000
662.847471	587.600000
665.162737	580.800000
667.475407	576.400000
669.789492	565.200000
672.098978	574.800000
674.409878	592.400000
676.718186	543.000000
679.025906	575.600000
681.335041	538.000000
683.639583	554.800000
685.943539	533.000000
688.246908	531.800000
690.551692	540.600000
692.851890	503.000000
695.153503	534.600000
697.454530	541.800000
699.750976	514.800000
702.048836	538.400000
704.346114	557.000000
706.642807	539.200000
708.934925	522.000000
711.230454	562.000000
713.521410	525.400000
715.813780	537.000000
718.103574	517.000000
720.392789	572.800000
722.681423	532.200000
724.967486	496.000000
727.254962	548.400000
729.539868	506.800000
731.824195	529.800000
734.105955	569.800000
736.389128	578.800000
738.671724	541.800000
740.949764	541.200000
743.229218	544.400000
745.508097	565.400000
747.786400	524.400000
750.060154	565.600000
752.335322	564.600000
754.609916	528.200000
756.881951	563.600000
759.155399	581.400000
761.426289	562.600000
763.694622	555.200000
765.964370	561.800000
768.231562	571.600000
770.498184	545.400000
772.764237	587.400000
775.027738	555.000000
777.292651	612.600000
779.556996	603.400000
781.816810	564.400000
784.078038	600.600000
786.338698	588.600000
788.596811	594.000000
790.852380	578.400000
793.111340	612.000000
795.363801	587.000000
797.621629	595.200000
799.874938	552.600000
802.125706	600.000000
804.377887	566.000000
806.627530	595.600000
808.878584	571.800000
811.125127	584.000000
813.373083	561.400000
815.618503	577.600000
817.865336	564.400000
820.111606	540.200000
822.353373	526.600000
824.598522	568.600000
826.837199	556.600000
829.079259	543.600000
831.316820	571.200000
833.555792	568.800000
835.792238	556.200000
838.030096	555.200000
840.265428	496.800000
842.498236	531.000000
844.732456	521.600000
846.964154	530.800000
849.195297	501.200000
851.425885	486.600000
853.655919	489.400000
855.885398	553.000000
858.110397	524.400000
860.338769	514.800000
862.562663	518.800000
864.787967	497.800000
867.008796	521.000000
869.232997	523.200000
871.452725	515.200000
873.673864	508.200000
875.894452	521.000000
878.112531	548.200000
880.332019	530.800000
882.547041	539.800000
884.761515	502.400000
886.975442	579.200000
889.188821	522.600000
891.401654	546.800000
893.613939	515.400000
895.823723	520.400000
898.032961	541.600000
900.241653	543.800000
902.447847	505.600000
904.655450	537.000000
906.860556	521.600000
909.065118	520.600000
911.267185	523.600000
913.470661	499.000000
915.671643	490.400000
917.872083	534.000000
920.073932	520.400000
922.269390	502.800000
924.468206	511.200000
926.662585	515.000000
928.860321	530.000000
931.053621	512.000000
933.248329	563.200000
935.440552	537.600000
937.632237	545.800000
939.823384	531.600000
942.012048	520.400000
944.200175	537.400000
946.385822	543.800000
948.574821	554.400000
950.759397	564.600000
952.943438	581.800000
955.130829	579.200000
957.309917	595.000000
959.492354	601.600000
961.674258	622.600000
963.853688	624.000000
966.030645	663.600000
968.209010	598.400000
970.388781	638.400000
972.562204	630.600000
974.738973	661.800000
976.911336	687.400000
979.085106	666.800000
981.254472	661.200000
983.427182	691.600000
985.597426	688.400000
987.767142	674.800000
989.936329	705.000000
992.101119	716.800000
994.269251	668.400000
996.432987	728.000000
998.598131	738.600000
1000.760815	739.600000
1002.922974	727.800000
1005.082675	746.000000
1007.241853	695.600000
1009.402437	777.000000
1011.560566	720.000000
1013.718171	760.400000
1015.875253	763.600000
1018.031812	765.200000
1020.183991	768.000000
1022.337577	788.200000
1024.490640	755.600000
1026.641256	789.800000
1028.793277	775.200000
1030.940925	817.000000
1033.091905	804.600000
1035.238515	841.200000
1037.384605	842.000000
1039.530177	816.400000
1041.677153	793.400000
1043.817842	836.200000
1045.961859	848.400000
1048.103437	878.800000
1050.244497	869.600000
1052.386962	866.200000
1054.523148	879.400000
1056.662660	875.200000
1058.797816	856.200000
1060.936297	880.800000
1063.070425	849.600000
1065.204039	891.200000
1067.339057	884.600000
1069.469726	858.200000
1071.601801	848.600000
1073.731445	857.000000
1075.860578	824.400000
1077.989200	791.000000
1080.117310	837.800000
1082.242994	818.400000
1084.368168	795.200000
1086.494745	773.400000
1088.616986	769.600000
1090.740631	747.000000
1092.859941	741.400000
1094.984480	770.600000
1097.102775	734.800000
1099.222473	779.000000
1101.339753	710.000000
1103.456527	746.000000
1105.572794	707.400000
1107.686646	697.000000
1109.801901	737.000000
1111.912834	719.000000
1114.027078	694.400000
1116.137003	709.400000
1118.248330	702.800000
1120.359154	727.600000
1122.465661	712.400000
1124.575477	691.600000
1126.680979	703.000000
1128.787885	631.200000
1130.888574	676.400000
1132.994476	692.800000
1135.096069	655.000000
1137.199065	687.000000
1139.301560	649.400000
1141.397849	667.800000
1143.499344	652.800000
1145.596537	640.400000
1147.693231	642.400000
1149.789428	645.200000
1151.885126	634.200000
1153.980327	678.600000
1156.073131	640.000000
1158.167337	626.400000
1160.255352	661.600000
1162.348565	646.800000
1164.435590	628.800000
1166.525915	677.200000
1168.611951	629.600000
1170.701285	650.400000
1172.784438	646.400000
1174.868994	666.000000
1176.954950	606.200000
1179.036625	675.000000
1181.119702	658.400000
1183.200393	673.400000
1185.280593	673.600000
1187.360301	664.400000
1189.439518	639.200000
1191.516352	670.200000
1193.590806	631.600000
1195.668552	664.400000
1197.742027	586.000000
1199.816904	651.000000
1201.887513	625.000000
1203.959523	646.200000
1206.029157	589.600000
1208.100192	642.400000
1210.170739	611.800000
1212.237025	630.000000
1214.304712	651.000000
1216.370027	629.200000
1218.436742	602.200000
1220.499201	640.400000
1222.564946	627.200000
1224.626436	627.800000
1226.689326	641.000000
1228.749849	604.000000
1230.809889	582.000000
1232.869445	596.000000
1234.926637	632.400000
1236.983346	604.200000
1239.037693	610.600000
1241.095320	626.800000
1243.150585	620.800000
1245.201609	591.000000
1247.254033	636.000000
1249.305978	639.800000
1251.355564	615.200000
1253.404671	633.000000
1255.453299	591.000000
1257.501449	634.000000
1259.549121	630.000000
1261.592562	616.200000
1263.639278	599.600000
1265.683642	646.200000
1267.727528	647.800000
1269.769064	633.600000
1271.808250	578.400000
1273.850708	668.400000
1275.888945	636.800000
1277.928579	674.200000
1279.967739	650.600000
1282.002681	706.600000
1284.039021	666.400000
1286.073016	670.800000
1288.108410	685.200000
1290.139590	704.800000
1292.172169	727.800000
1294.204275	725.800000
1296.234041	765.200000
1298.265205	770.600000
1300.292161	749.400000
1302.320515	812.000000
1304.344665	805.200000
1306.372080	848.000000
1308.395292	861.400000
1310.419902	860.200000
1312.442177	891.800000
1314.465850	897.200000
1316.487190	934.400000
1318.508063	1032.200000
1320.528468	978.200000
1322.544679	1059.000000
1324.562289	1036.000000
1326.577570	1084.200000
1328.596110	1159.600000
1330.610460	1174.600000
1332.622485	1146.400000
1334.637768	1172.800000
1336.648865	1178.800000
1338.661358	1192.600000
1340.669669	1187.400000
1342.681236	1178.400000
1344.686764	1170.600000
1346.695546	1116.400000
1348.700152	1099.600000
1350.708011	1091.400000
1352.715407	1042.400000
1354.716773	1017.800000
1356.719536	966.800000
1358.721839	930.200000
1360.723681	928.000000
1362.725065	928.800000
1364.724134	862.400000
1366.722745	846.600000
1368.720898	800.400000
1370.718593	793.200000
1372.712124	796.400000
1374.707052	752.600000
1376.701523	706.400000
1378.695537	716.800000
1380.687244	696.800000
1382.678495	717.000000
1384.667441	691.600000
1386.657782	708.800000
1388.647668	685.400000
1390.635251	684.600000
1392.622380	651.400000
1394.607207	660.400000
1396.593429	643.000000
1398.577350	620.200000
1400.560819	628.800000
1402.543836	662.200000
1404.524555	640.400000
1406.506668	646.400000
1408.486484	600.800000
1410.465850	640.600000
1412.441077	595.000000
1414.419542	635.600000
1416.395714	626.000000
1418.371436	628.200000
1420.346709	591.400000
1422.319691	624.400000
1424.292226	631.600000
1426.264312	597.800000
1428.235950	577.400000
1430.203461	639.600000
1432.176045	628.600000
1434.140823	644.600000
1436.110674	592.000000
1438.076400	599.800000
1440.043520	580.600000
1442.008356	629.200000
1443.969072	577.400000
1445.934856	600.000000
1447.894685	614.000000
1449.855907	608.400000
1451.818522	614.800000
1453.777022	593.000000
1455.735080	588.400000
1457.692695	581.600000
1459.649869	556.400000
1461.604767	644.800000
1463.561057	587.600000
1465.515073	605.600000
1467.468649	613.600000
1469.419952	612.800000
1471.372647	629.200000
1473.323071	577.600000
1475.273056	582.600000
1477.222601	604.000000
1479.169878	627.800000
1481.114888	594.800000
1483.061290	609.400000
1485.007254	607.600000
1486.952780	599.000000
1488.896042	614.200000
1490.838867	592.600000
1492.779429	615.400000
1494.721382	603.800000
1496.661074	582.600000
1498.600330	648.200000
1500.539152	640.000000
1502.475714	599.600000
1504.413666	607.200000
1506.349361	581.800000
1508.284622	635.200000
1510.217626	599.800000
1512.150198	599.600000
1514.082338	623.400000
1516.014046	624.400000
1517.943501	643.600000
1519.874345	624.000000
1521.804759	645.200000
1523.731100	681.000000
1525.658831	681.600000
1527.584312	699.800000
1529.509364	663.600000
1531.433987	702.400000
1533.358181	680.000000
1535.280128	702.000000
1537.203464	727.400000
1539.124555	745.600000
1541.043401	707.000000
1542.963637	769.400000
1544.881629	749.200000
1546.799195	807.400000
1548.714519	828.800000
1550.631233	863.200000
1552.543892	898.800000
1554.459755	978.200000
1556.373379	963.200000
1558.284764	1052.200000
1560.197538	989.000000
1562.106263	1047.000000
1564.016378	1038.200000
1565.926069	1045.800000
1567.835336	1058.600000
1569.742370	1093.000000
1571.647171	1087.600000
1573.553361	1090.000000
1575.457319	1063.600000
1577.360857	1076.000000
1579.263973	1024.000000
1581.164861	1054.400000
1583.067137	979.200000
1584.967184	967.600000
1586.868620	916.600000
1588.766021	959.600000
1590.663005	927.600000
1592.559570	897.200000
1594.457522	865.600000
1596.349640	922.200000
1598.244952	853.000000
1600.139845	891.400000
1602.032517	843.000000
1603.924773	861.800000
1605.814809	820.600000
1607.704429	846.000000
1609.593634	823.000000
1611.482423	815.600000
1613.368996	782.800000
1615.256955	739.000000
1617.140899	781.600000
1619.026229	740.400000
1620.911146	745.800000
1622.793849	712.800000
1624.677938	669.400000
1626.558017	686.400000
1628.439482	631.600000
1630.318737	625.200000
1632.199378	636.200000
1634.074215	603.400000
1635.954034	591.400000
1637.829847	592.600000
1639.705251	569.200000
1641.582040	579.400000
1643.453032	581.000000
1645.327206	539.600000
1647.197382	551.400000
1649.070738	591.000000
1650.941891	540.600000
1652.810842	557.800000
1654.681179	547.800000
1656.547522	550.800000
1658.415252	563.800000
1660.280782	585.200000
1662.147697	560.600000
1664.010624	550.800000
1665.874936	528.000000
1667.737053	540.600000
1669.598764	537.800000
1671.461860	544.200000
1673.322762	525.600000
1675.181470	533.000000
1677.039775	516.000000
1678.899465	542.800000
1680.753388	512.400000
1682.610483	530.000000
1684.467176	553.400000
1686.319893	528.400000
1688.175781	524.200000
1690.027695	499.600000
1691.879208	507.600000
1693.730320	514.800000
1695.581031	512.600000
1697.431342	545.400000
1699.279469	535.800000
1701.128979	509.000000
1702.972741	497.600000
1704.821453	498.200000
1706.664418	500.200000
1708.510549	521.600000
1710.352719	488.800000
1712.198053	516.200000
1714.037647	532.400000
1715.878625	521.600000
1717.720986	517.600000
1719.559391	542.400000
1721.399179	507.200000
1723.236792	484.400000
1725.074009	482.000000
1726.909053	500.800000
1728.745480	483.600000
1730.579735	491.000000
1732.413596	518.200000
1734.247062	502.600000
1736.076582	491.600000
1737.909261	506.200000
1739.737996	524.400000
1741.569889	493.200000
1743.397839	485.600000
1745.225397	464.800000
1747.052564	478.200000
1748.879338	484.800000
1750.705722	475.200000
1752.528169	512.000000
1754.353770	485.000000
1756.175437	484.000000
1757.998486	530.800000
1759.819374	495.600000
1761.639872	486.600000
1763.461752	515.600000
1765.277932	501.400000
1767.097264	497.600000
1768.912669	499.800000
1770.731225	512.200000
1772.545855	487.200000
1774.360098	473.400000
1776.173955	516.800000
1777.987425	501.200000
1779.798741	518.400000
1781.611439	474.400000
1783.423750	489.600000
1785.232144	475.600000
1787.041919	477.200000
1788.847778	478.400000
1790.656784	467.400000
1792.461876	489.000000
1794.268348	495.200000
1796.074437	490.400000
1797.876616	490.200000
1799.681938	507.000000
1801.483352	472.400000
1803.286146	499.600000
1805.085035	464.000000
1806.885303	491.000000
1808.685191	523.200000
1810.482936	458.800000
1812.280301	516.600000
1814.077285	487.200000
1815.873889	494.400000
1817.668354	493.200000
1819.464199	468.800000
1821.254388	494.400000
1823.049474	451.800000
1824.838907	474.400000
1826.631478	522.200000
1828.421913	474.400000
1830.210213	456.800000
1832.001649	497.000000
1833.787440	467.800000
1835.574609	485.800000
1837.359647	482.200000
1839.147819	509.400000
1840.932105	467.000000
1842.714262	460.600000
1844.497797	503.600000
1846.279205	489.400000
1848.061990	478.200000
1849.840896	512.400000
1851.621180	446.200000
1853.399339	496.800000
1855.178875	502.200000
1856.956287	487.400000
1858.731575	500.600000
1860.508242	505.600000
1862.282786	488.400000
1864.058707	473.200000
1865.829009	489.200000
1867.602438	479.000000
1869.373747	499.800000
1871.144685	498.000000
1872.917000	522.800000
1874.683703	519.800000
1876.453530	490.200000
1878.219494	496.800000
1879.988582	474.200000
1881.753808	490.000000
1883.518666	482.000000
1885.284900	488.400000
1887.047276	443.400000
1888.809285	466.400000
1890.570927	449.000000
1892.332201	489.800000
1894.093109	490.000000
1895.853649	473.200000
1897.612080	497.600000
1899.370146	507.000000
1901.126104	500.800000
1902.883438	434.600000
1904.640406	509.000000
1906.395269	510.600000
1908.148026	471.600000
1909.900420	484.800000
1911.654190	494.800000
1913.405856	492.800000
1915.155419	470.400000
1916.906359	483.200000
1918.656935	467.400000
1920.403673	451.800000
1922.151786	479.000000
1923.897800	476.200000
1925.645190	465.200000
1927.390481	469.600000
1929.133675	446.000000
1930.878245	524.400000
1932.620718	462.200000
1934.362831	490.600000
1936.104585	490.000000
1937.845978	524.600000
1939.585278	509.400000
1941.324219	492.200000
1943.062801	445.800000
1944.799291	485.000000
1946.535424	459.600000
1948.272931	434.200000
1950.006617	480.000000
1951.741677	496.800000
1953.474648	469.800000
1955.207263	510.000000
1956.939521	482.800000
1958.671423	481.800000
1960.401239	516.000000
1962.128971	503.200000
1963.858077	483.600000
1965.586827	502.600000
1967.313494	506.400000
1969.039807	492.400000
1970.767493	509.600000
1972.489643	495.000000
1974.214895	473.400000
1975.936339	494.000000
1977.660883	487.800000
1979.383348	491.400000
1981.102009	496.600000
1982.823769	504.000000
1984.541727	484.800000
1986.261059	484.000000
1987.976590	518.000000
1989.696943	532.400000
1991.413496	501.400000
1993.126254	515.600000
1994.842107	489.000000
1996.555888	512.000000
1998.269318	485.400000
1999.980678	505.200000
2001.693411	518.000000
2003.402352	523.000000
2005.114387	476.600000
2006.820912	531.200000
2008.530530	502.800000
2010.238080	505.000000
2011.945283	494.800000
2013.650420	503.200000
2015.355210	495.400000
2017.061372	537.600000
2018.763752	503.200000
2020.467504	507.400000
2022.169193	490.800000
2023.870536	504.600000
2025.571534	513.000000
2027.270472	501.200000
2028.970781	496.400000
2030.667314	505.600000
2032.365219	505.600000
2034.061066	517.000000
2035.759998	490.800000
2037.453444	519.000000
2039.148261	509.400000
2040.842735	521.200000
2042.533441	512.000000
2044.227231	520.400000
2045.917254	483.200000
2047.608648	509.600000
2049.297989	494.600000
2050.988700	520.400000
2052.675649	492.200000
2054.362257	518.800000
2056.050236	496.200000
2057.734455	501.200000
2059.420044	508.600000
2061.105294	495.400000
2062.788496	485.400000
2064.473068	503.600000
2066.152176	486.000000
2067.836070	496.200000
2069.514504	465.400000
2071.196015	488.600000
2072.873774	480.200000
2074.551197	529.000000
2076.229989	479.800000
2077.906738	483.600000
2079.581446	502.000000
2081.257523	495.000000
2082.931560	498.600000
2084.605261	486.000000
2086.278627	482.000000
2087.949955	472.000000
2089.620948	506.400000
2091.291607	505.800000
2092.961932	512.400000
2094.631922	477.800000
2096.299877	486.400000
2097.967499	496.400000
2099.633087	506.400000
2101.300043	496.200000
2102.964966	482.800000
2104.629556	462.000000
2106.292115	473.200000
2107.956043	510.200000
2109.617939	483.400000
2111.279504	543.600000
2112.940739	479.800000
2114.599944	501.400000
2116.258820	536.400000
2117.917365	482.000000
2119.575581	529.600000
2121.230074	498.400000
2122.887631	503.200000
2124.544858	490.600000
2126.198365	502.600000
2127.853239	476.600000
2129.504394	494.600000
2131.158612	498.600000
2132.809112	480.400000
2134.460980	472.800000
2136.107439	500.000000
2137.758652	502.600000
2139.406153	503.400000
2141.055020	495.600000
2142.701868	504.000000
2144.348391	491.800000
2145.994588	488.400000
2147.637076	504.400000
2149.282623	481.000000
2150.924463	479.600000
2152.569360	470.200000
2154.210552	511.000000
2155.851420	486.400000
2157.491965	492.400000
2159.130497	502.600000
2160.770395	499.000000
2162.406593	499.600000
2164.044157	507.400000
2165.681399	503.800000
2167.316631	514.400000
2168.951541	516.800000
2170.586130	493.800000
2172.220398	500.400000
2173.850972	522.600000
2175.484597	494.000000
2177.114531	488.800000
2178.745830	488.000000
2180.375125	512.400000
2182.004099	497.000000
2183.632755	494.800000
2185.261091	499.400000
2186.887424	499.200000
2188.513439	478.000000
2190.137453	519.200000
2191.762832	498.200000
2193.386210	525.400000
2195.010953	490.200000
2196.632014	493.000000
2198.252760	479.400000
2199.874869	484.800000
2201.494981	495.800000
2203.113097	490.000000
2204.730897	502.000000
2206.348381	481.600000
2207.965550	478.200000
2209.582404	492.200000
2211.198943	463.200000
2212.813488	461.200000
2214.426042	493.200000
2216.039959	482.400000
2217.651884	485.600000
2219.265174	488.000000
2220.876472	499.200000
2222.485782	501.800000
2224.096454	449.000000
2225.705138	509.400000
2227.313510	489.600000
2228.919894	499.000000
2230.527642	479.600000
2232.133403	496.400000
2233.738853	461.800000
2235.342319	478.200000
2236.947147	445.800000
2238.549991	519.800000
2240.150852	491.400000
2241.753076	465.800000
2243.353317	496.800000
2244.954922	518.200000
2246.552873	500.200000
2248.152187	467.400000
2249.749521	494.800000
2251.346547	459.200000
2252.944934	499.000000
2254.539673	527.200000
2256.132436	486.200000
2257.726560	496.200000
2259.322046	491.200000
2260.913888	503.800000
2262.505423	487.600000
2264.098319	502.800000
2265.685906	492.000000
2267.278190	514.400000
2268.865166	495.000000
2270.455171	491.800000
2272.039871	482.000000
2273.629265	511.200000
2275.213356	463.000000
2276.798809	464.400000
2278.382293	493.600000
2279.968802	482.800000
2281.551678	447.800000
2283.134250	490.600000
2284.716520	447.200000
2286.295159	451.400000
2287.876822	489.000000
2289.454858	491.600000
2291.035916	458.400000
2292.613347	462.100000
2294.188815	465.800000
2295.767305	471.600000
2297.342170	490.800000
2298.916735	474.400000
2300.491000	468.000000
2302.064964	494.800000
2303.638628	447.600000
2305.211991	461.400000
2306.781736	444.600000
2308.351182	470.600000
2309.923647	458.200000
2311.490837	473.200000
2313.061044	453.000000
2314.627637	448.600000
2316.195590	456.800000
2317.761588	465.800000
2319.327288	477.000000
2320.892690	510.000000
2322.456139	516.200000
2324.020947	505.600000
2325.582146	531.600000
2327.146360	550.200000
2328.705313	535.200000
2330.267279	564.400000
2331.827295	488.600000
2333.387015	493.800000
2334.944786	447.400000
2336.502263	532.800000
2338.059444	455.400000
2339.614679	483.800000
2341.169619	481.600000
2342.724266	491.000000
2344.278619	477.000000
2345.832678	474.600000
2347.386444	452.200000
2348.938265	496.000000
2350.488143	446.600000
2352.041029	448.400000
2353.588673	465.800000
2355.139324	511.600000
2356.686385	489.800000
2358.234803	521.800000
2359.782929	474.200000
2361.327468	508.000000
2362.873364	449.800000
2364.417321	468.800000
2365.962636	459.000000
2367.504366	500.200000
2369.047454	478.000000
2370.588605	477.800000
2372.129467	499.800000
2373.670040	490.800000
2375.210324	499.000000
2376.750319	477.200000
2378.286735	515.400000
2379.826153	481.000000
2381.361994	452.600000
2382.899191	483.800000
2384.432814	505.800000
2385.969436	502.200000
2387.504127	480.000000
2389.036889	484.200000
2390.569365	474.400000
2392.099912	488.400000
2393.633457	477.200000
2395.161791	482.600000
2396.691481	524.600000
2398.220886	529.400000
2399.750006	500.800000
2401.278840	442.400000
2402.802470	479.000000
2404.330735	508.000000
2405.853797	461.400000
2407.381494	502.400000
2408.902350	492.600000
2410.427840	500.200000
2411.949770	486.800000
2413.473054	456.400000
2414.994418	471.600000
2416.513862	475.200000
2418.034661	491.400000
2419.553541	520.400000
2421.072139	454.400000
2422.588820	484.400000
2424.106856	473.600000
2425.624610	478.000000
2427.138812	522.000000
2428.652734	511.800000
2430.166377	499.600000
2431.681373	532.600000
2433.192821	489.200000
2434.705624	481.800000
2436.216514	483.000000
2437.727124	502.000000
2439.235823	525.600000
2440.747509	489.400000
2442.255651	494.400000
2443.763514	489.200000
2445.271100	496.200000
2446.775146	501.000000
2448.282176	500.000000
2449.787298	473.200000
2451.292143	495.200000
2452.795081	484.800000
2454.297742	465.400000
2455.800127	500.600000
2457.300607	453.000000
2458.802440	484.400000
2460.302369	480.600000
2461.802022	507.400000
2463.301400	479.800000
2464.798875	513.000000
2466.294448	482.800000
2467.793001	484.600000
2469.288026	466.200000
2470.784403	453.200000
2472.277254	425.200000
2473.771457	532.800000
2475.265387	424.200000
2476.755794	500.000000
2478.249178	451.400000
2479.740663	445.000000
2481.230252	440.600000
2482.719570	471.800000
2484.206991	455.200000
2485.697388	490.000000
2487.184266	490.800000
2488.672496	501.800000
2490.157210	444.400000
2491.641653	492.600000
2493.127448	442.600000
2494.611350	463.600000
2496.096604	496.800000
2497.576724	454.800000
2499.059816	515.600000
2500.541018	483.200000
2502.021951	493.400000
2503.500995	475.600000
2504.979771	493.600000
2506.458278	455.800000
2507.936516	479.200000
2509.414486	474.000000
2510.888952	491.600000
2512.366386	489.200000
2513.840317	484.000000
2515.315599	491.600000
2516.790613	506.800000
2518.262126	523.800000
2519.734990	482.400000
2521.205971	464.600000
2522.678301	455.400000
2524.145519	478.600000
2525.615703	475.000000
2527.084005	474.800000
2528.552043	467.200000
2530.019816	502.600000
2531.487324	496.200000
2532.954567	499.600000
2534.418319	480.800000
2535.883420	490.400000
2537.346644	438.200000
2538.811217	501.200000
2540.272301	464.200000
2541.734736	465.600000
2543.196907	499.200000
2544.655591	495.200000
2546.118848	473.800000
2547.577008	462.400000
2549.036517	475.000000
2550.490933	494.600000
2551.949919	491.000000
2553.407032	485.800000
2554.862275	487.800000
2556.317257	515.400000
2557.770369	517.800000
2559.224830	483.400000
2560.677422	469.200000
2562.129754	508.400000
2563.580218	474.800000
2565.033638	483.200000
2566.481976	476.800000
2567.933270	494.200000
2569.382697	443.200000
2570.828653	499.200000
2572.277563	453.200000
2573.723002	504.600000
2575.169790	503.800000
2576.614714	508.600000
2578.059381	488.400000
2579.505395	484.800000
2580.947942	504.400000
2582.391837	494.000000
2583.832267	439.200000
2585.274045	493.600000
2586.713963	522.200000
2588.155228	483.600000
2589.593031	461.400000
2591.033784	504.800000
2592.469474	501.600000
2593.908114	498.600000
2595.344897	502.000000
2596.779823	488.000000
2598.217698	494.200000
2599.650515	497.000000
2601.084679	456.200000
2602.516988	535.600000
2603.950644	481.600000
2605.382447	496.200000
2606.813997	508.400000
2608.245293	533.400000
2609.674738	510.400000
2611.103930	496.200000
2612.531271	497.200000
2613.959959	525.600000
2615.388394	509.800000
2616.813383	521.600000
2618.239717	518.400000
2619.664203	526.400000
2621.090035	532.800000
2622.512423	499.000000
2623.936157	533.000000
2625.358045	535.600000
2626.779682	517.000000
2628.199474	521.600000
2629.620612	499.800000
2631.041500	532.200000
2632.458950	556.000000
2633.879339	542.600000
2635.296291	540.800000
2636.712995	519.600000
2638.129450	551.800000
2639.545657	533.800000
2640.961615	540.400000
2642.375733	570.200000
2643.789604	547.200000
2645.201635	584.800000
2646.615011	571.400000
2648.024957	568.800000
2649.437839	567.400000
2650.847292	571.400000
2652.256499	562.600000
2653.663870	606.600000
2655.074175	575.600000
2656.482644	592.400000
2657.889278	591.400000
2659.295667	627.000000
2660.700222	558.800000
2662.106121	601.600000
2663.510187	609.800000
2664.914009	618.800000
2666.317586	597.600000
2667.719331	618.400000
2669.122420	621.800000
2670.522092	635.800000
2671.923107	587.000000
2673.320705	585.600000
2674.721234	582.000000
2676.118348	615.600000
2677.516805	589.800000
2678.913434	608.000000
2680.309822	596.800000
2681.705967	613.600000
2683.100286	588.000000
2684.495948	579.600000
2685.888200	544.400000
2687.281796	586.200000
2688.673567	568.200000
2690.066680	601.000000
2691.457970	566.200000
2692.847437	576.200000
2694.236665	589.400000
2695.625652	553.600000
2697.015982	535.800000
2698.401327	566.600000
2699.789597	537.600000
2701.176046	559.800000
2702.562256	552.800000
2703.948227	536.200000
2705.330800	523.200000
2706.714714	517.800000
2708.098391	515.600000
2709.481830	544.800000
2710.861873	516.600000
2712.243258	510.200000
2713.622827	464.200000
2715.003738	522.400000
2716.382834	530.200000
2717.760115	525.000000
2719.138738	516.000000
2720.515548	516.600000
2721.892122	477.000000
2723.268460	495.600000
2724.642986	487.400000
2726.018853	498.600000
2727.391333	503.000000
2728.766730	495.200000
2730.137165	485.400000
2731.508942	496.000000
2732.880485	467.200000
2734.250219	489.400000
2735.621293	479.600000
2736.990560	532.200000
2738.359593	438.000000
2739.726819	431.200000
2741.093813	467.000000
2742.460574	497.800000
2743.827102	448.800000
2745.191826	459.800000
2746.556317	483.000000
2747.920576	474.000000
2749.284604	441.800000
2750.648399	504.000000
2752.008821	474.600000
2753.372154	489.600000
2754.730544	459.800000
2756.091844	428.800000
2757.449773	461.600000
2758.810612	465.800000
2760.169650	451.400000
2761.525320	449.000000
2762.883899	451.400000
2764.239110	470.800000
2765.594092	443.000000
2766.947277	442.600000
2768.303369	469.600000
2769.656097	462.400000
2771.008596	439.800000
2772.360867	470.600000
2773.714477	442.200000
2775.064725	449.600000
2776.413180	467.800000
2777.764539	457.200000
2779.112539	435.000000
2780.461878	451.800000
2781.809424	426.400000
2783.156743	463.000000
2784.503836	420.000000
2785.849138	437.800000
2787.194214	439.400000
2788.539064	421.200000
2789.883688	440.000000
2791.224959	445.800000
2792.567569	405.000000
2793.909954	424.200000
2795.252113	416.200000
2796.590923	457.200000
2797.932633	410.200000
2799.270994	475.800000
2800.610693	458.200000
2801.948606	441.800000
2803.284735	447.200000
2804.620641	450.200000
2805.957883	429.800000
2807.293342	440.600000
2808.628578	410.800000
2809.962032	449.200000
2811.296822	433.400000
2812.628271	428.400000
2813.962616	426.400000
2815.292063	400.600000
2816.622847	417.400000
2817.953409	430.800000
2819.282192	452.400000
2820.612312	426.400000
2821.940652	424.800000
2823.268772	442.600000
2824.595115	400.600000
2825.922793	407.400000
2827.247139	402.200000
2828.572820	432.800000
2829.896727	433.200000
2831.220413	440.800000
2832.545435	397.600000
2833.867128	472.000000
2835.188601	420.600000
2836.509856	403.800000
2837.830892	414.800000
2839.150156	423.400000
2840.470755	421.800000
2841.789582	382.800000
2843.108191	417.000000
2844.425030	408.400000
2845.741651	464.800000
2847.058054	396.400000
2848.372689	416.000000
2849.688658	424.600000
2851.001307	438.200000
2852.315292	408.600000
2853.629060	423.200000
2854.942611	431.000000
2856.254395	428.600000
2857.564414	414.600000
2858.875767	448.000000
2860.183804	445.400000
2861.493177	403.000000
2862.802334	422.800000
2864.111276	405.600000
2865.418455	405.400000
2866.723870	423.400000
2868.030620	419.600000
2869.335607	434.200000
2870.640381	450.800000
2871.943393	432.200000
2873.249287	429.800000
2874.550326	402.600000
2875.852698	392.600000
2877.153311	437.000000
2878.455258	441.400000
2879.756992	419.600000
2881.055422	445.800000
2882.355185	420.400000
2883.653191	425.600000
2884.950985	441.400000
2886.247022	435.400000
2887.544393	426.400000
2888.840008	413.600000
2890.135413	416.200000
2891.430606	428.800000
2892.722501	423.200000
2894.017273	419.200000
2895.308749	411.600000
2896.601557	446.400000
2897.894155	408.600000
2899.183458	424.600000
2900.474094	429.600000
2901.762980	400.000000
2903.053197	401.600000
2904.340123	420.400000
2905.628381	399.800000
2906.914890	417.600000
2908.201190	444.000000
2909.487282	432.400000
2910.771626	456.800000
2912.058842	446.800000
2913.341231	398.600000
2914.624952	425.800000
2915.906926	383.000000
2917.188694	437.400000
2918.468716	442.200000
2919.751608	406.400000
2921.032755	398.600000
2922.310620	406.200000
2923.591354	433.800000
2924.868807	429.600000
2926.146055	397.200000
2927.421560	430.200000
2928.699933	387.800000
2929.973491	421.000000
2931.249917	412.800000
2932.524602	412.400000
2933.797547	400.800000
2935.071822	430.400000
2936.344358	405.800000
2937.616690	414.600000
2938.885749	395.400000
2940.157673	436.800000
2941.427859	401.600000
2942.697841	422.200000
2943.967620	404.400000
2945.235662	392.400000
2946.501969	422.600000
2947.768073	401.800000
2949.035508	404.200000
2950.301207	376.400000
2951.566704	394.000000
2952.831999	409.800000
2954.094030	398.000000
2955.357390	409.200000
2956.620549	362.800000
2957.881975	399.000000
2959.144731	393.600000
2960.405756	397.000000
2961.665050	371.600000
2962.924143	426.000000
2964.183036	367.600000
2965.441729	401.000000
2966.700222	405.200000
2967.956986	410.200000
2969.213551	390.000000
2970.468387	376.400000
2971.724553	398.200000
2972.977463	386.400000
2974.231703	374.200000
2975.485744	392.600000
2976.738059	387.600000
2977.990176	402.600000
2979.240568	386.400000
2980.493815	412.800000
2981.742285	367.400000
2982.993609	432.400000
2984.241685	391.200000
2985.489563	403.000000
2986.737244	369.000000
2987.984729	384.200000
2989.230492	368.000000
2990.476058	385.600000
2991.722953	380.000000
2992.966602	355.000000
2994.211580	393.000000
2995.453315	374.200000
2996.697901	365.200000
2997.940768	370.000000
2999.180393	379.400000
3000.422870	355.200000
3001.662106	373.600000
3002.902670	370.400000
3004.141517	374.200000
3005.380170	387.600000
3006.617107	369.600000
3007.855371	368.400000
3009.091921	355.800000
3010.328277	370.400000
3011.564439	357.000000
3012.798887	401.200000
3014.033142	373.200000
3015.267204	379.000000
3016.499554	373.600000
3017.730192	383.400000
3018.963676	388.800000
3020.195449	393.400000
3021.425510	365.200000
3022.655380	392.200000
3023.883540	338.400000
3025.113027	367.800000
3026.340804	382.200000
3027.568390	356.400000
3028.797302	373.400000
3030.021472	382.600000
3031.248485	344.000000
3032.472275	391.200000
3033.697390	380.600000
3034.920799	385.400000
3036.144019	364.000000
3037.365533	390.000000
3038.589888	380.000000
3039.809508	389.400000
3041.030454	347.800000
3042.251210	378.000000
3043.470263	332.200000
3044.690642	383.000000
3045.907804	368.400000
3047.126291	364.200000
3048.343077	358.400000
3049.559674	371.000000
3050.776084	362.400000
3051.989280	368.200000
3053.205314	401.000000
3054.418136	355.200000
3055.633795	349.000000
3056.844731	367.200000
3058.056993	368.600000
3059.269067	349.400000
3060.480955	375.400000
3061.691145	357.000000
3062.901150	352.600000
3064.110968	379.000000
3065.319090	359.600000
3066.527026	345.000000
3067.733268	382.400000
3068.940834	378.800000
3070.146705	362.600000
3071.352391	346.400000
3072.557893	346.600000
3073.761701	354.800000
3074.966833	392.800000
3076.170272	339.800000
3077.372019	370.400000
3078.573583	349.800000
3079.774963	332.600000
3080.976159	324.800000
3082.175665	320.200000
3083.374987	387.000000
3084.575633	338.000000
3085.774590	368.400000
3086.970351	362.400000
3088.168942	319.200000
3089.364339	355.000000
3090.561060	335.200000
3091.754588	354.000000
3092.950944	353.200000
3094.145613	334.800000
3095.337092	369.600000
3096.532902	356.200000
3097.724019	342.400000
3098.916459	365.600000
3100.105710	342.200000
3101.297788	363.800000
3102.488182	371.600000
3103.675389	347.800000
3104.863920	365.800000
3106.053773	361.000000
3107.240441	326.000000
3108.426930	338.200000
3109.613239	338.800000
3110.800871	322.600000
3111.985320	365.000000
3113.168089	334.800000
3114.353682	368.800000
3115.537594	352.000000
3116.719828	333.600000
3117.901884	329.000000
3119.083761	340.200000
3120.265460	329.000000
3121.445482	338.800000
3122.623826	337.600000
3123.804992	339.600000
3124.982982	325.400000
3126.160795	348.000000
3127.338431	321.200000
3128.514392	330.400000
3129.690177	331.000000
3130.867282	367.600000
3132.042714	315.200000
3133.216472	327.800000
3134.388557	315.800000
3135.561963	354.200000
3136.735194	297.600000
3137.906752	332.400000
3139.079632	344.200000
3140.249344	350.600000
3141.420377	300.000000
3142.589739	327.600000
3143.757432	306.800000
3144.927940	333.800000
3146.093789	324.400000
3147.263948	363.000000
3148.429449	344.000000
3149.594777	364.600000
3150.759931	340.400000
3151.924912	359.600000
3153.091212	295.800000
3154.252859	341.800000
3155.415827	343.200000
3156.578621	319.600000
3157.741243	366.600000
3158.902200	327.600000
3160.062984	316.400000
3161.223597	339.000000
3162.382545	324.000000
3163.541321	327.800000
3164.699926	332.600000
3165.858359	330.200000
3167.016620	311.000000
3168.173219	330.600000
3169.328157	316.800000
3170.484414	325.400000
3171.639011	309.000000
3172.793436	279.000000
3173.946202	318.000000
3175.098798	332.600000
3176.251224	320.400000
3177.403479	347.200000
3178.555565	351.400000
3179.704504	313.400000
3180.856250	306.200000
3182.006339	337.400000
3183.154770	313.800000
3184.303033	328.800000
3185.451127	353.000000
3186.599052	344.000000
3187.745321	319.400000
3188.891422	347.000000
3190.035869	327.400000
3191.180147	379.800000
3192.324258	354.200000
3193.469687	323.600000
3194.611977	338.800000
3195.754099	336.800000
3196.896055	305.000000
3198.037843	340.200000
3199.179464	345.200000
3200.317949	330.000000
3201.457753	290.000000
3202.598873	337.600000
3203.736859	294.200000
3204.873196	323.400000
3206.009367	326.000000
3207.146856	334.800000
3208.282696	342.600000
3209.419852	331.800000
3210.552397	328.200000
3211.689222	327.800000
3212.821436	322.400000
3213.954968	352.000000
3215.088334	344.400000
3216.218573	274.400000
3217.351611	294.200000
3218.481521	332.600000
3219.612749	329.600000
3220.740851	329.400000
3221.871751	317.200000
3223.001006	307.800000
3224.128617	317.000000
3225.253107	304.200000
3226.381872	315.200000
3227.507515	300.400000
3228.632995	292.400000
3229.756834	309.000000
3230.883468	295.000000
3232.005503	329.000000
3233.128855	309.000000
3234.252045	336.200000
3235.375073	307.600000
3236.496461	329.200000
3237.617688	312.400000
3238.737276	315.000000
3239.856703	282.800000
3240.974493	272.800000
3242.095074	314.400000
3243.212542	295.000000
3244.329849	325.800000
3245.446995	303.600000
3246.562506	329.200000
3247.679332	311.800000
3248.793047	299.400000
3249.909553	285.400000
3251.024423	293.600000
3252.136185	329.800000
3253.247788	309.600000
3254.360706	306.600000
3255.473464	320.800000
3256.583116	295.000000
3257.694083	326.200000
3258.804891	314.800000
3259.914067	308.800000
3261.021612	311.000000
3262.130472	278.400000
3263.239173	299.800000
3264.344772	328.200000
3265.451686	328.800000
3266.556970	315.200000
3267.663568	343.800000
3268.767066	280.800000
3269.871878	300.400000
3270.976533	307.600000
3272.078090	340.000000
3273.179490	318.400000
3274.282204	299.400000
3275.384761	306.000000
3276.484223	369.200000
3277.586467	302.400000
3278.685617	277.400000
3279.783141	273.200000
3280.880510	308.600000
3281.980662	290.200000
3283.077720	344.000000
3284.174624	292.000000
3285.271372	323.200000
3286.363561	309.800000
3287.460000	297.400000
3288.554816	285.000000
3289.649477	308.000000
3290.742517	278.800000
3291.835403	295.600000
3292.926668	259.000000
3294.019246	311.600000
3295.110204	330.800000
3296.199542	294.400000
3297.288727	270.600000
3298.379224	306.200000
3299.466637	276.600000
3300.553898	320.000000
3301.642471	270.000000
3302.730891	302.600000
3303.814764	307.000000
3304.902879	279.000000
3305.987913	304.200000
3307.071331	308.400000
3308.156061	304.400000
3309.239175	311.000000
3310.323601	300.800000
3311.404949	321.800000
3312.487609	301.200000
3313.568655	275.000000
3314.649550	280.800000
3315.728832	278.600000
3316.807963	300.800000
3317.888406	306.000000
3318.965774	300.600000
3320.044454	330.600000
3321.121522	302.800000
3322.198440	317.400000
3323.273748	286.800000
3324.348906	307.400000
3325.425375	276.800000
3326.498773	296.800000
3327.572023	272.000000
3328.646584	310.200000
3329.719535	287.800000
3330.790879	319.000000
3331.863533	264.400000
3332.933120	280.800000
3334.004018	269.800000
3335.073309	295.000000
3336.143911	298.000000
3337.212906	313.400000
3338.280295	296.800000
3339.346079	301.000000
3340.416089	266.800000
3341.483036	315.600000
3342.546921	279.000000
3343.613574	272.200000
3344.678623	302.200000
3345.742068	328.400000
3346.805366	295.600000
3347.868519	298.600000
3348.931525	284.800000
3349.994384	287.200000
3351.055642	266.400000
3352.113843	284.200000
3353.176265	288.000000
3354.235630	312.200000
3355.294851	246.800000
3356.355380	328.200000
3357.411400	301.000000
3358.470185	267.800000
3359.524462	289.400000
3360.581503	271.600000
3361.636945	283.200000
3362.693696	304.200000
3363.748850	294.800000
3364.802406	313.600000
3365.854365	296.200000
3366.909086	299.400000
3367.960759	298.000000
3369.012287	293.000000
3370.065125	284.000000
3371.114915	264.800000
3372.166014	309.000000
3373.214066	297.600000
3374.264879	256.000000
3375.312646	293.400000
3376.360271	289.800000
3377.407754	313.000000
3378.453643	288.800000
3379.500842	313.400000
3380.544997	307.800000
3381.591911	304.200000
3382.637233	303.800000
3383.679515	307.400000
3384.721655	297.200000
3385.765104	297.200000
3386.808411	307.000000
3387.850128	304.000000
3388.891704	291.800000
3389.933140	303.000000
3390.972987	265.800000
3392.011245	273.600000
3393.050811	284.000000
3394.090237	296.000000
3395.128075	291.000000
3396.164326	295.600000
3397.200437	300.200000
3398.237856	293.600000
3399.272242	290.400000
3400.307936	318.600000
3401.343490	292.800000
3402.376012	296.800000
3403.411288	286.200000
3404.443533	284.200000
3405.475640	262.600000
3406.506163	317.600000
3407.537994	267.200000
3408.569686	282.200000
3409.598350	289.800000
3410.626877	278.800000
3411.656710	261.600000
3412.686406	273.600000
3413.713075	276.000000
3414.741052	303.400000
3415.766004	273.200000
3416.793706	300.200000
3417.818385	279.600000
3418.844370	298.000000
3419.868776	269.200000
3420.893044	287.400000
3421.915734	287.400000
3422.938289	244.000000
3423.962148	294.200000
3424.982989	283.200000
3426.003693	287.000000
3427.025703	279.000000
3428.044695	306.400000
3429.063552	301.400000
3430.083715	281.200000
3431.100860	269.600000
