-118.385087	2.517033
-115.715486	2.680220
-113.048821	2.459840
-110.382909	1.973726
-107.719928	1.339710
-105.055517	0.675624
-102.394037	0.099301
-99.731128	1.055944
-97.073326	0.412587
-94.414093	2.016084
-91.755609	-1.918182
-89.100050	-0.672028
-86.443062	-0.788112
-83.791171	4.437063
-81.137851	3.748252
-78.487451	6.363636
-75.835621	7.596503
-73.188882	9.507692
-70.540713	6.909091
-67.893288	10.031469
-65.248776	7.830070
-62.602835	7.965734
-59.961977	3.218881
-57.319688	3.053147
-54.680309	1.445455
-52.039501	5.327972
-49.399432	5.066434
-46.764437	8.619580
-44.128012	4.403497
-41.494491	4.972028
-38.859540	2.245455
-36.229656	4.656643
-33.596178	3.289510
-30.967763	4.727972
-28.340082	4.725175
-25.710973	6.496503
-23.086920	-5.648951
-20.459278	-52.677622
-17.836689	-172.130769
-15.214831	-218.770629
-12.593704	154.548951
-9.973308	829.187413
-7.355799	1412.274126
-4.736862	1826.175524
-2.120811	2061.158741
0.494512	2119.718182
3.109108	2003.059441
5.720822	1714.570629
8.333963	1252.839161
10.942071	660.691608
13.553761	47.727972
16.160420	-306.693007
18.768507	-220.064336
21.375870	-32.608392
23.978208	4.055245
26.584124	6.037762
29.185019	4.497203
31.787341	7.523077
34.384645	8.538462
36.985525	10.202797
39.581391	5.987413
42.178684	4.365035
44.775258	-1.769930
47.366823	1.723776
49.959816	0.446853
52.549948	1.093706
55.141508	-0.372028
57.730208	0.158741
60.320336	-1.249650
62.905464	2.046853
65.492020	-0.198601
68.077861	0.327273
70.660849	-2.006993
73.245264	-0.760140
75.822549	-2.597203
78.403401	4.782517
80.981404	3.681818
83.558697	4.697902
86.137416	3.745455
88.711154	4.439860
91.286318	3.616084
93.858639	3.757343
96.430253	3.732168
98.999026	2.930070
101.569226	0.657343
104.136587	1.526573
106.705375	0.227972
109.271325	3.316783
111.834441	0.537063
114.401114	4.895105
116.958564	5.000000
119.521700	9.567133
122.079877	14.679720
124.641607	21.479021
127.198382	28.013986
129.756582	38.534965
132.309830	51.004895
134.862379	68.355944
137.418480	83.259441
139.969632	103.243357
142.520086	118.647552
145.069844	137.611189
147.616782	147.011189
150.163024	161.309790
152.710693	166.644056
155.257665	169.153147
157.799701	168.004196
160.341044	171.520280
162.881695	168.733566
165.423770	166.792308
167.963035	162.665734
170.499490	164.569231
173.035255	162.027972
175.572445	163.083217
178.108943	159.293007
180.642636	163.778322
183.173526	159.948252
185.703727	160.216084
188.235353	156.954545
190.764179	158.576923
193.290205	156.557343
195.815545	157.985315
198.342310	155.471329
200.866279	156.067832
203.389562	152.327972
205.912161	151.003497
208.431967	149.648951
210.951090	153.547552
213.469530	150.116084
215.989394	150.327972
218.502257	149.919580
221.018651	154.796503
223.534364	155.818881
226.045186	161.102797
228.557433	160.383217
231.066897	162.336364
233.575683	160.539860
236.083791	162.256643
238.593323	161.906294
241.097974	164.100699
243.601949	163.424476
246.107348	164.814685
248.607872	165.912587
251.111919	167.353846
253.608996	164.896503
256.109595	167.528671
258.607423	164.400699
261.104578	165.487413
263.601060	162.818182
266.092680	164.086713
268.587818	163.864336
271.080191	169.859441
273.571893	170.523776
276.060832	173.477622
278.551194	174.852448
281.038795	177.237762
283.523636	171.334266
286.011991	174.802797
288.493408	171.425175
290.978338	172.862238
293.458422	171.318881
295.942019	171.871329
298.420774	170.442657
300.900951	173.744755
303.378377	171.773427
305.855139	177.568531
308.331237	181.033566
310.804587	192.353147
313.277276	201.520280
315.749303	218.181119
318.220668	225.950350
320.689290	233.344755
323.157252	232.138462
325.626637	229.757343
328.091199	221.840559
330.559264	213.113986
333.022510	200.140559
335.485099	191.820280
337.947030	183.741259
340.408305	184.814685
342.866846	185.196503
345.326809	187.455245
347.784040	185.374126
350.240616	187.602797
352.696537	185.962937
355.149730	188.495804
357.604345	183.242657
360.054158	182.727273
362.507467	178.812587
364.955977	180.886014
367.403837	179.653147
369.853118	182.845455
372.297606	183.301399
374.743516	183.895804
377.188777	182.748252
379.631319	188.800000
382.073213	188.181818
384.514459	190.364336
386.952990	188.118182
389.392943	187.593706
391.830182	184.000000
394.264709	187.730070
396.702724	186.778322
399.135962	189.175524
401.570622	187.660839
404.000509	189.610490
406.433881	189.390909
408.862482	194.193007
411.290443	191.323077
413.719824	194.009091
416.144441	191.651748
418.570478	190.951049
420.995876	189.452448
423.420633	192.941958
425.840631	191.533566
428.262051	192.769930
430.680774	189.987413
433.100918	191.827273
435.518367	188.149650
437.937236	189.038462
440.353412	183.090909
442.764841	185.962937
445.179746	180.654545
447.591961	183.979720
450.003542	182.297203
452.414489	184.733566
454.822750	182.233566
457.230379	183.247552
459.637375	181.204895
462.043739	181.101399
464.447422	177.434965
466.850474	176.637762
469.252896	172.452448
471.654688	177.257343
474.053802	174.592308
476.454336	178.823077
478.854241	177.538462
481.249423	179.412587
483.648072	179.450350
486.042001	182.212587
488.435304	179.907692
490.827981	178.423077
493.220033	172.707692
495.613504	166.852448
498.002262	162.916084
500.388354	161.905594
502.775866	151.838462
505.162754	147.269231
507.546979	137.530070
509.932623	133.574126
512.315604	129.414685
514.695925	125.704196
517.077665	119.670629
519.456746	120.732168
521.837246	119.095804
524.215088	118.521678
526.590275	120.602797
528.964844	119.688112
531.340832	114.803497
533.714166	116.909790
536.088919	111.453147
538.458985	109.539860
540.828436	103.962937
543.199306	100.104196
545.565494	96.332168
547.933101	98.750350
550.298062	96.759441
552.662410	99.080420
555.026146	99.634266
557.391299	103.269231
559.751780	103.993007
562.113678	106.944056
564.472937	104.911189
566.829557	104.434266
569.189623	98.658042
571.542997	96.408392
573.899816	93.186713
576.254000	92.386713
578.607575	89.949650
580.960542	93.905594
583.310878	93.148252
585.662630	97.223077
588.007706	94.676224
590.358246	94.146154
592.702113	93.827273
595.051441	94.111189
597.396120	90.411189
599.738175	93.332867
602.081647	90.738462
604.422496	89.083916
606.762742	88.476224
609.100368	89.565734
611.441429	87.005594
613.777853	86.908392
616.115693	84.203497
618.450915	83.865035
620.783522	84.103497
623.117546	88.186713
625.448955	90.740559
627.779766	95.156643
630.109979	89.900000
632.439595	88.851748
634.764587	88.165035
637.095021	86.872028
639.420833	84.046853
641.744039	83.755944
644.068661	81.589510
646.390677	79.661538
648.712099	78.837762
651.030918	82.251049
653.351153	81.689510
655.670795	82.429371
657.987836	77.527273
660.304286	79.576923
662.618137	80.929371
664.933403	84.412587
667.246073	82.511189
669.560158	84.017483
671.869644	82.411189
674.180544	83.381818
676.488852	82.639860
678.796572	83.373427
681.105707	83.259441
683.410249	83.021678
685.714205	78.106993
688.017574	81.537063
690.322358	79.634965
692.622556	82.322378
694.924169	78.122378
697.225196	80.718182
699.521642	78.360839
701.819502	77.359441
704.116780	73.190909
706.413473	71.300699
708.705591	67.327273
711.001120	66.625874
713.292076	65.765035
715.584446	72.102098
717.874240	72.644056
720.163455	79.560839
722.452089	79.872028
724.738152	86.018881
727.025628	85.733566
729.310534	84.944056
731.594861	81.313287
733.876621	78.082517
736.159794	72.400000
738.442390	74.846853
740.720430	71.826573
742.999884	75.398601
745.278763	72.563636
747.557066	73.772727
749.830820	72.429371
752.105988	75.863636
754.380582	74.844056
756.652617	78.377622
758.926065	74.989510
761.196955	75.427972
763.465288	74.662238
765.735036	76.836364
768.002228	71.411888
770.268850	76.948252
772.534903	74.667133
774.798404	77.282517
777.063317	77.934266
779.327662	80.841259
781.587476	84.986014
783.848704	90.017483
786.109364	88.076224
788.367477	93.055245
790.623046	92.309790
792.882006	89.123077
795.134467	83.822378
797.392295	84.828671
799.645604	77.197902
801.896372	75.767133
804.148553	73.999301
806.398196	75.036364
808.649250	74.855245
810.895793	77.294406
813.143749	77.255944
815.389169	81.018881
817.636002	79.205594
819.882272	78.371329
822.124039	76.740559
824.369188	77.912587
826.607865	73.774126
828.849925	76.091608
831.087486	73.964336
833.326458	74.901399
835.562904	74.536364
837.800762	74.526573
840.036094	70.341958
842.268902	68.806294
844.503122	65.914685
846.734820	66.100699
848.965963	69.006993
851.196551	72.232867
853.426585	72.186713
855.656064	74.786713
857.881063	74.214685
860.109435	78.240559
862.333329	78.906993
864.558633	77.787413
866.779462	76.148252
869.003663	76.904196
871.223391	75.853846
873.444530	78.080420
875.665118	77.786713
877.883197	78.748252
880.102685	76.666434
882.317707	76.795804
884.532181	71.550350
886.746108	71.532867
888.959487	68.625874
891.172320	72.434965
893.384605	71.619580
895.594389	74.737762
897.803627	74.325874
900.012319	76.974126
902.218513	73.802797
904.426116	76.497203
906.631222	73.567133
908.835784	75.093007
911.037851	69.494406
913.241327	70.860839
915.442309	68.888811
917.642749	72.558042
919.844598	70.598601
922.040056	71.982517
924.238872	69.743357
926.433251	69.174126
928.630987	67.665035
930.824287	71.665035
933.018995	72.850350
935.211218	78.267832
937.402903	76.279720
939.594050	76.884615
941.782714	75.311189
943.970841	76.932867
946.156488	76.761538
948.345487	79.362937
950.530063	78.282517
952.714104	79.645455
954.901495	83.844056
957.080583	90.044056
959.263020	86.260839
961.444924	88.584615
963.624354	81.737762
965.801311	82.595105
967.979676	82.506294
970.159447	90.083916
972.332870	95.634965
974.509639	98.438462
976.682002	98.838462
978.855771	99.352448
981.025138	104.381818
983.197848	106.046154
985.368092	96.760839
987.537808	101.155944
989.706995	95.979720
991.871785	104.377622
994.039917	110.894406
996.203653	117.341259
998.368797	114.519580
1000.531481	113.860140
1002.693640	106.002098
1004.853341	108.059441
1007.012519	103.866434
1009.173103	98.203497
1011.331232	91.397902
1013.488837	96.334266
1015.645919	93.341958
1017.802478	102.512587
1019.954657	110.530070
1022.108243	115.727972
1024.261306	118.626573
1026.411922	124.310490
1028.563943	123.949650
1030.711591	122.498601
1032.862571	116.506993
1035.009181	115.423077
1037.155271	119.054545
1039.300843	125.355245
1041.447819	119.204895
1043.588508	127.449650
1045.732525	136.897902
1047.874103	144.709790
1050.015163	144.634965
1052.157628	149.511888
1054.293814	149.637762
1056.433326	138.068531
1058.568482	139.445455
1060.706963	133.852448
1062.841091	132.400699
1064.974705	130.934266
1067.109723	121.430070
1069.240392	125.813986
1071.372467	123.406993
1073.502111	129.068531
1075.631244	135.563636
1077.759866	137.869231
1079.887976	137.541259
1082.013660	130.669231
1084.138834	130.923077
1086.265411	122.062238
1088.387652	113.767133
1090.511297	109.585315
1092.630607	97.592308
1094.755146	94.917483
1096.873441	90.213986
1098.993139	96.904895
1101.110419	104.609790
1103.227193	104.872727
1105.343460	110.335664
1107.457312	109.341958
1109.572567	115.862937
1111.683500	114.104196
1113.797744	117.248252
1115.907669	117.396503
1118.018996	112.174126
1120.129820	111.940559
1122.236327	108.955944
1124.346143	110.529371
1126.451645	109.512587
1128.558551	109.575524
1130.659240	101.332867
1132.765142	98.108392
1134.866735	96.185315
1136.969731	89.837063
1139.072226	87.329371
1141.168515	84.551748
1143.270010	85.924476
1145.367203	89.944755
1147.463897	92.449650
1149.560094	98.703497
1151.655792	99.604895
1153.750993	104.522378
1155.843797	99.561538
1157.938003	100.974126
1160.026018	94.527972
1162.119231	91.319580
1164.206256	92.291608
1166.296581	98.146853
1168.382617	101.645455
1170.471951	105.016783
1172.555104	105.357343
1174.639660	107.310490
1176.725616	105.969231
1178.807291	105.535664
1180.890368	99.967133
1182.971059	96.920979
1185.051259	92.663636
1187.130967	93.268531
1189.210183	91.212587
1191.287018	91.927273
1193.361472	92.242657
1195.439218	95.209790
1197.512693	94.304196
1199.587570	94.153846
1201.658179	94.772028
1203.730189	93.965035
1205.799823	92.595105
1207.870858	91.823776
1209.941405	83.922378
1212.007691	83.818881
1214.075378	81.069231
1216.140693	84.369930
1218.207408	85.307692
1220.269867	91.838462
1222.335612	92.802098
1224.397102	96.211888
1226.459992	101.102098
1228.520515	101.509790
1230.580555	100.447552
1232.640111	100.665035
1234.697303	96.041958
1236.754012	97.623077
1238.808359	90.700699
1240.865986	90.965035
1242.921251	85.383217
1244.972275	85.357343
1247.024699	81.769930
1249.076644	83.631469
1251.126230	83.597203
1253.175337	80.145455
1255.223965	77.446154
1257.272115	80.353846
1259.319787	78.527273
1261.363228	81.538462
1263.409944	83.558042
1265.454308	89.516084
1267.498194	90.214685
1269.539730	93.051049
1271.578916	96.890909
1273.621374	100.893706
1275.659611	94.111888
1277.699245	93.968531
1279.738405	92.727273
1281.773347	91.490210
1283.809687	90.695105
1285.843682	96.420979
1287.879076	97.095105
1289.910256	102.617483
1291.942835	106.304895
1293.974941	107.804895
1296.004707	113.524476
1298.035871	117.347552
1300.062827	113.103497
1302.091181	117.278322
1304.115331	116.856643
1306.142746	120.855944
1308.165958	121.379720
1310.190568	124.212587
1312.212843	126.057343
1314.236516	134.888811
1316.257856	139.414685
1318.278729	145.960140
1320.299134	149.994406
1322.315345	153.347552
1324.332955	152.690210
1326.348236	155.697203
1328.366776	158.181818
1330.381126	165.556643
1332.393151	164.574825
1334.408434	171.337762
1336.419531	174.561538
1338.432024	179.023077
1340.440335	178.374825
1342.451902	179.111189
1344.457430	173.609790
1346.466212	171.920280
1348.470818	166.869231
1350.478677	165.630769
1352.486073	159.043357
1354.487439	156.748951
1356.490202	149.147552
1358.492505	147.062937
1360.494347	138.717483
1362.495731	135.133566
1364.494800	132.653147
1366.493411	132.401399
1368.491564	129.018881
1370.489259	127.063636
1372.482790	121.068531
1374.477718	120.852448
1376.472189	114.264336
1378.466203	113.550350
1380.457910	105.811189
1382.449161	105.691608
1384.438107	105.311888
1386.428448	108.195804
1388.418334	107.910490
1390.405917	106.981818
1392.393046	103.866434
1394.377873	100.805594
1396.364095	95.256643
1398.348016	95.850350
1400.331485	95.581818
1402.314502	99.212587
1404.295221	97.895105
1406.277334	101.876923
1408.257150	103.804895
1410.236516	107.609790
1412.211743	104.908392
1414.190208	107.848252
1416.166380	103.932168
1418.142102	103.637762
1420.117375	100.400000
1422.090357	104.874825
1424.062892	106.482517
1426.034978	108.609091
1428.006616	105.862937
1429.974127	102.697902
1431.946711	101.935664
1433.911489	101.924476
1435.881340	99.970629
1437.847066	105.144056
1439.814186	98.563636
1441.779022	101.502797
1443.739738	102.611888
1445.705522	109.169930
1447.665351	107.536364
1449.626573	109.525874
1451.589188	105.401399
1453.547688	103.527273
1455.505746	99.580420
1457.463361	100.248951
1459.420535	100.079720
1461.375433	103.915385
1463.331723	98.917483
1465.285739	101.669930
1467.239315	104.088811
1469.190618	105.066434
1471.143313	104.542657
1473.093737	106.429371
1475.043722	103.457343
1476.993267	104.790210
1478.940544	103.561538
1480.885554	107.643357
1482.831956	104.572727
1484.777920	107.445455
1486.723446	104.997203
1488.666708	103.367133
1490.609533	102.540559
1492.550095	102.578322
1494.492048	97.819580
1496.431740	101.800699
1498.370996	104.301399
1500.309818	108.278322
1502.246380	110.546154
1504.184332	113.030070
1506.120027	113.327972
1508.055288	115.890909
1509.988292	116.014685
1511.920864	117.343357
1513.853004	120.053846
1515.784712	128.367133
1517.714167	130.531469
1519.645011	141.037762
1521.575425	146.139860
1523.501766	150.223776
1525.429497	154.735664
1527.354978	161.517483
1529.280030	166.266434
1531.204653	171.248951
1533.128847	178.348951
1535.050794	185.883217
1536.974130	197.248951
1538.895221	220.039161
1540.814067	237.983916
1542.734303	261.517483
1544.652295	289.560140
1546.569861	327.197203
1548.485185	376.572028
1550.401899	438.369930
1552.314558	510.181119
1554.230421	599.384615
1556.144045	698.482517
1558.055430	804.167832
1559.968204	910.144056
1561.876929	1000.486014
1563.787044	1057.609790
1565.696735	1088.384615
1567.606002	1076.940559
1569.513036	1033.855944
1571.417837	962.746853
1573.324027	874.041958
1575.227985	771.251748
1577.131523	671.777622
1579.034639	582.876224
1580.935527	510.950350
1582.837803	448.235664
1584.737850	391.728671
1586.639286	348.977622
1588.536687	315.196503
1590.433671	283.277622
1592.330236	262.055944
1594.228188	246.510490
1596.120306	230.654545
1598.015618	220.612587
1599.910511	214.602098
1601.803183	206.698601
1603.695439	201.948951
1605.585475	193.340559
1607.475095	187.868531
1609.364300	182.765734
1611.253089	173.518881
1613.139662	162.476224
1615.027621	155.725175
1616.911565	142.627273
1618.796895	137.958042
1620.681812	136.025175
1622.564515	134.863636
1624.448604	126.191608
1626.328683	122.407692
1628.210148	117.443357
1630.089403	114.388811
1631.970044	109.500699
1633.844881	102.762238
1635.724700	93.261538
1637.600513	92.168531
1639.475917	92.234266
1641.352706	91.070629
1643.223698	87.393007
1645.097872	92.932168
1646.968048	89.750350
1648.841404	90.434266
1650.712557	89.228671
1652.581508	92.736364
1654.451845	93.813986
1656.318188	95.481119
1658.185918	97.137063
1660.051448	102.658042
1661.918363	104.223776
1663.781290	97.956643
1665.645602	95.525175
1667.507719	98.740559
1669.369430	85.184615
1671.232526	82.709091
1673.093428	75.165035
1674.952136	79.834965
1676.810441	72.272028
1678.670131	70.091608
1680.524054	69.546853
1682.381149	75.430070
1684.237842	74.503497
1686.090559	81.609790
1687.946447	80.964336
1689.798361	87.916783
1691.649873	77.164336
1693.500986	82.413986
1695.351697	84.309091
1697.202008	90.327972
1699.050135	88.039161
1700.899645	87.441259
1702.743407	91.849650
1704.592119	94.979021
1706.435084	92.814685
1708.281215	98.888811
1710.123385	95.265035
1711.968719	93.109790
1713.808313	81.111888
1715.649291	80.867133
1717.491652	80.551049
1719.330057	78.539161
1721.169845	69.551748
1723.007458	65.669930
1724.844675	65.864336
1726.679719	69.507692
1728.516146	74.182517
1730.350401	77.513986
1732.184262	77.657343
1734.017728	78.146154
1735.847248	76.909091
1737.679927	83.997203
1739.508662	83.224476
1741.340555	80.183916
1743.168505	73.369930
1744.996063	74.020979
1746.823230	77.830070
1748.650004	85.391608
1750.476388	82.830769
1752.298835	79.212587
1754.124436	82.398601
1755.946103	81.983916
1757.769152	78.454545
1759.590040	79.105594
1761.410538	71.734266
1763.232418	69.026573
1765.048598	66.137063
1766.867930	62.529371
1768.683335	64.241958
1770.501891	67.858042
1772.316521	61.990909
1774.130764	66.134266
1775.944621	74.857343
1777.758091	74.812587
1779.569407	79.210490
1781.382105	82.877622
1783.194416	73.039161
1785.002810	67.066434
1786.812585	61.409091
1788.618444	57.348951
1790.427450	52.971329
1792.232542	59.750350
1794.039014	58.251049
1795.845103	63.200699
1797.647282	68.259441
1799.452604	75.515385
1801.254018	84.928671
1803.056812	76.395804
1804.855701	63.225175
1806.655969	60.383916
1808.455857	55.014685
1810.253602	55.161538
1812.050967	59.519580
1813.847951	67.899301
1815.644555	61.405594
1817.439020	58.989510
1819.234865	61.114685
1821.025054	64.483217
1822.820140	71.960140
1824.609573	68.506294
1826.402144	71.137762
1828.192579	71.030070
1829.980879	69.073427
1831.772315	75.323077
1833.558105	76.255245
1835.345275	75.195804
1837.130313	67.101399
1838.918485	69.516084
1840.702771	71.537063
1842.484928	76.708392
1844.268463	79.362238
1846.049871	77.758741
1847.832656	76.629371
1849.611562	75.776923
1851.391846	73.904196
1853.170005	72.996503
1854.949541	66.718881
1856.726953	71.004196
1858.502241	70.504196
1860.278908	72.211888
1862.053452	72.400699
1863.829373	73.479720
1865.599675	66.284615
1867.373104	73.184615
1869.144413	76.447552
1870.915351	77.638462
1872.687666	73.183916
1874.454369	73.431469
1876.224196	75.377622
1877.990160	78.929371
1879.759248	71.672028
1881.524474	68.255944
1883.289332	69.684615
1885.055566	70.293007
1886.817942	68.669930
1888.579951	71.927972
1890.341593	68.232867
1892.102867	67.438462
1893.863775	65.135664
1895.624315	69.555944
1897.382746	70.199301
1899.140812	69.157343
1900.896770	64.272727
1902.654104	66.341958
1904.411072	68.495804
1906.165935	70.901399
1907.918692	68.028671
1909.671086	65.765035
1911.424856	65.215385
1913.176522	67.223077
1914.926085	64.763636
1916.677025	68.721678
1918.427601	64.546154
1920.174339	64.220979
1921.922452	63.344755
1923.668466	65.229371
1925.415856	65.217483
1927.161147	65.106294
1928.904341	58.122378
1930.648911	59.066434
1932.391384	61.005594
1934.133497	68.598601
1935.875251	71.091958
1937.616644	72.979720
1939.355944	69.916434
1941.094885	70.811189
1942.833467	68.824825
1944.569957	68.445455
1946.306090	64.199650
1948.043597	58.852448
1949.777283	53.425524
1951.512343	58.646154
1953.245314	62.687762
1954.977929	70.241958
1956.710187	69.080769
1958.442089	71.261538
1960.171905	72.370629
1961.899637	77.898601
1963.628742	73.218182
1965.357493	74.909790
1967.084160	71.742657
1968.810473	71.503497
1970.538159	68.127972
1972.260309	68.501399
1973.985561	68.978322
1975.707005	69.862238
1977.431549	72.527972
1979.154014	78.632867
1980.872675	77.267832
1982.594435	82.221678
1984.312393	76.937063
1986.031725	78.359441
1987.747256	75.366434
1989.467609	73.858042
1991.184162	66.672028
1992.896920	64.120280
1994.612773	63.786014
1996.326554	64.771329
1998.039984	67.280420
1999.751344	70.044755
2001.464077	67.867832
2003.173018	71.330769
2004.885053	68.820979
2006.591578	70.285315
2008.301196	68.147552
2010.008746	67.049650
2011.715949	67.746853
2013.421086	69.676923
2015.125876	65.960140
2016.832038	71.237762
2018.534418	72.709790
2020.238170	74.531469
2021.939859	70.868531
2023.641202	74.104196
2025.342200	73.876923
2027.041138	74.509790
2028.741447	74.262937
2030.437980	75.330070
2032.135885	76.117483
2033.831732	75.050350
2035.530664	72.679720
2037.224110	78.393007
2038.918927	75.488811
2040.613401	72.546853
2042.304107	70.813287
2043.997897	78.555944
2045.687920	78.746154
2047.379314	78.490210
2049.068655	76.568531
2050.759366	76.185315
2052.446315	70.783916
2054.132923	70.430769
2055.820902	66.696503
2057.505121	64.686014
2059.190710	58.525175
2060.875960	56.818182
2062.559162	58.697203
2064.243734	68.385315
2065.922842	68.862937
2067.606736	72.075524
2069.285170	69.953846
2070.966681	72.118881
2072.644440	68.348951
2074.321863	69.794406
2076.000655	66.601399
2077.677404	66.327273
2079.352112	62.439161
2081.028189	65.546853
2082.702226	67.572028
2084.375927	73.527273
2086.049293	72.148951
2087.720621	76.818182
2089.391614	75.567133
2091.062273	76.102797
2092.732598	69.960839
2094.402588	69.450350
2096.070543	68.436364
2097.738165	65.323077
2099.403753	62.955944
2101.070709	65.307692
2102.735632	65.846853
2104.400222	69.941958
2106.062781	69.660140
2107.726709	75.223776
2109.388605	76.367832
2111.050170	76.966434
2112.711405	72.930769
2114.370610	75.870629
2116.029486	75.106993
2117.688031	72.773427
2119.346247	71.291608
2121.000739	70.516084
2122.658297	69.324476
2124.315524	68.227972
2125.969031	65.306294
2127.623905	67.379021
2129.275060	69.248252
2130.929278	71.873427
2132.579778	70.948252
2134.231646	74.404196
2135.878105	71.650350
2137.529318	70.855944
2139.176818	69.117483
2140.825686	65.633566
2142.472534	63.506993
2144.119056	66.230070
2145.765254	65.201399
2147.407742	69.620979
2149.053289	66.958042
2150.695129	66.953147
2152.340026	62.804196
2153.981218	61.618881
2155.622086	57.688811
2157.262631	61.116783
2158.901163	61.814685
2160.541061	63.348951
2162.177259	64.688811
2163.814823	69.779021
2165.452065	67.774825
2167.087297	70.913986
2168.722207	67.348951
2170.356796	68.981119
2171.991064	67.657343
2173.621638	68.040559
2175.255263	70.039860
2176.885197	75.390210
2178.516496	75.179021
2180.145791	77.013287
2181.774765	72.848252
2183.403421	70.869231
2185.031757	65.462937
2186.658090	66.125175
2188.284105	61.960140
2189.908119	61.737762
2191.533498	62.060839
2193.156876	65.590909
2194.781619	67.947552
2196.402680	72.272727
2198.023426	75.396503
2199.645535	81.116783
2201.265647	76.746853
2202.883763	76.020979
2204.501563	76.461538
2206.119047	75.423077
2207.736216	72.523077
2209.353070	75.974126
2210.969609	73.618881
2212.584154	72.627972
2214.196707	69.818881
2215.810625	71.844755
2217.422550	72.499301
2219.035840	69.867832
2220.647138	62.367832
2222.256448	62.848951
2223.867120	63.406294
2225.475804	66.351748
2227.084176	67.237063
2228.690560	64.545455
2230.298308	60.982517
2231.904069	61.548951
2233.509519	59.793706
2235.112985	63.483916
2236.717813	67.967133
2238.320657	65.604895
2239.921518	63.753846
2241.523742	67.325175
2243.123983	68.390909
2244.725588	74.567133
2246.323539	73.887413
2247.922853	73.820979
2249.520187	75.997902
2251.117213	79.655245
2252.715600	77.346154
2254.310339	83.478322
2255.903102	83.270629
2257.497226	80.408392
2259.092712	77.395105
2260.684554	73.137762
2262.276089	70.784615
2263.868985	73.172727
2265.456572	73.158741
2267.048856	70.718881
2268.635832	68.451748
2270.225837	72.213287
2271.810537	69.680420
2273.399931	70.469930
2274.984022	68.732168
2276.569475	72.762238
2278.152959	68.832867
2279.739468	68.130769
2281.322344	68.708392
2282.904916	66.510140
2284.487186	63.141958
2286.065825	61.930420
2287.647488	61.980420
2289.225524	66.473776
2290.806582	61.143357
2292.384013	61.994056
2293.959481	62.704895
2295.537971	62.088462
2297.112836	61.644056
2298.687401	63.145804
2300.261666	59.504196
2301.835630	62.593357
2303.409294	61.876923
2304.982657	62.450350
2306.552402	61.707692
2308.121848	61.643357
2309.694313	56.183916
2311.261503	62.431469
2312.831710	58.176224
2314.398303	62.783217
2315.966256	67.662937
2317.532254	72.725874
2319.097954	75.562937
2320.663356	84.375524
2322.226805	86.841958
2323.791613	87.216783
2325.352812	78.532867
2326.917026	74.916783
2328.475979	67.861538
2330.037945	66.628671
2331.597961	58.982517
2333.157681	65.461538
2334.715452	63.489510
2336.272929	71.294406
2337.830110	71.113986
2339.385345	74.820280
2340.940285	79.183916
2342.494932	79.064336
2344.049285	76.282517
2345.603344	76.118182
2347.157110	71.915385
2348.708931	70.397902
2350.258809	66.700699
2351.811695	72.151049
2353.359339	73.239161
2354.909990	78.523776
2356.457051	74.302797
2358.005469	75.522378
2359.553595	77.293706
2361.098134	82.234266
2362.644030	88.837063
2364.187987	83.360140
2365.733302	80.912587
2367.275032	84.156643
2368.818120	78.061538
2370.359271	79.791608
2371.900133	74.190210
2373.440706	69.523776
2374.980990	70.879021
2376.520985	73.273427
2378.057401	72.748252
2379.596819	79.813986
2381.132660	80.244755
2382.669857	78.487413
2384.203480	80.163636
2385.740102	89.607692
2387.274793	87.148252
2388.807555	86.241259
2390.340031	82.169231
2391.870578	82.500000
2393.404123	79.709091
2394.932457	79.328671
2396.462147	76.823077
2397.991552	78.313986
2399.520672	75.830070
2401.049506	80.300000
2402.573136	83.636364
2404.101401	95.555944
2405.624463	93.599301
2407.152160	95.672028
2408.673016	95.067133
2410.198506	93.565734
2411.720436	85.317483
2413.243720	88.223077
2414.765084	82.808392
2416.284528	82.886014
2417.805327	77.886014
2419.324207	73.262238
2420.842805	72.872727
2422.359486	75.130769
2423.877522	73.237762
2425.395276	77.662238
2426.909478	73.509091
2428.423400	79.358042
2429.937043	82.178322
2431.452039	94.533566
2432.963487	97.502098
2434.476290	103.398601
2435.987180	97.253147
2437.497790	92.485315
2439.006489	91.045455
2440.518175	85.379720
2442.026317	85.671329
2443.534180	80.469930
2445.041766	73.676923
2446.545812	77.883217
2448.052842	74.927273
2449.557964	82.076224
2451.062809	83.093007
2452.565747	84.218881
2454.068408	76.641958
2455.570793	73.241958
2457.071273	70.892308
2458.573106	66.252448
2460.073035	68.527273
2461.572688	69.797203
2463.072066	64.768531
2464.569541	65.031469
2466.065114	63.132168
2467.563667	65.951748
2469.058691	65.043357
2470.555069	68.732867
2472.047920	66.871329
2473.542123	75.367133
2475.036053	76.940559
2476.526460	79.533566
2478.019844	85.076923
2479.511329	94.951748
2481.000918	93.281818
2482.490236	100.564336
2483.977657	97.883217
2485.468054	97.206294
2486.954932	95.836364
2488.443162	93.555944
2489.927876	86.320280
2491.412319	87.989510
2492.898114	83.402098
2494.382016	85.440559
2495.867270	85.420280
2497.347390	87.183916
2498.830482	88.369231
2500.311684	90.867133
2501.792617	84.997203
2503.271661	84.160140
2504.750437	77.006993
2506.228944	66.516783
2507.707182	62.330070
2509.185152	65.652448
2510.659618	69.962238
2512.137052	73.672727
2513.610983	71.761538
2515.086265	71.564336
2516.561279	73.642657
2518.032792	72.481119
2519.505656	67.090909
2520.976637	69.537063
2522.448967	64.353846
2523.916185	61.258042
2525.386369	58.888811
2526.854671	62.413986
2528.322709	66.880420
2529.790482	66.173427
2531.257990	68.498601
2532.725233	71.943357
2534.188985	72.949650
2535.654086	70.097203
2537.117310	67.211888
2538.581883	71.599301
2540.042967	67.022378
2541.505402	70.334965
2542.967573	65.590210
2544.426257	67.918881
2545.889514	68.120979
2547.347674	70.627273
2548.807183	78.030769
2550.261599	81.700000
2551.720585	77.724476
2553.177698	76.244056
2554.632941	77.832867
2556.087923	78.086014
2557.541035	79.648951
2558.995496	81.044755
2560.448088	74.771329
2561.900420	76.495804
2563.350884	76.892308
2564.804304	82.486713
2566.252642	80.983916
2567.703936	85.159441
2569.153363	88.200699
2570.599319	92.063636
2572.048229	94.855944
2573.493668	95.795804
2574.940456	95.402797
2576.385380	95.959441
2577.830047	96.620280
2579.276061	104.030070
2580.718608	103.023077
2582.162503	109.011189
2583.602933	108.290909
2585.044711	109.737762
2586.484629	106.038462
2587.925894	107.051049
2589.363697	105.580420
2590.804450	103.761538
2592.240140	98.241259
2593.678780	98.375524
2595.115563	97.852448
2596.550489	106.983916
2597.988364	101.421678
2599.421181	109.793007
2600.855345	110.495105
2602.287654	111.257343
2603.721310	113.986713
2605.153113	120.290210
2606.584663	119.148252
2608.015959	118.423776
2609.445404	116.116084
2610.874596	117.283217
2612.301937	118.885315
2613.730625	127.227273
2615.159060	121.213986
2616.584049	128.051748
2618.010383	126.148252
2619.434869	127.941958
2620.860701	132.953846
2622.283089	137.489510
2623.706823	137.385315
2625.128711	137.894406
2626.550348	141.828671
2627.970140	144.841958
2629.391278	152.079021
2630.812166	163.327972
2632.229616	164.699301
2633.650005	170.104196
2635.066957	173.190210
2636.483661	176.920979
2637.900116	184.437063
2639.316323	190.290210
2640.732281	192.130070
2642.146399	195.652448
2643.560270	199.900000
2644.972301	206.863636
2646.385677	208.730070
2647.795623	215.134266
2649.208505	215.506294
2650.617958	222.218881
2652.027165	227.894406
2653.434536	233.795804
2654.844841	239.220280
2656.253310	248.390909
2657.659944	252.486713
2659.066333	253.486014
2660.470888	257.232867
2661.876787	261.310490
2663.280853	257.841259
2664.684675	264.725874
2666.088252	262.593007
2667.489997	272.908392
2668.893086	274.951748
2670.292758	282.013287
2671.693773	282.960839
2673.091371	283.229371
2674.491900	279.227273
2675.889014	280.803497
2677.287471	280.503497
2678.684100	284.347552
2680.080488	285.330070
2681.476633	291.925175
2682.870952	292.500699
2684.266614	301.369231
2685.658866	298.263636
2687.052462	297.921678
2688.444233	290.540559
2689.837346	287.746853
2691.228636	279.957343
2692.618103	280.837762
2694.007331	274.681818
2695.396318	277.873427
2696.786648	274.937762
2698.171993	274.025175
2699.560263	269.309091
2700.946712	263.091608
2702.332922	252.121678
2703.718893	244.463636
2705.101466	237.392308
2706.485380	234.923776
2707.869057	225.544755
2709.252496	225.648951
2710.632539	219.990210
2712.013924	220.141958
2713.393493	208.416783
2714.774404	205.367832
2716.153500	195.392308
2717.530781	185.853147
2718.909404	181.300699
2720.286214	181.109790
2721.662788	171.525874
2723.039126	168.348951
2724.413652	163.569231
2725.789519	159.967832
2727.161999	155.296503
2728.537396	151.758741
2729.907831	143.335664
2731.279608	143.605594
2732.651151	134.890210
2734.020885	128.498601
2735.391959	125.537762
2736.761226	117.192308
2738.130259	107.891608
2739.497485	112.933566
2740.864479	110.419580
2742.231240	107.172028
2743.597768	103.687413
2744.962492	103.441958
2746.326983	104.645455
2747.691242	103.812587
2749.055270	104.518182
2750.419065	102.395804
2751.779487	101.028671
2753.142820	97.557343
2754.501210	100.497902
2755.862510	106.613986
2757.220439	101.766434
2758.581278	97.895804
2759.940316	90.611888
2761.295986	90.488112
2762.654565	86.550350
2764.009776	89.076224
2765.364758	91.165035
2766.717943	84.756643
2768.074035	78.750350
2769.426763	79.393007
2770.779262	82.060140
2772.131533	85.969930
2773.485143	84.500000
2774.835391	85.972028
2776.183846	80.738462
2777.535205	83.102797
2778.883205	81.588811
2780.232544	88.140559
2781.580090	84.110490
2782.927409	73.777622
2784.274502	66.979720
2785.619804	68.793706
2786.964880	66.779021
2788.309730	63.353147
2789.654354	62.916084
2790.995625	63.832168
2792.338235	62.010490
2793.680620	67.253147
2795.022779	70.701399
2796.361589	79.248252
2797.703299	76.961538
2799.041660	73.474126
2800.381359	67.803497
2801.719272	70.791608
2803.055401	66.153846
2804.391307	63.781818
2805.728549	68.064336
2807.064008	67.640559
2808.399244	66.575524
2809.732698	72.228671
2811.067488	77.653147
2812.398937	81.493706
2813.733282	75.922378
2815.062729	80.055245
2816.393513	78.983916
2817.724075	77.990210
2819.052858	75.201399
2820.382978	74.718881
2821.711318	73.470629
2823.039438	71.776224
2824.365781	71.093706
2825.693459	71.853147
2827.017805	69.186014
2828.343486	65.800699
2829.667393	64.557343
2830.991079	66.760140
2832.316101	65.737762
2833.637794	60.511189
2834.959267	58.411888
2836.280522	63.120280
2837.601558	63.846154
2838.920822	73.416084
2840.241421	76.052448
2841.560248	74.016084
2842.878857	69.976923
2844.195696	71.262238
2845.512317	74.990210
2846.828720	71.451049
2848.143355	69.822378
2849.459324	63.720979
2850.771973	58.916084
2852.085958	63.759441
2853.399726	62.782517
2854.713277	65.614685
2856.025061	66.810490
2857.335080	63.680420
2858.646433	62.057343
2859.954470	66.918182
2861.263843	68.297203
2862.573000	62.893706
2863.881942	60.479021
2865.189121	60.712587
2866.494536	53.679720
2867.801286	57.039161
2869.106273	57.356643
2870.411047	63.239860
2871.714059	68.555944
2873.019953	67.723077
2874.320992	64.805594
2875.623364	65.525874
2876.923977	61.411189
2878.225924	63.181119
2879.527658	57.250350
2880.826088	55.951049
2882.125851	51.926573
2883.423857	58.895804
2884.721651	60.566434
2886.017688	68.278322
2887.315059	68.832168
2888.610674	67.351049
2889.906079	65.572727
2891.201272	70.668531
2892.493167	71.211888
2893.787939	73.925874
2895.079415	66.872028
2896.372223	70.589510
2897.664821	68.335664
2898.954124	65.872028
2900.244760	56.780420
2901.533646	59.602797
2902.823863	58.963636
2904.110789	58.929371
2905.399047	59.634266
2906.685556	63.574126
2907.971856	61.821678
2909.257948	63.188811
2910.542292	61.894406
2911.829508	63.439860
2913.111897	52.607692
2914.395618	55.416084
2915.677592	52.713287
2916.959360	60.300699
2918.239382	56.620979
2919.522274	59.997203
2920.803421	60.163636
2922.081286	63.077622
2923.362020	60.467133
2924.639473	63.022378
2925.916721	59.199301
2927.192226	61.246154
2928.470599	58.276923
2929.744157	61.953846
2931.020583	57.176224
2932.295268	58.765734
2933.568213	55.060140
2934.842488	60.687413
2936.115024	57.087413
2937.387356	61.621678
2938.656415	62.583916
2939.928339	69.630769
2941.198525	68.685315
2942.468507	71.395804
2943.738286	71.127273
2945.006328	68.392308
2946.272635	69.506294
2947.538739	68.823776
2948.806174	64.990909
2950.071873	64.375524
2951.337370	57.281818
2952.602665	62.685315
2953.864696	60.493007
2955.128056	62.373427
2956.391215	61.214685
2957.652641	62.895804
2958.915397	62.118182
2960.176422	63.067832
2961.435716	63.610490
2962.694809	60.609091
2963.953702	57.225874
2965.212395	61.821678
2966.470888	56.575524
2967.727652	58.072028
2968.984217	56.695105
2970.239053	58.729371
2971.495219	59.347552
2972.748129	56.997902
2974.002369	52.969930
2975.256410	52.393007
2976.508725	53.360140
2977.760842	56.102797
2979.011234	58.416783
2980.264481	64.354545
2981.512951	59.459441
2982.764275	64.916783
2984.012351	64.296503
2985.260229	61.504895
2986.507910	56.206993
2987.755395	53.148252
2989.001158	43.109790
2990.246724	36.462937
2991.493619	41.260839
2992.737268	47.400000
2993.982246	46.863636
2995.223981	49.027972
2996.468567	47.993007
2997.711434	49.441958
2998.951059	47.376923
3000.193536	49.364336
3001.432772	50.806294
3002.673336	55.262238
3003.912183	48.175524
3005.150836	49.949650
3006.387773	57.908392
3007.626037	67.102098
3008.862587	65.786713
3010.098943	69.361538
3011.335105	63.443357
3012.569553	58.913986
3013.803808	57.681119
3015.037870	57.868531
3016.270220	52.434965
3017.500858	50.696503
3018.734342	46.569231
3019.966115	48.046853
3021.196176	49.362238
3022.426046	54.772727
3023.654206	53.424476
3024.883693	53.298601
3026.111470	47.506294
3027.339056	47.498601
3028.567968	43.794406
3029.792138	45.885315
3031.019151	41.637063
3032.242941	47.277622
3033.468056	51.018881
3034.691465	56.880420
3035.914685	58.641958
3037.136199	57.229371
3038.360554	57.018881
3039.580174	51.777622
3040.801120	48.995804
3042.021876	50.046154
3043.240929	48.013986
3044.461308	53.720280
3045.678470	52.642657
3046.896957	57.687413
3048.113743	63.252448
3049.330340	72.802098
3050.546750	72.472028
3051.759946	67.035664
3052.975980	67.767832
3054.188802	60.627972
3055.404461	59.967832
3056.615397	58.032168
3057.827659	53.883217
3059.039733	51.684615
3060.251621	47.292308
3061.461811	44.766434
3062.671816	45.902448
3063.881634	48.039860
3065.089756	45.949301
3066.297692	50.523077
3067.503934	52.181469
3068.711500	53.835664
3069.917371	56.349301
3071.123057	57.331469
3072.328559	54.705245
3073.532367	53.537762
3074.737499	55.394755
3075.940938	53.076923
3077.142685	53.051399
3078.344249	53.454545
3079.545629	51.993007
3080.746825	53.639860
3081.946331	44.507692
3083.145653	45.351049
3084.346299	40.251748
3085.545256	42.790909
3086.741017	44.989510
3087.939608	48.974126
3089.135005	52.148252
3090.331726	51.644056
3091.525254	50.896503
3092.721610	52.671329
3093.916279	52.569930
3095.107758	53.549650
3096.303568	44.440559
3097.494685	50.539161
3098.687125	51.643357
3099.876376	62.121678
3101.068454	67.967133
3102.258848	69.427972
3103.446055	64.988112
3104.634586	60.559441
3105.824439	56.376923
3107.011107	57.166434
3108.197596	58.656643
3109.383905	55.139860
3110.571537	51.324476
3111.755986	55.311189
3112.938755	52.233566
3114.124348	57.802098
3115.308260	54.939860
3116.490494	54.567832
3117.672550	51.061538
3118.854427	53.400000
3120.036126	55.575524
3121.216148	59.833566
3122.394492	64.134965
3123.575658	67.674126
3124.753648	68.021678
3125.931461	67.205594
3127.109097	66.846853
3128.285058	67.170629
3129.460843	60.937063
3130.637948	59.260839
3131.813380	53.425175
3132.987138	53.353147
3134.159223	47.327273
3135.332629	47.781119
3136.505860	43.462238
3137.677418	43.109091
3138.850298	36.230070
3140.020010	35.153147
3141.191043	33.756643
3142.360405	35.846154
3143.528098	32.046154
3144.698606	34.727273
3145.864455	35.839161
3147.034614	44.885315
3148.200115	46.805594
3149.365443	54.058042
3150.530597	54.594406
3151.695578	56.568531
3152.861878	55.731469
3154.023525	54.884615
3155.186493	53.760140
3156.349287	53.139860
3157.511909	44.550350
3158.672866	42.337762
3159.833650	38.525874
3160.994263	40.041259
3162.153211	39.530769
3163.311987	46.808392
3164.470592	46.479021
3165.629025	48.418182
3166.787286	52.413287
3167.943885	58.814685
3169.098823	56.809790
3170.255080	55.124476
3171.409677	57.711189
3172.564102	53.423776
3173.716868	49.881818
3174.869464	46.693007
3176.021890	44.866434
3177.174145	44.357343
3178.326231	39.104895
3179.475170	39.255245
3180.626916	38.472028
3181.777005	43.492308
3182.925436	38.427273
3184.073699	43.812587
3185.221793	51.588112
3186.369717	52.373427
3187.515987	52.627273
3188.662088	52.613986
3189.806535	50.746154
3190.950813	52.169930
3192.094924	49.662937
3193.240353	50.548252
3194.382643	47.807692
3195.524765	52.476224
3196.666721	51.986713
3197.808509	56.311888
3198.950130	54.805594
3200.088615	54.758042
3201.228419	56.702098
3202.369539	61.348252
3203.507525	63.692308
3204.643862	64.325874
3205.780033	60.409091
3206.917522	63.155245
3208.053362	61.617483
3209.190518	64.539161
3210.323063	64.683916
3211.459888	65.136364
3212.592102	62.268531
3213.725634	60.486014
3214.859000	59.047552
3215.989239	62.427972
3217.122277	62.025874
3218.252187	57.851049
3219.383415	53.513986
3220.511517	54.969930
3221.642417	51.770629
3222.771672	52.306993
3223.899283	48.623776
3225.023773	52.153147
3226.152538	49.049650
3227.278181	44.483916
3228.403661	43.042657
3229.527500	45.173427
3230.654134	48.165035
3231.776169	48.739860
3232.899521	48.553846
3234.022711	50.665734
3235.145739	51.981119
3236.267127	55.026573
3237.388354	52.146853
3238.507942	59.056643
3239.627369	51.847552
3240.745159	52.391608
3241.865740	53.869231
3242.983208	54.832867
3244.100515	56.451748
3245.217661	55.865734
3246.333172	52.534266
3247.449998	54.261538
3248.563713	53.420979
3249.680219	52.115385
3250.795089	51.334965
3251.906851	52.762238
3253.018454	46.343357
3254.131372	49.694406
3255.244130	50.663636
3256.353782	51.747552
3257.464749	52.051049
3258.575557	54.151049
3259.684733	51.367832
3260.792278	55.986014
3261.901138	54.713986
3263.009839	54.738462
3264.115438	50.039860
3265.222352	50.216783
3266.327636	46.217483
3267.434234	47.066434
3268.537732	42.088811
3269.642544	40.225874
3270.747199	37.503497
3271.848756	38.752448
3272.950156	40.122378
3274.052870	45.196503
3275.155427	45.921678
3276.254889	44.987413
3277.357133	43.508392
3278.456283	45.823776
3279.553807	45.612587
3280.651176	44.327273
3281.751328	37.795105
3282.848386	39.372727
3283.945290	35.076923
3285.042038	39.239860
3286.134227	38.836364
3287.230666	42.069930
3288.325482	42.633566
3289.420143	42.760140
3290.513183	43.797203
3291.606069	40.065734
3292.697334	42.166434
3293.789912	41.674126
3294.880870	39.464336
3295.970208	39.150350
3297.059393	31.925175
3298.149890	36.932168
3299.237303	32.297203
3300.324564	33.045455
3301.413137	31.193706
3302.501557	33.696503
3303.585430	36.409091
3304.673545	38.472028
3305.758579	42.591608
3306.841997	40.884615
3307.926727	42.053846
3309.009841	44.152448
3310.094267	42.997203
3311.175615	46.618182
3312.258275	40.886713
3313.339321	43.879021
3314.420216	43.158741
3315.499498	47.015385
3316.578629	48.272727
3317.659072	46.302098
3318.736440	39.958741
3319.815120	39.955944
3320.892188	43.026573
3321.969106	44.863636
3323.044414	40.908392
3324.119572	42.486713
3325.196041	41.893007
3326.269439	46.098601
3327.342689	45.486014
3328.417250	52.186014
3329.490201	47.814685
3330.561545	42.995804
3331.634199	40.600699
3332.703786	42.899301
3333.774684	40.970629
3334.843975	39.779720
3335.914577	35.133566
3336.983572	37.782517
3338.050961	35.131469
3339.116745	36.057343
3340.186755	39.082517
3341.253702	45.358741
3342.317587	42.006993
3343.384240	41.052448
3344.449289	40.371329
3345.512734	40.952448
3346.576032	37.781119
3347.639185	38.483916
3348.702191	37.034266
3349.765050	42.124476
3350.826308	35.632168
3351.884509	37.539161
3352.946931	38.683217
3354.006296	42.631469
3355.065517	43.455944
3356.126046	45.332168
3357.182066	48.451049
3358.240851	50.219580
3359.295128	46.869930
3360.352169	50.316783
3361.407611	44.369231
3362.464362	44.621678
3363.519516	31.606993
3364.573072	30.445455
3365.625031	27.017483
3366.679752	26.631469
3367.731425	29.066434
3368.782953	34.720280
3369.835791	36.051049
3370.885581	36.318182
3371.936680	38.945455
3372.984732	37.421678
3374.035545	36.638462
3375.083312	39.530070
3376.130937	37.930070
3377.178420	47.287413
3378.224309	47.928671
3379.271508	47.313287
3380.315663	46.325175
3381.362577	40.874126
3382.407899	34.240559
3383.450181	31.865734
3384.492321	29.270629
3385.535770	24.747552
3386.579077	23.419580
3387.620794	23.746154
3388.662370	26.930769
3389.703806	32.060839
3390.743653	32.704196
3391.781911	37.079021
3392.821477	38.438462
3393.860903	39.963636
3394.898741	45.902797
3395.934992	49.896503
3396.971103	47.858042
3398.008522	47.917483
3399.042908	41.704895
3400.078602	38.160839
3401.114156	37.432867
3402.146678	36.441958
3403.181954	35.300000
3404.214199	39.401399
3405.246306	39.972727
3406.276829	44.108392
3407.308660	47.625175
3408.340352	53.747552
3409.369016	48.687413
3410.397542	51.426573
3411.427376	41.954545
3412.457072	39.203497
3413.483741	42.548951
3414.511718	41.759441
3415.536670	37.070629
3416.564372	37.683217
3417.589051	33.477622
3418.615036	33.448252
3419.639442	34.289510
3420.663710	36.701399
3421.686400	30.665035
3422.708955	35.281818
3423.732814	30.479720
3424.753654	42.060140
3425.774359	50.133367
3426.796369	55.212687
3427.815361	55.205095
3428.834218	48.017582
3429.854381	31.557143
3430.871526	3.730769
