-118.385087	15.876099
-115.715486	11.546154
-113.048821	8.990060
-110.382909	7.852747
-107.719928	7.779146
-105.055517	8.414186
-102.394037	9.402797
-99.731128	9.754545
-97.073326	9.606993
-94.414093	11.275524
-91.755609	7.372028
-89.100050	7.155944
-86.443062	3.876923
-83.791171	4.677622
-81.137851	6.058741
-78.487451	6.355944
-75.835621	4.083916
-73.188882	7.315385
-70.540713	9.275524
-67.893288	10.073427
-65.248776	8.558042
-62.602835	7.926573
-59.961977	5.608392
-57.319688	7.380420
-54.680309	5.329371
-52.039501	9.509790
-49.399432	10.954545
-46.764437	9.451049
-44.128012	10.520979
-41.494491	14.816783
-38.859540	14.123776
-36.229656	18.044755
-33.596178	20.631469
-30.967763	23.448252
-28.340082	22.816783
-25.710973	15.842657
-23.086920	-46.486014
-20.459278	-268.244056
-17.836689	-879.281818
-15.214831	-948.758741
-12.593704	703.195105
-9.973308	3907.048252
-7.355799	6766.508392
-4.736862	8790.830070
-2.120811	9954.712587
0.494512	10255.724476
3.109108	9699.553846
5.720822	8301.981119
8.333963	6097.395105
10.942071	3260.331469
13.553761	311.027972
16.160420	-1323.618881
18.768507	-1129.525874
21.375870	-198.919580
23.978208	18.944755
26.584124	21.823776
29.185019	18.811189
31.787341	16.120280
34.384645	14.627972
36.985525	12.729371
39.581391	9.310490
42.178684	9.602797
44.775258	7.629371
47.366823	9.910490
49.959816	5.661538
52.549948	3.966434
55.141508	4.791608
57.730208	7.581119
60.320336	7.129371
62.905464	9.260140
65.492020	9.248252
68.077861	11.330070
70.660849	10.334965
73.245264	13.062937
75.822549	13.579021
78.403401	14.765734
80.981404	10.125874
83.558697	9.741259
86.137416	9.437063
88.711154	11.613287
91.286318	8.690909
93.858639	8.651049
96.430253	7.486713
98.999026	10.801399
101.569226	9.216084
104.136587	10.194406
106.705375	7.276923
109.271325	6.418182
111.834441	2.468531
114.401114	4.302797
116.958564	6.781119
119.521700	17.394406
122.079877	28.709091
124.641607	52.667832
127.198382	88.995105
129.756582	145.988112
132.309830	218.313287
134.862379	302.537063
137.418480	393.346853
139.969632	489.626573
142.520086	578.593007
145.069844	661.554545
147.616782	720.868531
150.163024	765.219580
152.710693	783.211888
155.257665	792.548252
157.799701	791.492308
160.341044	791.121678
162.881695	784.267133
165.423770	777.353147
167.963035	769.786014
170.499490	768.367133
173.035255	766.143357
175.572445	768.020979
178.108943	761.462238
180.642636	758.416783
183.173526	751.301399
185.703727	751.711189
188.235353	746.441259
190.764179	744.090210
193.290205	738.462238
195.815545	736.220979
198.342310	734.513287
200.866279	735.886014
203.389562	734.748252
205.912161	736.474126
208.431967	737.402797
210.951090	741.683916
213.469530	747.149650
215.989394	749.940559
218.502257	750.724476
221.018651	756.334965
223.534364	761.341259
226.045186	762.948951
228.557433	765.471329
231.066897	765.962238
233.575683	768.604196
236.083791	772.444056
238.593323	778.249650
241.097974	787.247552
243.601949	791.176923
246.107348	793.976224
248.607872	800.458741
251.111919	803.585315
253.608996	806.940559
256.109595	808.411189
258.607423	807.918881
261.104578	808.812587
263.601060	811.402098
266.092680	812.046154
268.587818	814.518881
271.080191	816.196503
273.571893	814.878322
276.060832	819.287413
278.551194	822.284615
281.038795	821.982517
283.523636	825.669231
286.011991	830.577622
288.493408	831.220280
290.978338	833.534965
293.458422	836.141958
295.942019	838.244755
298.420774	838.622378
300.900951	841.392308
303.378377	842.967832
305.855139	858.222378
308.331237	885.062238
310.804587	934.220979
313.277276	989.806294
315.749303	1040.290210
318.220668	1075.562937
320.689290	1095.141259
323.157252	1099.095105
325.626637	1080.700699
328.091199	1051.383217
330.559264	1013.360140
333.022510	965.869930
335.485099	932.260839
337.947030	913.082517
340.408305	909.941958
342.866846	911.057343
345.326809	910.545455
347.784040	906.790909
350.240616	903.042657
352.696537	898.272028
355.149730	896.002797
357.604345	900.767832
360.054158	901.637762
362.507467	900.885315
364.955977	900.609790
367.403837	904.651049
369.853118	904.935664
372.297606	907.266434
374.743516	906.785315
377.188777	903.557343
379.631319	902.144755
382.073213	896.758042
384.514459	898.627273
386.952990	897.763636
389.392943	897.795105
391.830182	894.055245
394.264709	896.291608
396.702724	898.802098
399.135962	896.563636
401.570622	897.608392
404.000509	900.348951
406.433881	901.497203
408.862482	902.253846
411.290443	901.203497
413.719824	905.255245
416.144441	906.765035
418.570478	912.337063
420.995876	912.262238
423.420633	917.113287
425.840631	917.683217
428.262051	919.520280
430.680774	920.336364
433.100918	917.286713
435.518367	912.891608
437.937236	911.990210
440.353412	907.993706
442.764841	909.354545
445.179746	907.895105
447.591961	910.102797
450.003542	906.553846
452.414489	905.816084
454.822750	901.821678
457.230379	899.707692
459.637375	892.630070
462.043739	886.839860
464.447422	880.064336
466.850474	876.966434
469.252896	869.126573
471.654688	870.074825
474.053802	865.337063
476.454336	866.131469
478.854241	867.306993
481.249423	869.253846
483.648072	868.634266
486.042001	872.645455
488.435304	866.023077
490.827981	854.466434
493.220033	828.444056
495.613504	804.481119
498.002262	774.132867
500.388354	741.513287
502.775866	701.740559
505.162754	671.918182
507.546979	643.528671
509.932623	621.279720
512.315604	605.762238
514.695925	594.969231
517.077665	576.918881
519.456746	564.705594
521.837246	551.874126
524.215088	545.901399
526.590275	535.323077
528.964844	526.164336
531.340832	515.437762
533.714166	507.041259
536.088919	497.957343
538.458985	494.973427
540.828436	492.637762
543.199306	490.074126
545.565494	484.276923
547.933101	482.284615
550.298062	481.223077
552.662410	479.597902
555.026146	479.127972
557.391299	480.238462
559.751780	478.883916
562.113678	471.944755
564.472937	468.856643
566.829557	467.200000
569.189623	463.573427
571.542997	458.337762
573.899816	451.289510
576.254000	443.211888
578.607575	438.365734
580.960542	436.445455
583.310878	431.627273
585.662630	429.927972
588.007706	430.994406
590.358246	428.500699
592.702113	430.306993
595.051441	433.540559
597.396120	430.923077
599.738175	431.469231
602.081647	429.926573
604.422496	427.934965
606.762742	426.275524
609.100368	422.026573
611.441429	414.086014
613.777853	412.948252
616.115693	409.823776
618.450915	406.423776
620.783522	401.925175
623.117546	398.893706
625.448955	395.131469
627.779766	396.368531
630.109979	392.650350
632.439595	390.631469
634.764587	388.506294
637.095021	384.283916
639.420833	381.344755
641.744039	380.561538
644.068661	375.660140
646.390677	372.378322
648.712099	369.187413
651.030918	368.504895
653.351153	369.502098
655.670795	370.839860
657.987836	369.772727
660.304286	371.679021
662.618137	371.283916
664.933403	374.735664
667.246073	370.409790
669.560158	365.933566
671.869644	361.732168
674.180544	359.046154
676.488852	353.900699
678.796572	350.069930
681.105707	349.067133
683.410249	347.986713
685.714205	345.079021
688.017574	343.697902
690.322358	342.765035
692.622556	345.630070
694.924169	343.082517
697.225196	342.330070
699.521642	339.768531
701.819502	336.770629
704.116780	332.519580
706.413473	332.336364
708.705591	330.669231
711.001120	329.951748
713.292076	327.676224
715.584446	329.711189
717.874240	333.407692
720.163455	337.893007
722.452089	341.704196
724.738152	343.570629
727.025628	342.996503
729.310534	345.778322
731.594861	343.658741
733.876621	341.315385
736.159794	339.599301
738.442390	340.841958
740.720430	342.547552
742.999884	345.804196
745.278763	347.749650
747.557066	349.934266
749.830820	349.429371
752.105988	350.727273
754.380582	347.483217
756.652617	345.331469
758.926065	341.572727
761.196955	340.131469
763.465288	341.229371
765.735036	349.222378
768.002228	354.959441
770.268850	366.869930
772.534903	378.009790
774.798404	383.360140
777.063317	385.413986
779.327662	390.460140
781.587476	388.752448
783.848704	385.618182
786.109364	381.148252
788.367477	375.482517
790.623046	370.372028
792.882006	372.474825
795.134467	366.640559
797.392295	367.432867
799.645604	363.833566
801.896372	363.695105
804.148553	361.863636
806.398196	363.167832
808.649250	362.333566
810.895793	356.848252
813.143749	353.560839
815.389169	353.127972
817.636002	351.467133
819.882272	352.058741
822.124039	347.088112
824.369188	347.985315
826.607865	348.201399
828.849925	350.092308
831.087486	343.557343
833.326458	341.377622
835.562904	340.023776
837.800762	332.262937
840.036094	327.128671
842.268902	324.851049
844.503122	322.809790
846.734820	316.955944
848.965963	313.849650
851.196551	317.187413
853.426585	315.290909
855.656064	315.037762
857.881063	316.953147
860.109435	315.047552
862.333329	316.583217
864.558633	314.889510
866.779462	316.620280
869.003663	321.868531
871.223391	322.451049
873.444530	317.360140
875.665118	319.227972
877.883197	325.530070
880.102685	331.826573
882.317707	338.068531
884.532181	341.416783
886.746108	335.569930
888.959487	333.062937
891.172320	326.995105
893.384605	328.079720
895.594389	326.318182
897.803627	321.257343
900.012319	316.567832
902.218513	316.846853
904.426116	315.381119
906.631222	312.199301
908.835784	311.625175
911.037851	311.360839
913.241327	309.448252
915.442309	307.702797
917.642749	309.271329
919.844598	320.144755
922.040056	326.271329
924.238872	329.510490
926.433251	326.035664
928.630987	329.150350
930.824287	324.634965
933.018995	320.777622
935.211218	328.474825
937.402903	327.627972
939.594050	331.624476
941.782714	334.227273
943.970841	352.144755
946.156488	358.904196
948.345487	366.987413
950.530063	366.209790
952.714104	366.472028
954.901495	377.486014
957.080583	383.575524
959.263020	393.988112
961.444924	407.117483
963.624354	409.575524
965.801311	419.825175
967.979676	429.304895
970.159447	451.958741
972.332870	455.697902
974.509639	462.015385
976.682002	455.962937
978.855771	461.104895
981.025138	459.487413
983.197848	460.138462
985.368092	454.966434
987.537808	451.425874
989.706995	448.116084
991.871785	455.451049
994.039917	473.328671
996.203653	484.599301
998.368797	503.218881
1000.531481	503.514685
1002.693640	504.500000
1004.853341	514.354545
1007.012519	506.569231
1009.173103	512.351748
1011.331232	506.243357
1013.488837	512.046853
1015.645919	527.746853
1017.802478	536.911888
1019.954657	542.253147
1022.108243	531.117483
1024.261306	543.874126
1026.411922	547.386014
1028.563943	536.681818
1030.711591	547.357343
1032.862571	551.264336
1035.009181	578.584615
1037.155271	584.441958
1039.300843	603.410490
1041.447819	624.546154
1043.588508	626.088811
1045.732525	624.488112
1047.874103	622.795804
1050.015163	625.997203
1052.157628	624.812587
1054.293814	594.415385
1056.433326	588.055944
1058.568482	573.494406
1060.706963	576.144755
1062.841091	564.065035
1064.974705	575.377622
1067.109723	586.883217
1069.240392	585.727273
1071.372467	585.637762
1073.502111	584.472727
1075.631244	576.091608
1077.759866	564.663636
1079.887976	557.079720
1082.013660	544.484615
1084.138834	539.828671
1086.265411	531.153147
1088.387652	525.747552
1090.511297	528.028671
1092.630607	538.652448
1094.755146	526.562937
1096.873441	520.817483
1098.993139	506.619580
1101.110419	483.351049
1103.227193	480.500699
1105.343460	487.602098
1107.457312	478.893007
1109.572567	483.483217
1111.683500	467.719580
1113.797744	467.327273
1115.907669	470.662238
1118.018996	498.218182
1120.129820	489.216084
1122.236327	488.690210
1124.346143	477.123776
1126.451645	465.441958
1128.558551	471.752448
1130.659240	465.967832
1132.765142	462.315385
1134.866735	462.124476
1136.969731	446.471329
1139.072226	444.448951
1141.168515	436.367832
1143.270010	446.013986
1145.367203	427.765734
1147.463897	416.091608
1149.560094	408.202098
1151.655792	401.339161
1153.750993	403.203497
1155.843797	394.849650
1157.938003	394.641958
1160.026018	397.870629
1162.119231	395.166434
1164.206256	395.884615
1166.296581	402.835664
1168.382617	408.970629
1170.471951	408.430070
1172.555104	402.225874
1174.639660	403.389510
1176.725616	397.741958
1178.807291	399.508392
1180.890368	385.916084
1182.971059	389.896503
1185.051259	391.444056
1187.130967	385.580420
1189.210183	384.111888
1191.287018	394.344755
1193.361472	389.211888
1195.439218	395.782517
1197.512693	391.447552
1199.587570	388.447552
1201.658179	380.412587
1203.730189	379.588112
1205.799823	371.405594
1207.870858	369.968531
1209.941405	363.002098
1212.007691	356.446154
1214.075378	361.613986
1216.140693	367.889510
1218.207408	372.409790
1220.269867	376.686014
1222.335612	369.654545
1224.397102	359.359441
1226.459992	357.172727
1228.520515	361.204895
1230.580555	354.553846
1232.640111	360.468531
1234.697303	368.095105
1236.754012	373.082517
1238.808359	388.504196
1240.865986	395.832867
1242.921251	400.358741
1244.972275	396.200699
1247.024699	392.529371
1249.076644	380.169930
1251.126230	376.467133
1253.175337	377.975524
1255.223965	376.763636
1257.272115	384.511888
1259.319787	381.031469
1261.363228	386.491608
1263.409944	390.464336
1265.454308	390.067832
1267.498194	391.917483
1269.539730	390.461538
1271.578916	393.716084
1273.621374	381.238462
1275.659611	379.411189
1277.699245	384.795105
1279.738405	391.291608
1281.773347	393.811189
1283.809687	399.983916
1285.843682	412.339161
1287.879076	415.305594
1289.910256	419.744056
1291.942835	420.970629
1293.974941	424.219580
1296.004707	435.893007
1298.035871	441.881119
1300.062827	450.081818
1302.091181	463.555245
1304.115331	476.786014
1306.142746	486.123776
1308.165958	500.941259
1310.190568	520.446154
1312.212843	535.469231
1314.236516	551.437762
1316.257856	568.575524
1318.278729	593.800699
1320.299134	623.844755
1322.315345	652.497203
1324.332955	679.068531
1326.348236	709.104895
1328.366776	736.653147
1330.381126	760.102098
1332.393151	779.385315
1334.408434	807.023077
1336.419531	817.936364
1338.432024	825.090210
1340.440335	825.281818
1342.451902	820.495105
1344.457430	812.561538
1346.466212	802.723776
1348.470818	797.924476
1350.478677	788.920280
1352.486073	774.244755
1354.487439	762.051748
1356.490202	739.921678
1358.492505	723.748252
1360.494347	696.327972
1362.495731	668.742657
1364.494800	633.934266
1366.493411	600.500699
1368.491564	570.569930
1370.489259	546.446154
1372.482790	523.911189
1374.477718	507.257343
1376.472189	489.760140
1378.466203	477.102797
1380.457910	456.140559
1382.449161	446.495105
1384.438107	435.658741
1386.428448	426.444056
1388.418334	413.290909
1390.405917	401.586014
1392.393046	397.500699
1394.377873	394.953147
1396.364095	387.943357
1398.348016	389.325874
1400.331485	387.104895
1402.314502	381.213986
1404.295221	382.687413
1406.277334	383.567832
1408.257150	382.061538
1410.236516	383.983916
1412.211743	385.821678
1414.190208	381.123077
1416.166380	391.010490
1418.142102	395.821678
1420.117375	397.263636
1422.090357	401.528671
1424.062892	403.221678
1426.034978	396.797902
1428.006616	395.174126
1429.974127	387.534266
1431.946711	389.683916
1433.911489	390.427972
1435.881340	386.625874
1437.847066	387.322378
1439.814186	394.954545
1441.779022	392.713287
1443.739738	395.231469
1445.705522	397.925175
1447.665351	395.730769
1449.626573	391.493706
1451.589188	389.987413
1453.547688	393.959441
1455.505746	396.860839
1457.463361	396.075524
1459.420535	398.647552
1461.375433	400.730070
1463.331723	402.221678
1465.285739	403.213287
1467.239315	404.454545
1469.190618	405.900699
1471.143313	401.122378
1473.093737	408.557343
1475.043722	412.087413
1476.993267	422.245455
1478.940544	428.955944
1480.885554	437.534965
1482.831956	451.361538
1484.777920	456.676224
1486.723446	467.415385
1488.666708	472.342657
1490.609533	468.258042
1492.550095	463.985315
1494.492048	461.512587
1496.431740	466.743357
1498.370996	462.727972
1500.309818	472.148252
1502.246380	479.454545
1504.184332	489.741958
1506.120027	504.231469
1508.055288	515.343357
1509.988292	526.075524
1511.920864	535.943357
1513.853004	544.983217
1515.784712	546.381119
1517.714167	550.537762
1519.645011	556.040559
1521.575425	568.510490
1523.501766	588.461538
1525.429497	608.518881
1527.354978	634.664336
1529.280030	661.501399
1531.204653	688.860839
1533.128847	729.047552
1535.050794	771.441259
1536.974130	820.350350
1538.895221	880.430769
1540.814067	945.275524
1542.734303	1025.165734
1544.652295	1127.134965
1546.569861	1253.444755
1548.485185	1418.792308
1550.401899	1621.802098
1552.314558	1871.230070
1554.230421	2214.479720
1556.144045	2650.722378
1558.055430	3166.167133
1559.968204	3753.569231
1561.876929	4355.001399
1563.787044	4886.936364
1565.696735	5311.746154
1567.606002	5582.520280
1569.513036	5650.012587
1571.417837	5510.402098
1573.324027	5170.276224
1575.227985	4691.460140
1577.131523	4145.251748
1579.034639	3570.518881
1580.935527	3032.787413
1582.837803	2570.484615
1584.737850	2185.264336
1586.639286	1871.227273
1588.536687	1638.622378
1590.433671	1458.453147
1592.330236	1311.806993
1594.228188	1189.565734
1596.120306	1113.519580
1598.015618	1067.009790
1599.910511	1021.384615
1601.803183	991.233566
1603.695439	959.337762
1605.585475	944.264336
1607.475095	928.231469
1609.364300	904.226573
1611.253089	873.722378
1613.139662	831.500699
1615.027621	773.501399
1616.911565	709.704895
1618.796895	679.623077
1620.681812	644.253846
1622.564515	593.658741
1624.448604	554.486014
1626.328683	513.293706
1628.210148	500.441259
1630.089403	491.372727
1631.970044	474.867133
1633.844881	462.161538
1635.724700	452.031469
1637.600513	447.795105
1639.475917	458.467133
1641.352706	461.820280
1643.223698	456.120979
1645.097872	447.148951
1646.968048	433.972028
1648.841404	437.354545
1650.712557	434.165734
1652.581508	424.817483
1654.451845	414.968531
1656.318188	407.813287
1658.185918	399.534965
1660.051448	405.350350
1661.918363	411.324476
1663.781290	397.268531
1665.645602	392.580420
1667.507719	393.175524
1669.369430	385.143357
1671.232526	403.034965
1673.093428	386.275524
1674.952136	381.566434
1676.810441	380.299301
1678.670131	379.181119
1680.524054	368.693007
1682.381149	358.685315
1684.237842	342.885315
1686.090559	338.644056
1687.946447	339.540559
1689.798361	343.980420
1691.649873	352.885315
1693.500986	373.116783
1695.351697	369.734266
1697.202008	381.689510
1699.050135	387.689510
1700.899645	395.032168
1702.743407	388.204895
1704.592119	380.388112
1706.435084	366.360140
1708.281215	368.859441
1710.123385	367.505594
1711.968719	364.569231
1713.808313	356.252448
1715.649291	352.383916
1717.491652	337.446154
1719.330057	334.918182
1721.169845	339.053846
1723.007458	356.184615
1724.844675	355.290210
1726.679719	359.170629
1728.516146	364.353147
1730.350401	366.959441
1732.184262	377.795105
1734.017728	375.902098
1735.847248	368.679720
1737.679927	352.233566
1739.508662	349.607692
1741.340555	350.913287
1743.168505	362.824476
1744.996063	366.740559
1746.823230	352.101399
1748.650004	364.072727
1750.476388	356.773427
1752.298835	343.182517
1754.124436	352.800000
1755.946103	345.756643
1757.769152	343.282517
1759.590040	346.725874
1761.410538	369.176224
1763.232418	362.060140
1765.048598	354.036364
1766.867930	346.693007
1768.683335	354.098601
1770.501891	369.404895
1772.316521	348.265035
1774.130764	346.849650
1775.944621	343.689510
1777.758091	317.933566
1779.569407	320.161538
1781.382105	324.186014
1783.194416	330.038462
1785.002810	314.025175
1786.812585	322.400699
1788.618444	329.069231
1790.427450	338.386713
1792.232542	340.079720
1794.039014	333.281119
1795.845103	333.637762
1797.647282	311.862238
1799.452604	303.546853
1801.254018	320.439161
1803.056812	311.293706
1804.855701	311.739860
1806.655969	314.792308
1808.455857	330.446853
1810.253602	326.823077
1812.050967	319.820979
1813.847951	318.092308
1815.644555	317.393706
1817.439020	316.373427
1819.234865	311.367832
1821.025054	329.769231
1822.820140	334.641958
1824.609573	310.157343
1826.402144	299.730769
1828.192579	303.541259
1829.980879	309.256643
1831.772315	305.997902
1833.558105	306.948951
1835.345275	314.523776
1837.130313	316.423077
1838.918485	323.433566
1840.702771	322.993007
1842.484928	332.136364
1844.268463	332.714685
1846.049871	323.003497
1847.832656	325.141958
1849.611562	335.411888
1851.391846	334.500000
1853.170005	327.909790
1854.949541	336.420979
1856.726953	339.660140
1858.502241	334.955245
1860.278908	327.711189
1862.053452	321.718881
1863.829373	324.119580
1865.599675	324.476224
1867.373104	321.299301
1869.144413	321.885315
1870.915351	322.749650
1872.687666	323.753147
1874.454369	328.804196
1876.224196	332.254545
1877.990160	339.358741
1879.759248	344.242657
1881.524474	337.355245
1883.289332	346.058741
1885.055566	346.630070
1886.817942	340.959441
1888.579951	332.908392
1890.341593	323.755245
1892.102867	313.457343
1893.863775	315.775524
1895.624315	312.146154
1897.382746	306.897203
1899.140812	305.807692
1900.896770	307.356643
1902.654104	296.877622
1904.411072	302.583217
1906.165935	300.198601
1907.918692	311.300000
1909.671086	307.667832
1911.424856	309.288811
1913.176522	301.297902
1914.926085	305.046154
1916.677025	309.513287
1918.427601	310.870629
1920.174339	306.632168
1921.922452	302.772727
1923.668466	296.151049
1925.415856	297.623776
1927.161147	306.799301
1928.904341	314.185315
1930.648911	306.351049
1932.391384	304.565035
1934.133497	290.490210
1935.875251	293.291259
1937.616644	300.725874
1939.355944	301.274476
1941.094885	300.030769
1942.833467	297.281469
1944.569957	305.418182
1946.306090	315.816434
1948.043597	326.444056
1949.777283	325.554196
1951.512343	326.076224
1953.245314	325.705245
1954.977929	318.112587
1956.710187	319.116434
1958.442089	310.993007
1960.171905	304.820280
1961.899637	298.526573
1963.628742	298.001399
1965.357493	297.653147
1967.084160	305.589510
1968.810473	308.763636
1970.538159	306.995105
1972.260309	299.867133
1973.985561	300.368531
1975.707005	298.165035
1977.431549	290.523077
1979.154014	287.144755
1980.872675	297.287413
1982.594435	293.607692
1984.312393	299.579021
1986.031725	308.567832
1987.747256	322.575524
1989.467609	329.086014
1991.184162	331.573427
1992.896920	327.576224
1994.612773	343.563636
1996.326554	339.669231
1998.039984	330.993007
1999.751344	328.862937
2001.464077	322.237762
2003.173018	315.851049
2004.885053	315.945455
2006.591578	318.474126
2008.301196	317.348951
2010.008746	317.744755
2011.715949	310.122378
2013.421086	310.849650
2015.125876	315.169231
2016.832038	309.664336
2018.534418	303.265035
2020.238170	299.111189
2021.939859	295.827273
2023.641202	310.274825
2025.342200	316.987413
2027.041138	324.452448
2028.741447	327.048951
2030.437980	323.765734
2032.135885	316.548951
2033.831732	320.996503
2035.530664	317.820979
2037.224110	310.170629
2038.918927	297.919580
2040.613401	301.937762
2042.304107	297.874126
2043.997897	312.808392
2045.687920	317.773427
2047.379314	315.606294
2049.068655	312.500000
2050.759366	311.753846
2052.446315	303.961538
2054.132923	302.039860
2055.820902	301.493706
2057.505121	296.225874
2059.190710	291.129371
2060.875960	299.938462
2062.559162	299.018881
2064.243734	306.923077
2065.922842	311.522378
2067.606736	306.880420
2069.285170	312.230769
2070.966681	311.856643
2072.644440	310.094406
2074.321863	319.522378
2076.000655	319.914685
2077.677404	318.813287
2079.352112	310.311888
2081.028189	310.558741
2082.702226	304.449650
2084.375927	295.799301
2086.049293	288.771329
2087.720621	284.998601
2089.391614	284.907692
2091.062273	286.156643
2092.732598	294.742657
2094.402588	299.546853
2096.070543	299.502098
2097.738165	303.686713
2099.403753	303.355245
2101.070709	302.902797
2102.735632	294.713986
2104.400222	286.067133
2106.062781	284.745455
2107.726709	286.551049
2109.388605	280.261538
2111.050170	287.213287
2112.711405	294.560140
2114.370610	288.044755
2116.029486	291.767133
2117.688031	296.084615
2119.346247	298.149650
2121.000739	296.154545
2122.658297	293.276923
2124.315524	293.974126
2125.969031	292.879021
2127.623905	291.937762
2129.275060	292.537063
2130.929278	305.688112
2132.579778	305.556643
2134.231646	306.820979
2135.878105	313.218182
2137.529318	326.397902
2139.176818	334.294406
2140.825686	335.653147
2142.472534	326.954545
2144.119056	325.213287
2145.765254	318.875524
2147.407742	314.204895
2149.053289	311.967133
2150.695129	313.716084
2152.340026	311.381818
2153.981218	319.478322
2155.622086	314.500699
2157.262631	319.647552
2158.901163	320.190909
2160.541061	319.860839
2162.177259	312.146853
2163.814823	315.034266
2165.452065	313.203497
2167.087297	304.941958
2168.722207	309.046853
2170.356796	309.527273
2171.991064	305.257343
2173.621638	304.160140
2175.255263	303.067832
2176.885197	309.158042
2178.516496	319.654545
2180.145791	321.142657
2181.774765	312.709091
2183.403421	308.997203
2185.031757	306.802797
2186.658090	305.044755
2188.284105	304.079021
2189.908119	305.993706
2191.533498	302.751049
2193.156876	302.558042
2194.781619	302.038462
2196.402680	300.631469
2198.023426	295.093706
2199.645535	287.623776
2201.265647	283.579021
2202.883763	288.564336
2204.501563	291.440559
2206.119047	300.856643
2207.736216	302.455245
2209.353070	312.630769
2210.969609	308.887413
2212.584154	304.454545
2214.196707	298.596503
2215.810625	295.260839
2217.422550	290.679720
2219.035840	296.230769
2220.647138	305.060140
2222.256448	308.869930
2223.867120	306.360140
2225.475804	312.397902
2227.084176	308.563636
2228.690560	307.003497
2230.298308	300.601399
2231.904069	302.435664
2233.509519	298.184615
2235.112985	295.104196
2236.717813	295.344755
2238.320657	306.652448
2239.921518	315.022378
2241.523742	326.013287
2243.123983	331.342657
2244.725588	328.474126
2246.323539	320.537063
2247.922853	316.255245
2249.520187	303.863636
2251.117213	297.524476
2252.715600	279.602797
2254.310339	271.776923
2255.903102	276.178322
2257.497226	288.951049
2259.092712	294.095804
2260.684554	315.186713
2262.276089	314.551049
2263.868985	308.697902
2265.456572	313.286014
2267.048856	325.856643
2268.635832	321.396503
2270.225837	315.239860
2271.810537	297.737063
2273.399931	301.290210
2274.984022	306.248252
2276.569475	310.809790
2278.152959	304.402098
2279.739468	299.945455
2281.322344	292.686014
2282.904916	297.247203
2284.487186	308.204895
2286.065825	313.703846
2287.647488	301.375524
2289.225524	295.454895
2290.806582	284.452448
2292.384013	298.045105
2293.959481	289.972028
2295.537971	295.657692
2297.112836	280.047552
2298.687401	284.298951
2300.261666	294.965035
2301.835630	310.900350
2303.409294	321.590909
2304.982657	319.588811
2306.552402	317.789510
2308.121848	314.198601
2309.694313	301.446154
2311.261503	304.454545
2312.831710	286.061538
2314.398303	284.663636
2315.966256	275.273427
2317.532254	278.876923
2319.097954	279.287413
2320.663356	303.093007
2322.226805	319.903497
2323.791613	337.155944
2325.352812	349.272028
2326.917026	347.939161
2328.475979	344.549650
2330.037945	336.709790
2331.597961	329.415385
2333.157681	315.962937
2334.715452	305.104895
2336.272929	292.797902
2337.830110	288.839161
2339.385345	300.998601
2340.940285	294.225175
2342.494932	294.674825
2344.049285	298.482517
2345.603344	293.897203
2347.157110	303.440559
2348.708931	309.133566
2350.258809	321.734965
2351.811695	320.310490
2353.359339	331.159441
2354.909990	347.469930
2356.457051	355.475524
2358.005469	368.991608
2359.553595	363.163636
2361.098134	352.458042
2362.644030	345.743357
2364.187987	337.865734
2365.733302	330.604895
2367.275032	320.825874
2368.818120	315.955944
2370.359271	310.708392
2371.900133	323.340559
2373.440706	335.500699
2374.980990	344.655245
2376.520985	355.168531
2378.057401	360.009790
2379.596819	352.115385
2381.132660	359.651049
2382.669857	358.764336
2384.203480	334.847552
2385.740102	331.934266
2387.274793	337.013287
2388.807555	331.093007
2390.340031	337.580420
2391.870578	343.566434
2393.404123	342.517483
2394.932457	342.245455
2396.462147	349.411888
2397.991552	350.486713
2399.520672	356.493706
2401.049506	344.517483
2402.573136	342.706993
2404.101401	352.640559
2405.624463	373.075524
2407.152160	367.488811
2408.673016	373.716084
2410.198506	392.457343
2411.720436	392.376224
2413.243720	393.127273
2414.765084	378.320280
2416.284528	363.388112
2417.805327	351.905594
2419.324207	348.614685
2420.842805	358.730070
2422.359486	366.807692
2423.877522	387.511888
2425.395276	380.519580
2426.909478	387.385315
2428.423400	395.946154
2429.937043	406.690210
2431.452039	411.991608
2432.963487	409.505594
2434.476290	424.641259
2435.987180	434.753147
2437.497790	447.109091
2439.006489	454.264336
2440.518175	466.637762
2442.026317	462.292308
2443.534180	452.730070
2445.041766	430.020280
2446.545812	417.096503
2448.052842	415.972028
2449.557964	397.659441
2451.062809	387.842657
2452.565747	378.827273
2454.068408	373.105594
2455.570793	375.188811
2457.071273	381.403497
2458.573106	390.814685
2460.073035	400.868531
2461.572688	415.473427
2463.072066	410.941259
2464.569541	422.148951
2466.065114	421.363636
2467.563667	400.889510
2469.058691	396.525175
2470.555069	384.095804
2472.047920	387.259441
2473.542123	383.190909
2475.036053	384.078322
2476.526460	389.183217
2478.019844	388.003497
2479.511329	383.720280
2481.000918	377.847552
2482.490236	367.827972
2483.977657	358.790909
2485.468054	348.079021
2486.954932	358.534266
2488.443162	349.111189
2489.927876	353.532867
2491.412319	357.883916
2492.898114	369.292308
2494.382016	368.581818
2495.867270	360.574126
2497.347390	365.841259
2498.830482	369.705594
2500.311684	364.191608
2501.792617	374.391608
2503.271661	378.424476
2504.750437	370.644056
2506.228944	360.246154
2507.707182	356.624476
2509.185152	354.488811
2510.659618	363.970629
2512.137052	350.390210
2513.610983	354.006993
2515.086265	356.286014
2516.561279	350.739161
2518.032792	353.063636
2519.505656	362.391608
2520.976637	360.253147
2522.448967	337.831469
2523.916185	331.914685
2525.386369	312.939161
2526.854671	303.825175
2528.322709	317.049650
2529.790482	320.512587
2531.257990	333.175524
2532.725233	341.572727
2534.188985	350.018881
2535.654086	375.788811
2537.117310	391.020280
2538.581883	402.951049
2540.042967	395.293706
2541.505402	399.304895
2542.967573	382.372028
2544.426257	369.407692
2545.889514	373.511189
2547.347674	356.523776
2548.807183	345.097203
2550.261599	342.049650
2551.720585	342.181119
2553.177698	349.202098
2554.632941	354.995804
2556.087923	359.162238
2557.541035	362.838462
2558.995496	375.038462
2560.448088	381.327972
2561.900420	393.728671
2563.350884	413.081818
2564.804304	403.148252
2566.252642	406.766434
2567.703936	414.750350
2569.153363	411.731469
2570.599319	406.508392
2572.048229	393.451748
2573.493668	384.711189
2574.940456	377.565035
2576.385380	377.558741
2577.830047	383.306993
2579.276061	389.645455
2580.718608	398.977622
2582.162503	408.267133
2583.602933	421.204196
2585.044711	434.549650
2586.484629	445.789510
2587.925894	457.501399
2589.363697	462.872727
2590.804450	477.340559
2592.240140	475.055245
2593.678780	472.972727
2595.115563	465.416783
2596.550489	465.995105
2597.988364	474.281119
2599.421181	482.362238
2600.855345	478.313287
2602.287654	482.974126
2603.721310	497.860839
2605.153113	512.560140
2606.584663	521.901399
2608.015959	535.501399
2609.445404	539.633566
2610.874596	553.604895
2612.301937	559.753147
2613.730625	587.827273
2615.159060	613.030070
2616.584049	631.801399
2618.010383	640.158741
2619.434869	648.216084
2620.860701	646.446154
2622.283089	647.661538
2623.706823	642.355245
2625.128711	645.073427
2626.550348	651.618881
2627.970140	674.377622
2629.391278	684.574126
2630.812166	724.832168
2632.229616	752.918182
2633.650005	786.693007
2635.066957	802.483217
2636.483661	816.930769
2637.900116	830.541259
2639.316323	836.124476
2640.732281	845.204895
2642.146399	870.818182
2643.560270	891.465734
2644.972301	922.965734
2646.385677	947.184615
2647.795623	980.371329
2649.208505	1003.948252
2650.617958	1037.654545
2652.027165	1061.581818
2653.434536	1088.906993
2654.844841	1105.293007
2656.253310	1112.769930
2657.659944	1132.730769
2659.066333	1153.338462
2660.470888	1180.644755
2661.876787	1211.835664
2663.280853	1249.065035
2664.684675	1287.264336
2666.088252	1328.122378
2667.489997	1364.565035
2668.893086	1390.888811
2670.292758	1411.206294
2671.693773	1433.495105
2673.091371	1456.067133
2674.491900	1472.400000
2675.889014	1482.057343
2677.287471	1505.711888
2678.684100	1507.253846
2680.080488	1516.416084
2681.476633	1531.304895
2682.870952	1531.733566
2684.266614	1535.480420
2685.658866	1535.136364
2687.052462	1535.365734
2688.444233	1537.139860
2689.837346	1526.255245
2691.228636	1513.599301
2692.618103	1503.735664
2694.007331	1490.213287
2695.396318	1465.713287
2696.786648	1439.825175
2698.171993	1434.439860
2699.560263	1415.967133
2700.946712	1408.055944
2702.332922	1400.951049
2703.718893	1392.151748
2705.101466	1366.013287
2706.485380	1353.248951
2707.869057	1336.409790
2709.252496	1308.088811
2710.632539	1280.737762
2712.013924	1249.630769
2713.393493	1205.331469
2714.774404	1180.457343
2716.153500	1144.513986
2717.530781	1101.598601
2718.909404	1059.725175
2720.286214	1030.443357
2721.662788	979.572028
2723.039126	955.808392
2724.413652	920.288112
2725.789519	882.627273
2727.161999	857.211189
2728.537396	817.983217
2729.907831	777.357343
2731.279608	763.595804
2732.651151	735.382517
2734.020885	702.850350
2735.391959	675.041259
2736.761226	655.972028
2738.130259	626.065035
2739.497485	610.325874
2740.864479	599.053846
2742.231240	573.897902
2743.597768	548.923776
2744.962492	518.395105
2746.326983	495.944755
2747.691242	498.567832
2749.055270	488.944755
2750.419065	485.534965
2751.779487	482.383217
2753.142820	483.376923
2754.501210	479.454545
2755.862510	466.456643
2757.220439	453.272727
2758.581278	425.991608
2759.940316	404.840559
2761.295986	384.616783
2762.654565	364.630070
2764.009776	368.276224
2765.364758	358.693007
2766.717943	360.546154
2768.074035	367.904196
2769.426763	386.979720
2770.779262	394.002098
2772.131533	399.565734
2773.485143	402.235664
2774.835391	411.172028
2776.183846	416.581119
2777.535205	408.123776
2778.883205	405.005594
2780.232544	395.681119
2781.580090	374.071329
2782.927409	358.935664
2784.274502	357.122378
2785.619804	351.281818
2786.964880	351.286014
2788.309730	360.015385
2789.654354	368.779720
2790.995625	381.476923
2792.338235	376.368531
2793.680620	366.739161
2795.022779	363.555944
2796.361589	350.965035
2797.703299	340.517483
2799.041660	329.433566
2800.381359	323.735664
2801.719272	308.415385
2803.055401	312.688112
2804.391307	326.274825
2805.728549	341.316084
2807.064008	347.844755
2808.399244	353.995804
2809.732698	367.165734
2811.067488	368.252448
2812.398937	382.916084
2813.733282	378.018881
2815.062729	366.872028
2816.393513	347.203497
2817.724075	326.725175
2819.052858	317.686713
2820.382978	304.972727
2821.711318	301.804895
2823.039438	296.152448
2824.365781	301.221678
2825.693459	303.220280
2827.017805	303.564336
2828.343486	316.007692
2829.667393	313.932867
2830.991079	317.507692
2832.316101	306.681119
2833.637794	295.848252
2834.959267	289.116084
2836.280522	275.889510
2837.601558	272.013287
2838.920822	262.704196
2840.241421	267.053846
2841.560248	266.303497
2842.878857	279.005594
2844.195696	288.939860
2845.512317	290.957343
2846.828720	300.697902
2848.143355	301.136364
2849.459324	296.513287
2850.771973	294.829371
2852.085958	288.054545
2853.399726	290.758042
2854.713277	287.151049
2856.025061	291.297203
2857.335080	289.306294
2858.646433	290.961538
2859.954470	289.684615
2861.263843	284.293007
2862.573000	290.302797
2863.881942	285.450350
2865.189121	287.240559
2866.494536	289.889510
2867.801286	293.439860
2869.106273	301.125175
2870.411047	303.744755
2871.714059	300.106993
2873.019953	292.706993
2874.320992	289.701399
2875.623364	304.548252
2876.923977	308.803497
2878.225924	309.255245
2879.527658	308.046154
2880.826088	323.778322
2882.125851	318.061538
2883.423857	315.404196
2884.721651	311.900000
2886.017688	303.956643
2887.315059	292.111189
2888.610674	283.058741
2889.906079	283.388112
2891.201272	297.969231
2892.493167	292.932168
2893.787939	288.918182
2895.079415	294.395105
2896.372223	305.393706
2897.664821	306.372727
2898.954124	312.705594
2900.244760	307.812587
2901.533646	300.549650
2902.823863	306.503497
2904.110789	296.217483
2905.399047	285.089510
2906.685556	286.160839
2907.971856	273.155245
2909.257948	275.360839
2910.542292	279.827273
2911.829508	281.110490
2913.111897	280.587413
2914.395618	288.387413
2915.677592	291.320979
2916.959360	297.010490
2918.239382	301.809091
2919.522274	302.525175
2920.803421	305.920979
2922.081286	310.510490
2923.362020	307.098601
2924.639473	298.282517
2925.916721	287.802797
2927.192226	276.539860
2928.470599	268.755944
2929.744157	270.501399
2931.020583	276.234266
2932.295268	281.337762
2933.568213	284.095105
2934.842488	295.493706
2936.115024	287.644056
2937.387356	282.502098
2938.656415	277.673427
2939.928339	265.074126
2941.198525	257.565035
2942.468507	246.932168
2943.738286	242.887413
2945.006328	243.783916
2946.272635	252.879021
2947.538739	259.653147
2948.806174	261.948252
2950.071873	267.720979
2951.337370	260.552448
2952.602665	270.214685
2953.864696	264.413986
2955.128056	261.512587
2956.391215	258.389510
2957.652641	259.469231
2958.915397	271.007692
2960.176422	268.323077
2961.435716	264.883217
2962.694809	264.884615
2963.953702	260.032168
2965.212395	258.762238
2966.470888	253.755944
2967.727652	254.295804
2968.984217	248.453147
2970.239053	252.725874
2971.495219	261.955944
2972.748129	286.451049
2974.002369	296.676923
2975.256410	304.160140
2976.508725	304.094406
2977.760842	304.029371
2979.011234	293.302098
2980.264481	286.333566
2981.512951	269.479021
2982.764275	256.176923
2984.012351	240.843357
2985.260229	222.862238
2986.507910	227.997203
2987.755395	235.305594
2989.001158	239.572028
2990.246724	243.232168
2991.493619	242.100699
2992.737268	248.726573
2993.982246	252.899301
2995.223981	250.986713
2996.468567	243.924476
2997.711434	241.611888
2998.951059	235.088112
3000.193536	236.119580
3001.432772	249.748252
3002.673336	255.107692
3003.912183	259.138462
3005.150836	257.222378
3006.387773	262.961538
3007.626037	263.675524
3008.862587	272.031469
3010.098943	264.341958
3011.335105	255.042657
3012.569553	244.988811
3013.803808	242.795105
3015.037870	248.055245
3016.270220	246.663636
3017.500858	241.373427
3018.734342	235.651049
3019.966115	241.070629
3021.196176	234.509091
3022.426046	229.976923
3023.654206	238.734965
3024.883693	236.364336
3026.111470	234.486014
3027.339056	231.494406
3028.567968	239.567133
3029.792138	240.390210
3031.019151	236.825874
3032.242941	241.836364
3033.468056	247.508392
3034.691465	242.490909
3035.914685	239.329371
3037.136199	241.844755
3038.360554	246.842657
3039.580174	248.869231
3040.801120	244.548252
3042.021876	243.833566
3043.240929	234.232867
3044.461308	226.665035
3045.678470	222.584615
3046.896957	222.051748
3048.113743	222.268531
3049.330340	215.790210
3050.546750	220.558042
3051.759946	220.190909
3052.975980	213.120280
3054.188802	222.093706
3055.404461	221.370629
3056.615397	222.274825
3057.827659	212.770629
3059.039733	216.806294
3060.251621	221.771329
3061.461811	223.760140
3062.671816	235.430070
3063.881634	242.967133
3065.089756	241.982517
3066.297692	242.980420
3067.503934	238.717483
3068.711500	232.809091
3069.917371	219.572028
3071.123057	217.397902
3072.328559	216.254545
3073.532367	215.451049
3074.737499	222.652448
3075.940938	228.067133
3077.142685	244.478322
3078.344249	256.832867
3079.545629	257.348252
3080.746825	254.531469
3081.946331	246.715385
3083.145653	230.625874
3084.346299	219.100699
3085.545256	212.971329
3086.741017	208.187413
3087.939608	205.442657
3089.135005	207.696503
3090.331726	216.569231
3091.525254	226.672727
3092.721610	227.473427
3093.916279	216.691608
3095.107758	208.029371
3096.303568	214.723077
3097.494685	213.540559
3098.687125	206.147552
3099.876376	214.239860
3101.068454	218.367832
3102.258848	225.061538
3103.446055	226.681818
3104.634586	231.819580
3105.824439	239.565035
3107.011107	237.772028
3108.197596	232.046154
3109.383905	230.920979
3110.571537	234.332867
3111.755986	237.386014
3112.938755	230.369930
3114.124348	227.474825
3115.308260	225.372727
3116.490494	225.437762
3117.672550	223.263636
3118.854427	216.375524
3120.036126	228.435664
3121.216148	228.153846
3122.394492	220.925175
3123.575658	220.130070
3124.753648	221.782517
3125.931461	225.195105
3127.109097	217.915385
3128.285058	225.947552
3129.460843	231.935664
3130.637948	245.102098
3131.813380	239.215385
3132.987138	235.537762
3134.159223	235.772028
3135.332629	220.013287
3136.505860	213.892308
3137.677418	210.176224
3138.850298	204.422378
3140.020010	207.792308
3141.191043	205.127972
3142.360405	220.101399
3143.528098	223.250350
3144.698606	235.074126
3145.864455	231.076224
3147.034614	247.539161
3148.200115	248.223776
3149.365443	248.158741
3150.530597	254.929371
3151.695578	252.036364
3152.861878	249.809091
3154.023525	247.300699
3155.186493	235.385315
3156.349287	231.256643
3157.511909	215.139161
3158.672866	210.515385
3159.833650	214.738462
3160.994263	228.034266
3162.153211	229.540559
3163.311987	230.867133
3164.470592	225.435664
3165.629025	227.115385
3166.787286	224.673427
3167.943885	218.554545
3169.098823	217.505594
3170.255080	201.750350
3171.409677	190.337063
3172.564102	194.042657
3173.716868	198.855944
3174.869464	207.032168
3176.021890	216.653147
3177.174145	218.735664
3178.326231	226.742657
3179.475170	245.516783
3180.626916	251.484615
3181.777005	247.862937
3182.925436	247.106993
3184.073699	232.446154
3185.221793	230.858042
3186.369717	225.693706
3187.515987	224.746853
3188.662088	225.216783
3189.806535	223.251748
3190.950813	224.316084
3192.094924	233.188112
3193.240353	235.962238
3194.382643	234.460140
3195.524765	227.132867
3196.666721	233.509790
3197.808509	225.993007
3198.950130	231.357343
3200.088615	231.643357
3201.228419	232.711189
3202.369539	235.969231
3203.507525	236.593007
3204.643862	246.357343
3205.780033	249.473427
3206.917522	253.855944
3208.053362	260.931469
3209.190518	269.322378
3210.323063	270.795105
3211.459888	267.027273
3212.592102	274.703497
3213.725634	273.504196
3214.859000	268.113287
3215.989239	266.197203
3217.122277	265.712587
3218.252187	268.247552
3219.383415	262.959441
3220.511517	264.863636
3221.642417	267.611888
3222.771672	268.720280
3223.899283	262.592308
3225.023773	261.602098
3226.152538	261.785315
3227.278181	250.800699
3228.403661	242.751049
3229.527500	238.763636
3230.654134	233.832867
3231.776169	231.237762
3232.899521	232.823077
3234.022711	234.053147
3235.145739	231.818881
3236.267127	231.039860
3237.388354	227.944755
3238.507942	221.453147
3239.627369	213.683217
3240.745159	205.637762
3241.865740	194.812587
3242.983208	195.538462
3244.100515	193.686713
3245.217661	200.095105
3246.333172	207.256643
3247.449998	212.860140
3248.563713	215.921678
3249.680219	219.040559
3250.795089	210.965734
3251.906851	205.718881
3253.018454	202.309790
3254.131372	203.576923
3255.244130	193.766434
3256.353782	199.246154
3257.464749	196.901399
3258.575557	200.153147
3259.684733	204.041259
3260.792278	208.752448
3261.901138	211.065035
3263.009839	205.330769
3264.115438	205.658741
3265.222352	213.097203
3266.327636	218.311888
3267.434234	218.291608
3268.537732	212.362238
3269.642544	209.710490
3270.747199	200.108392
3271.848756	203.015385
3272.950156	201.871329
3274.052870	208.137762
3275.155427	214.334965
3276.254889	217.531469
3277.357133	221.832867
3278.456283	222.137063
3279.553807	213.641958
3280.651176	210.575524
3281.751328	199.669930
3282.848386	194.466434
3283.945290	190.262238
3285.042038	192.452448
3286.134227	191.958042
3287.230666	199.200000
3288.325482	194.363636
3289.420143	193.109091
3290.513183	194.204895
3291.606069	188.911189
3292.697334	184.760140
3293.789912	180.383217
3294.880870	181.095105
3295.970208	188.714685
3297.059393	193.840559
3298.149890	200.711888
3299.237303	197.715385
3300.324564	202.278322
3301.413137	204.763636
3302.501557	205.251049
3303.585430	204.780420
3304.673545	195.023776
3305.758579	192.295105
3306.841997	187.741958
3307.926727	186.683916
3309.009841	184.203497
3310.094267	178.242657
3311.175615	180.046853
3312.258275	173.418881
3313.339321	177.872727
3314.420216	176.358741
3315.499498	179.122378
3316.578629	171.839860
3317.659072	167.607692
3318.736440	167.726573
3319.815120	170.672028
3320.892188	175.520280
3321.969106	177.616783
3323.044414	181.244056
3324.119572	188.104895
3325.196041	188.478322
3326.269439	196.910490
3327.342689	202.271329
3328.417250	206.386014
3329.490201	193.202098
3330.561545	191.754545
3331.634199	193.311888
3332.703786	204.423077
3333.774684	209.916084
3334.843975	205.726573
3335.914577	207.427972
3336.983572	206.428671
3338.050961	203.661538
3339.116745	200.344056
3340.186755	191.202098
3341.253702	183.697902
3342.317587	175.422378
3343.384240	179.286713
3344.449289	174.490210
3345.512734	181.618881
3346.576032	183.172028
3347.639185	182.738462
3348.702191	186.553846
3349.765050	180.476224
3350.826308	183.745455
3351.884509	178.741259
3352.946931	179.551748
3354.006296	187.561538
3355.065517	187.339860
3356.126046	197.142657
3357.182066	189.069231
3358.240851	196.197902
3359.295128	198.294406
3360.352169	193.823077
3361.407611	187.609091
3362.464362	179.455944
3363.519516	185.380420
3364.573072	180.530070
3365.625031	181.693706
3366.679752	186.409091
3367.731425	175.785315
3368.782953	182.940559
3369.835791	177.144056
3370.885581	186.115385
3371.936680	185.098601
3372.984732	183.754545
3374.035545	179.854545
3375.083312	178.825175
3376.130937	176.655944
3377.178420	168.541958
3378.224309	165.047552
3379.271508	155.880420
3380.315663	147.177622
3381.362577	152.856643
3382.407899	160.200699
3383.450181	165.261538
3384.492321	169.865734
3385.535770	189.188112
3386.579077	187.597902
3387.620794	185.214685
3388.662370	181.401399
3389.703806	179.060839
3390.743653	173.760140
3391.781911	166.059441
3392.821477	166.427273
3393.860903	162.958042
3394.898741	166.134266
3395.934992	162.420280
3396.971103	172.059441
3398.008522	184.809091
3399.042908	174.273427
3400.078602	174.006294
3401.114156	175.448951
3402.146678	170.852448
3403.181954	177.002098
3404.214199	178.343357
3405.246306	186.688112
3406.276829	186.679720
3407.308660	184.374126
3408.340352	182.342657
3409.369016	181.063636
3410.397542	176.294406
3411.427376	167.768531
3412.457072	160.504895
3413.483741	157.250350
3414.511718	156.866434
3415.536670	166.990210
3416.564372	169.639860
3417.589051	172.544755
3418.615036	172.552448
3419.639442	170.354545
3420.663710	164.318182
3421.686400	160.668531
3422.708955	158.448951
3423.732814	159.705594
3424.753654	154.559441
3425.774359	159.185814
3426.796369	165.515959
3427.815361	172.957742
3428.834218	180.919031
3429.854381	188.807692
3430.871526	196.031593
