-118.385087	1.730220
-115.715486	0.853846
-113.048821	-0.012687
-110.382909	-0.808891
-107.719928	-1.474276
-105.055517	-1.948352
-102.394037	-2.170629
-99.731128	-0.819580
-97.073326	-3.139161
-94.414093	0.559441
-91.755609	2.661538
-89.100050	4.363636
-86.443062	5.091608
-83.791171	5.020979
-81.137851	3.195105
-78.487451	1.932168
-75.835621	2.263636
-73.188882	1.304895
-70.540713	2.059441
-67.893288	3.237762
-65.248776	3.088811
-62.602835	8.482517
-59.961977	9.774825
-57.319688	11.765035
-54.680309	11.174126
-52.039501	10.689510
-49.399432	8.235664
-46.764437	7.176923
-44.128012	5.946853
-41.494491	4.436364
-38.859540	7.206294
-36.229656	7.879720
-33.596178	7.958042
-30.967763	9.260839
-28.340082	11.139161
-25.710973	7.622378
-23.086920	-17.093007
-20.459278	-111.766434
-17.836689	-324.526573
-15.214831	-352.197902
-12.593704	287.874126
-9.973308	1514.652448
-7.355799	2590.842657
-4.736862	3348.214685
-2.120811	3778.440559
0.494512	3882.051049
3.109108	3663.920979
5.720822	3124.012587
8.333963	2282.108392
10.942071	1202.798601
13.553761	107.281119
16.160420	-514.571329
18.768507	-421.290909
21.375870	-62.180420
23.978208	9.244755
26.584124	9.602797
29.185019	6.912587
31.787341	2.836364
34.384645	3.774825
36.985525	3.365734
39.581391	3.709790
42.178684	4.300699
44.775258	3.311888
47.366823	3.355245
49.959816	4.907692
52.549948	6.824476
55.141508	4.648252
57.730208	2.744056
60.320336	4.661538
62.905464	3.458741
65.492020	4.020979
68.077861	4.304196
70.660849	5.069930
73.245264	3.420979
75.822549	2.868531
78.403401	2.513287
80.981404	5.684615
83.558697	6.510490
86.137416	5.982517
88.711154	4.253147
91.286318	6.921678
93.858639	8.523077
96.430253	8.049650
98.999026	10.748252
101.569226	9.302797
104.136587	8.951748
106.705375	9.977622
109.271325	8.115385
111.834441	7.674825
114.401114	6.920280
116.958564	5.235664
119.521700	7.375524
122.079877	11.889510
124.641607	24.660839
127.198382	39.328671
129.756582	63.760839
132.309830	92.379720
134.862379	129.469930
137.418480	166.596503
139.969632	205.616783
142.520086	243.098601
145.069844	275.872028
147.616782	301.089510
150.163024	318.403497
152.710693	324.870629
155.257665	328.348252
157.799701	326.248252
160.341044	324.737063
162.881695	320.602797
165.423770	316.062937
167.963035	307.953846
170.499490	306.307692
173.035255	304.818182
175.572445	302.076923
178.108943	303.420979
180.642636	303.492308
183.173526	306.596503
185.703727	306.646154
188.235353	307.637762
190.764179	308.953846
193.290205	313.659441
195.815545	311.705594
198.342310	305.989510
200.866279	306.061538
203.389562	302.725874
205.912161	300.667133
208.431967	302.609790
210.951090	303.062937
213.469530	307.271329
215.989394	306.965734
218.502257	308.146853
221.018651	313.202098
223.534364	316.730070
226.045186	312.994406
228.557433	311.114685
231.066897	315.337063
233.575683	313.113287
236.083791	312.152448
238.593323	312.947552
241.097974	313.627972
243.601949	318.872727
246.107348	323.740559
248.607872	326.213287
251.111919	324.881818
253.608996	324.279021
256.109595	325.597902
258.607423	329.283217
261.104578	333.115385
263.601060	332.745455
266.092680	333.993007
268.587818	335.200000
271.080191	335.290210
273.571893	340.918881
276.060832	343.147552
278.551194	338.687413
281.038795	335.144056
283.523636	338.287413
286.011991	338.916084
288.493408	341.009790
290.978338	346.324476
293.458422	346.590909
295.942019	347.846154
298.420774	347.081119
300.900951	347.314685
303.378377	350.968531
305.855139	352.848252
308.331237	360.332867
310.804587	381.492308
313.277276	403.639161
315.749303	423.002797
318.220668	440.937762
320.689290	455.474825
323.157252	450.624476
325.626637	443.034266
328.091199	428.966434
330.559264	408.479021
333.022510	384.801399
335.485099	366.535664
337.947030	360.970629
340.408305	365.016084
342.866846	367.090909
345.326809	371.105594
347.784040	374.666434
350.240616	379.627972
352.696537	378.682517
355.149730	379.438462
357.604345	381.757343
360.054158	374.753147
362.507467	369.493706
364.955977	364.501399
367.403837	365.651049
369.853118	362.875524
372.297606	360.765734
374.743516	360.214685
377.188777	359.295804
379.631319	365.485315
382.073213	367.252448
384.514459	369.130070
386.952990	373.754545
389.392943	371.724476
391.830182	372.263636
394.264709	368.416084
396.702724	371.625175
399.135962	369.957343
401.570622	371.581818
404.000509	372.675524
406.433881	372.953147
408.862482	375.643357
411.290443	371.572727
413.719824	372.925175
416.144441	375.153147
418.570478	377.612587
420.995876	378.204196
423.420633	376.683916
425.840631	377.325874
428.262051	378.772028
430.680774	379.493007
433.100918	379.810490
435.518367	378.113287
437.937236	375.706993
440.353412	373.382517
442.764841	373.788112
445.179746	376.607692
447.591961	377.348252
450.003542	375.220979
452.414489	371.738462
454.822750	367.434266
457.230379	365.798601
459.637375	361.276923
462.043739	357.850350
464.447422	353.831469
466.850474	350.937063
469.252896	349.067832
471.654688	347.526573
474.053802	349.474825
476.454336	350.393706
478.854241	353.353846
481.249423	354.678322
483.648072	351.097203
486.042001	349.488811
488.435304	345.454545
490.827981	338.381818
493.220033	325.580420
495.613504	317.701399
498.002262	307.848951
500.388354	297.729371
502.775866	287.065035
505.162754	276.732168
507.546979	267.519580
509.932623	256.753846
512.315604	246.517483
514.695925	238.663636
517.077665	232.382517
519.456746	225.695105
521.837246	218.302797
524.215088	219.795804
526.590275	219.146154
528.964844	214.353846
531.340832	210.113986
533.714166	205.512587
536.088919	202.241958
538.458985	199.701399
540.828436	201.387413
543.199306	203.541958
545.565494	206.183916
547.933101	208.172727
550.298062	207.601399
552.662410	207.830070
555.026146	203.718881
557.391299	201.252448
559.751780	198.016783
562.113678	194.228671
564.472937	190.302797
566.829557	189.843357
569.189623	192.955944
571.542997	196.311888
573.899816	195.123077
576.254000	195.242657
578.607575	191.957343
580.960542	186.901399
583.310878	183.982517
585.662630	183.090909
588.007706	182.699301
590.358246	182.027972
592.702113	183.079021
595.051441	185.353147
597.396120	185.837762
599.738175	188.049650
602.081647	186.832867
604.422496	185.521678
606.762742	179.960140
609.100368	175.192308
611.441429	172.825874
613.777853	168.551748
616.115693	166.840559
618.450915	163.415385
620.783522	161.490909
623.117546	161.456643
625.448955	159.158042
627.779766	161.022378
630.109979	162.614685
632.439595	162.673427
634.764587	160.386014
637.095021	162.326573
639.420833	161.957343
641.744039	162.831469
644.068661	160.837063
646.390677	160.332168
648.712099	158.806993
651.030918	158.993007
653.351153	154.454545
655.670795	154.113287
657.987836	154.482517
660.304286	157.349650
662.618137	157.058042
664.933403	154.795804
667.246073	153.834266
669.560158	155.147552
671.869644	154.561538
674.180544	155.876224
676.488852	150.777622
678.796572	147.702098
681.105707	146.332867
683.410249	146.225874
685.714205	145.377622
688.017574	148.577622
690.322358	144.341259
692.622556	140.701399
694.924169	141.609790
697.225196	141.279720
699.521642	142.140559
701.819502	138.992308
704.116780	135.599301
706.413473	136.938462
708.705591	139.060140
711.001120	139.351049
713.292076	139.364336
715.584446	141.868531
717.874240	142.209091
720.163455	145.875524
722.452089	144.816084
724.738152	147.397203
727.025628	146.964336
729.310534	143.827273
731.594861	143.557343
733.876621	142.483217
736.159794	139.794406
738.442390	139.563636
740.720430	138.979720
742.999884	139.411888
745.278763	142.219580
747.557066	143.559441
749.830820	144.646154
752.105988	150.797902
754.380582	152.276224
756.652617	154.708392
758.926065	153.504196
761.196955	154.729371
763.465288	153.072028
765.735036	154.467133
768.002228	149.996503
770.268850	146.155944
772.534903	147.045455
774.798404	146.004895
777.063317	148.227273
779.327662	152.625175
781.587476	154.150350
783.848704	155.553846
786.109364	156.115385
788.367477	161.283217
790.623046	159.443357
792.882006	157.237063
795.134467	152.809790
797.392295	151.581119
799.645604	152.132168
801.896372	149.256643
804.148553	151.926573
806.398196	153.023077
808.649250	152.749650
810.895793	155.123077
813.143749	153.135664
815.389169	154.286014
817.636002	148.377622
819.882272	146.341259
822.124039	145.708392
824.369188	143.156643
826.607865	138.114685
828.849925	136.474825
831.087486	137.714685
833.326458	135.637063
835.562904	133.814685
837.800762	132.963636
840.036094	130.173427
842.268902	131.552448
844.503122	130.781119
846.734820	132.144755
848.965963	135.858741
851.196551	138.402098
853.426585	138.376224
855.656064	139.696503
857.881063	138.259441
860.109435	135.705594
862.333329	130.568531
864.558633	127.783916
866.779462	127.857343
869.003663	130.276923
871.223391	133.875524
873.444530	135.104895
875.665118	139.671329
877.883197	141.892308
880.102685	142.784615
882.317707	140.782517
884.532181	139.623776
886.746108	138.437762
888.959487	137.838462
891.172320	133.832867
893.384605	132.498601
895.594389	135.740559
897.803627	134.858741
900.012319	132.724476
902.218513	133.893007
904.426116	133.337063
906.631222	133.142657
908.835784	131.962937
911.037851	136.334965
913.241327	139.509091
915.442309	143.572727
917.642749	141.962937
919.844598	144.557343
922.040056	147.013986
924.238872	146.784615
926.433251	143.372028
928.630987	143.081119
930.824287	144.893007
933.018995	146.327273
935.211218	150.881119
937.402903	157.889510
939.594050	158.000699
941.782714	163.607692
943.970841	163.969231
946.156488	165.960140
948.345487	167.564336
950.530063	169.657343
952.714104	163.910490
954.901495	166.520280
957.080583	170.759441
959.263020	168.230070
961.444924	168.163636
963.624354	166.033566
965.801311	157.310490
967.979676	160.283217
970.159447	161.080420
972.332870	160.305594
974.509639	165.951748
976.682002	167.953846
978.855771	171.076224
981.025138	176.100699
983.197848	185.548252
985.368092	183.581119
987.537808	187.059441
989.706995	185.610490
991.871785	180.362238
994.039917	187.584615
996.203653	196.404196
998.368797	197.730070
1000.531481	198.100000
1002.693640	193.702797
1004.853341	197.951049
1007.012519	197.016084
1009.173103	194.890909
1011.331232	188.682517
1013.488837	184.546154
1015.645919	183.293007
1017.802478	187.192308
1019.954657	196.382517
1022.108243	206.041958
1024.261306	217.624476
1026.411922	218.537063
1028.563943	224.753147
1030.711591	228.988811
1032.862571	231.040559
1035.009181	228.252448
1037.155271	221.435664
1039.300843	214.554545
1041.447819	210.445455
1043.588508	219.400699
1045.732525	217.226573
1047.874103	209.230070
1050.015163	214.919580
1052.157628	213.074126
1054.293814	217.907692
1056.433326	224.943357
1058.568482	230.678322
1060.706963	226.676923
1062.841091	221.270629
1064.974705	217.458042
1067.109723	220.135664
1069.240392	232.666434
1071.372467	220.523077
1073.502111	211.579720
1075.631244	217.248252
1077.759866	215.227273
1079.887976	217.955245
1082.013660	225.562238
1084.138834	233.576923
1086.265411	238.139161
1088.387652	239.504895
1090.511297	235.075524
1092.630607	235.932168
1094.755146	229.060140
1096.873441	222.204196
1098.993139	217.914685
1101.110419	205.821678
1103.227193	199.054545
1105.343460	192.811189
1107.457312	196.647552
1109.572567	205.966434
1111.683500	203.113986
1113.797744	199.222378
1115.907669	202.681119
1118.018996	203.094406
1120.129820	205.638462
1122.236327	211.455944
1124.346143	205.630070
1126.451645	195.318182
1128.558551	195.562937
1130.659240	185.502098
1132.765142	183.458042
1134.866735	182.800000
1136.969731	180.354545
1139.072226	180.994406
1141.168515	179.283916
1143.270010	178.023776
1145.367203	184.161538
1147.463897	186.112587
1149.560094	184.344056
1151.655792	181.819580
1153.750993	185.600699
1155.843797	186.367832
1157.938003	185.456643
1160.026018	188.429371
1162.119231	184.464336
1164.206256	182.015385
1166.296581	173.732168
1168.382617	174.184615
1170.471951	174.327273
1172.555104	176.833566
1174.639660	178.665035
1176.725616	181.985315
1178.807291	184.304895
1180.890368	185.920979
1182.971059	187.781119
1185.051259	188.512587
1187.130967	186.946853
1189.210183	190.178322
1191.287018	184.704196
1193.361472	184.320979
1195.439218	177.156643
1197.512693	176.800699
1199.587570	169.065734
1201.658179	165.299301
1203.730189	160.500000
1205.799823	161.120979
1207.870858	162.019580
1209.941405	161.218881
1212.007691	160.031469
1214.075378	163.120280
1216.140693	164.711888
1218.207408	170.706993
1220.269867	168.655245
1222.335612	172.383916
1224.397102	171.444755
1226.459992	175.675524
1228.520515	175.234965
1230.580555	175.681818
1232.640111	176.483217
1234.697303	171.313287
1236.754012	164.211189
1238.808359	163.083217
1240.865986	161.922378
1242.921251	162.598601
1244.972275	163.913986
1247.024699	166.574825
1249.076644	169.662937
1251.126230	174.658042
1253.175337	172.784615
1255.223965	176.675524
1257.272115	180.146853
1259.319787	173.025175
1261.363228	168.197902
1263.409944	166.467133
1265.454308	161.024476
1267.498194	164.989510
1269.539730	165.506993
1271.578916	167.572727
1273.621374	170.969930
1275.659611	170.659441
1277.699245	175.346154
1279.738405	182.875524
1281.773347	190.632867
1283.809687	185.558042
1285.843682	183.674825
1287.879076	182.513287
1289.910256	185.022378
1291.942835	193.444056
1293.974941	193.709091
1296.004707	197.173427
1298.035871	203.324476
1300.062827	205.591608
1302.091181	215.865035
1304.115331	219.660140
1306.142746	225.979720
1308.165958	229.197203
1310.190568	234.653846
1312.212843	240.834965
1314.236516	254.293007
1316.257856	264.469930
1318.278729	278.646154
1320.299134	290.544056
1322.315345	300.798601
1324.332955	305.918182
1326.348236	317.204196
1328.366776	324.779720
1330.381126	338.196503
1332.393151	350.590909
1334.408434	354.682517
1336.419531	357.742657
1338.432024	362.661538
1340.440335	363.937063
1342.451902	367.336364
1344.457430	357.643357
1346.466212	351.421678
1348.470818	340.204196
1350.478677	334.641259
1352.486073	329.046853
1354.487439	323.364336
1356.490202	318.129371
1358.492505	306.900000
1360.494347	297.679021
1362.495731	290.811189
1364.494800	276.397902
1366.493411	263.801399
1368.491564	246.396503
1370.489259	239.490909
1372.482790	226.540559
1374.477718	218.471329
1376.472189	208.679021
1378.466203	202.202098
1380.457910	197.144755
1382.449161	193.511189
1384.438107	189.895105
1386.428448	194.133566
1388.418334	192.827972
1390.405917	187.996503
1392.393046	188.904196
1394.377873	189.456643
1396.364095	187.841958
1398.348016	185.276224
1400.331485	178.121678
1402.314502	181.766434
1404.295221	174.036364
1406.277334	171.481818
1408.257150	167.144056
1410.236516	171.835664
1412.211743	172.091608
1414.190208	168.051049
1416.166380	171.632867
1418.142102	171.009091
1420.117375	174.934965
1422.090357	176.735664
1424.062892	173.743357
1426.034978	175.520280
1428.006616	167.100000
1429.974127	167.268531
1431.946711	166.188112
1433.911489	166.831469
1435.881340	167.243357
1437.847066	168.758741
1439.814186	169.837063
1441.779022	172.622378
1443.739738	175.810490
1445.705522	175.641958
1447.665351	175.267832
1449.626573	174.178322
1451.589188	173.758042
1453.547688	179.876224
1455.505746	180.065734
1457.463361	178.642657
1459.420535	179.104895
1461.375433	184.415385
1463.331723	184.769231
1465.285739	188.842657
1467.239315	189.213986
1469.190618	187.277622
1471.143313	190.519580
1473.093737	192.495804
1475.043722	192.333566
1476.993267	196.155245
1478.940544	199.597203
1480.885554	203.401399
1482.831956	206.227972
1484.777920	212.462937
1486.723446	210.956643
1488.666708	212.097203
1490.609533	209.811888
1492.550095	209.058741
1494.492048	214.650350
1496.431740	212.951049
1498.370996	213.458042
1500.309818	213.575524
1502.246380	217.369930
1504.184332	222.237762
1506.120027	221.360140
1508.055288	224.616084
1509.988292	230.163636
1511.920864	239.730769
1513.853004	247.783217
1515.784712	260.553147
1517.714167	273.911888
1519.645011	279.595105
1521.575425	291.239860
1523.501766	290.789510
1525.429497	300.223776
1527.354978	308.074126
1529.280030	313.374825
1531.204653	327.024476
1533.128847	344.697203
1535.050794	362.553846
1536.974130	384.402098
1538.895221	423.320979
1540.814067	464.116783
1542.734303	513.088811
1544.652295	568.369930
1546.569861	633.407692
1548.485185	727.739860
1550.401899	840.818182
1552.314558	987.983217
1554.230421	1171.216783
1556.144045	1375.467832
1558.055430	1602.687413
1559.968204	1831.715385
1561.876929	2042.252448
1563.787044	2203.681119
1565.696735	2303.698601
1567.606002	2313.106993
1569.513036	2250.381119
1571.417837	2124.197902
1573.324027	1941.339161
1575.227985	1729.867832
1577.131523	1508.048951
1579.034639	1297.682517
1580.935527	1116.187413
1582.837803	956.273427
1584.737850	820.029371
1586.639286	716.229371
1588.536687	639.795804
1590.433671	568.944755
1592.330236	529.851049
1594.228188	495.574126
1596.120306	469.966434
1598.015618	452.216084
1599.910511	434.039860
1601.803183	427.651049
1603.695439	414.759441
1605.585475	404.369930
1607.475095	388.843357
1609.364300	374.737063
1611.253089	360.911189
1613.139662	339.640559
1615.027621	324.714685
1616.911565	305.309091
1618.796895	287.613287
1620.681812	270.136364
1622.564515	247.873427
1624.448604	236.368531
1626.328683	226.289510
1628.210148	223.240559
1630.089403	216.873427
1631.970044	203.839860
1633.844881	197.100000
1635.724700	192.627273
1637.600513	187.280420
1639.475917	189.243357
1641.352706	187.769231
1643.223698	191.583916
1645.097872	193.672028
1646.968048	198.556643
1648.841404	193.944755
1650.712557	187.769231
1652.581508	180.272727
1654.451845	177.825175
1656.318188	178.840559
1658.185918	179.277622
1660.051448	173.946154
1661.918363	172.143357
1663.781290	167.602098
1665.645602	171.495105
1667.507719	173.024476
1669.369430	166.712587
1671.232526	151.899301
1673.093428	146.972727
1674.952136	142.513986
1676.810441	141.401399
1678.670131	141.721678
1680.524054	139.192308
1682.381149	140.995105
1684.237842	138.206993
1686.090559	138.053846
1687.946447	142.425175
1689.798361	150.767832
1691.649873	151.427273
1693.500986	149.078322
1695.351697	152.438462
1697.202008	143.833566
1699.050135	143.308392
1700.899645	154.425874
1702.743407	151.581119
1704.592119	161.220979
1706.435084	160.418881
1708.281215	171.250350
1710.123385	167.861538
1711.968719	175.197203
1713.808313	168.560839
1715.649291	161.820979
1717.491652	161.050350
1719.330057	155.583916
1721.169845	161.581818
1723.007458	154.083217
1724.844675	136.328671
1726.679719	135.225175
1728.516146	129.396503
1730.350401	129.155245
1732.184262	121.986014
1734.017728	125.615385
1735.847248	125.171329
1737.679927	129.409091
1739.508662	140.004895
1741.340555	147.362238
1743.168505	150.283217
1744.996063	146.929371
1746.823230	144.776224
1748.650004	145.416084
1750.476388	144.924476
1752.298835	143.165734
1754.124436	141.120280
1755.946103	148.600000
1757.769152	151.770629
1759.590040	148.161538
1761.410538	153.867133
1763.232418	156.700000
1765.048598	154.106993
1766.867930	149.415385
1768.683335	143.236364
1770.501891	137.106294
1772.316521	137.090909
1774.130764	130.301399
1775.944621	128.950350
1777.758091	134.466434
1779.569407	126.392308
1781.382105	118.781119
1783.194416	126.441958
1785.002810	129.219580
1786.812585	132.644755
1788.618444	139.647552
1790.427450	141.578322
1792.232542	146.533566
1794.039014	146.308392
1795.845103	146.812587
1797.647282	149.143357
1799.452604	141.361538
1801.254018	133.892308
1803.056812	136.021678
1804.855701	132.972028
1806.655969	135.191608
1808.455857	139.624476
1810.253602	139.189510
1812.050967	137.311888
1813.847951	134.221678
1815.644555	122.637063
1817.439020	132.727972
1819.234865	127.046154
1821.025054	125.381818
1822.820140	138.272028
1824.609573	145.490210
1826.402144	145.732168
1828.192579	152.406993
1829.980879	153.779720
1831.772315	152.895804
1833.558105	157.796503
1835.345275	153.298601
1837.130313	148.994406
1838.918485	157.281119
1840.702771	147.837762
1842.484928	147.246154
1844.268463	149.375524
1846.049871	144.131469
1847.832656	140.194406
1849.611562	134.695804
1851.391846	132.209790
1853.170005	129.696503
1854.949541	131.798601
1856.726953	140.320979
1858.502241	143.439860
1860.278908	148.688811
1862.053452	148.846154
1863.829373	149.572727
1865.599675	153.095804
1867.373104	149.297203
1869.144413	140.465734
1870.915351	129.419580
1872.687666	128.672028
1874.454369	128.772028
1876.224196	127.785315
1877.990160	132.628671
1879.759248	130.125175
1881.524474	133.219580
1883.289332	133.888811
1885.055566	137.469930
1886.817942	139.415385
1888.579951	134.218182
1890.341593	130.116084
1892.102867	131.976224
1893.863775	132.186713
1895.624315	129.975524
1897.382746	125.326573
1899.140812	123.067832
1900.896770	122.224476
1902.654104	122.233566
1904.411072	120.348252
1906.165935	120.810490
1907.918692	119.527972
1909.671086	122.834266
1911.424856	128.353846
1913.176522	130.683916
1914.926085	120.983916
1916.677025	121.227972
1918.427601	123.962937
1920.174339	123.513986
1921.922452	127.111888
1923.668466	133.666434
1925.415856	138.760839
1927.161147	142.593706
1928.904341	138.128671
1930.648911	139.144056
1932.391384	144.495804
1934.133497	145.790909
1935.875251	143.474825
1937.616644	144.444755
1939.355944	142.623776
1941.094885	144.385315
1942.833467	145.897203
1944.569957	145.205594
1946.306090	139.613287
1948.043597	138.456643
1949.777283	130.192308
1951.512343	126.595105
1953.245314	129.184615
1954.977929	130.358042
1956.710187	126.733566
1958.442089	127.903497
1960.171905	132.074126
1961.899637	133.040559
1963.628742	127.333566
1965.357493	124.000699
1967.084160	124.151748
1968.810473	129.844755
1970.538159	126.300699
1972.260309	124.960140
1973.985561	123.364336
1975.707005	127.393706
1977.431549	125.231469
1979.154014	135.763636
1980.872675	136.242657
1982.594435	130.941259
1984.312393	126.046154
1986.031725	124.675524
1987.747256	122.753147
1989.467609	125.118881
1991.184162	124.304196
1992.896920	127.501399
1994.612773	124.188811
1996.326554	134.043357
1998.039984	134.833566
1999.751344	137.873427
2001.464077	135.544755
2003.173018	138.195105
2004.885053	135.887413
2006.591578	137.112587
2008.301196	134.709790
2010.008746	136.360839
2011.715949	135.320979
2013.421086	134.969930
2015.125876	133.672727
2016.832038	140.058042
2018.534418	133.640559
2020.238170	131.645455
2021.939859	131.716084
2023.641202	133.842657
2025.342200	135.651049
2027.041138	136.488112
2028.741447	132.662238
2030.437980	129.795804
2032.135885	123.040559
2033.831732	122.993706
2035.530664	123.048252
2037.224110	127.318182
2038.918927	129.228671
2040.613401	133.992308
2042.304107	135.458741
2043.997897	139.206993
2045.687920	141.440559
2047.379314	138.873427
2049.068655	132.696503
2050.759366	127.261538
2052.446315	118.751049
2054.132923	122.325874
2055.820902	117.238462
2057.505121	117.308392
2059.190710	118.164336
2060.875960	118.417483
2062.559162	118.826573
2064.243734	120.504895
2065.922842	121.201399
2067.606736	121.985315
2069.285170	121.520280
2070.966681	126.025175
2072.644440	129.628671
2074.321863	138.248252
2076.000655	131.751049
2077.677404	133.103497
2079.352112	130.186713
2081.028189	129.610490
2082.702226	126.751748
2084.375927	123.153147
2086.049293	120.865734
2087.720621	123.381818
2089.391614	120.630070
2091.062273	122.608392
2092.732598	122.438462
2094.402588	122.189510
2096.070543	117.483217
2097.738165	122.279720
2099.403753	124.158741
2101.070709	126.961538
2102.735632	130.536364
2104.400222	130.484615
2106.062781	129.763636
2107.726709	127.731469
2109.388605	119.795804
2111.050170	119.234266
2112.711405	116.591608
2114.370610	113.695804
2116.029486	113.662937
2117.688031	120.932168
2119.346247	124.430070
2121.000739	134.288112
2122.658297	143.231469
2124.315524	143.119580
2125.969031	140.790210
2127.623905	138.711888
2129.275060	137.726573
2130.929278	138.786014
2132.579778	137.835664
2134.231646	128.744755
2135.878105	125.481119
2137.529318	129.313287
2139.176818	127.993706
2140.825686	131.359441
2142.472534	128.527972
2144.119056	127.340559
2145.765254	129.751748
2147.407742	130.665035
2149.053289	132.920280
2150.695129	134.003497
2152.340026	134.183916
2153.981218	127.997902
2155.622086	130.797203
2157.262631	135.076923
2158.901163	130.876923
2160.541061	127.759441
2162.177259	120.702098
2163.814823	118.722378
2165.452065	122.570629
2167.087297	121.941259
2168.722207	122.070629
2170.356796	123.110490
2171.991064	131.840559
2173.621638	137.091608
2175.255263	138.448951
2176.885197	142.837762
2178.516496	143.929371
2180.145791	143.318881
2181.774765	140.097203
2183.403421	135.005594
2185.031757	131.288811
2186.658090	123.156643
2188.284105	113.820979
2189.908119	110.502797
2191.533498	114.825874
2193.156876	117.403497
2194.781619	112.670629
2196.402680	117.195804
2198.023426	121.618182
2199.645535	129.890210
2201.265647	134.598601
2202.883763	134.981818
2204.501563	131.310490
2206.119047	131.752448
2207.736216	129.475524
2209.353070	130.433566
2210.969609	131.313287
2212.584154	136.125874
2214.196707	132.675524
2215.810625	133.062937
2217.422550	133.627273
2219.035840	133.411888
2220.647138	125.776923
2222.256448	123.021678
2223.867120	117.429371
2225.475804	119.013986
2227.084176	112.711189
2228.690560	113.206294
2230.298308	116.011189
2231.904069	124.049650
2233.509519	126.066434
2235.112985	125.127273
2236.717813	124.359441
2238.320657	126.342657
2239.921518	119.305594
2241.523742	127.876923
2243.123983	126.534266
2244.725588	126.464336
2246.323539	123.198601
2247.922853	127.714685
2249.520187	132.325874
2251.117213	137.906294
2252.715600	137.571329
2254.310339	131.129371
2255.903102	128.079021
2257.497226	130.300699
2259.092712	124.087413
2260.684554	132.133566
2262.276089	127.234965
2263.868985	123.077622
2265.456572	119.464336
2267.048856	116.423776
2268.635832	115.569231
2270.225837	118.616783
2271.810537	120.253846
2273.399931	116.941958
2274.984022	121.964336
2276.569475	123.138462
2278.152959	129.686713
2279.739468	134.392308
2281.322344	137.062937
2282.904916	134.066084
2284.487186	132.660140
2286.065825	129.000350
2287.647488	123.790909
2289.225524	121.356294
2290.806582	119.519580
2292.384013	119.522727
2293.959481	121.032168
2295.537971	121.194755
2297.112836	129.493706
2298.687401	131.368182
2300.261666	139.313986
2301.835630	140.117832
2303.409294	141.597902
2304.982657	136.739860
2306.552402	130.214685
2308.121848	123.835664
2309.694313	119.534965
2311.261503	123.637063
2312.831710	120.680420
2314.398303	124.376224
2315.966256	126.812587
2317.532254	132.967832
2319.097954	137.232867
2320.663356	138.776224
2322.226805	150.000699
2323.791613	160.150350
2325.352812	165.824476
2326.917026	167.948252
2328.475979	165.828671
2330.037945	161.279021
2331.597961	152.866434
2333.157681	146.641958
2334.715452	138.231469
2336.272929	137.079720
2337.830110	135.280420
2339.385345	125.741958
2340.940285	131.614685
2342.494932	140.306294
2344.049285	135.844056
2345.603344	136.186014
2347.157110	130.053147
2348.708931	127.838462
2350.258809	124.831469
2351.811695	119.750350
2353.359339	119.319580
2354.909990	125.289510
2356.457051	130.414685
2358.005469	124.669930
2359.553595	129.568531
2361.098134	129.276224
2362.644030	130.486713
2364.187987	135.474126
2365.733302	140.189510
2367.275032	143.909790
2368.818120	135.005594
2370.359271	130.346154
2371.900133	135.797902
2373.440706	138.324476
2374.980990	138.775524
2376.520985	140.431469
2378.057401	135.910490
2379.596819	130.428671
2381.132660	140.906294
2382.669857	145.107692
2384.203480	156.223077
2385.740102	152.120979
2387.274793	154.387413
2388.807555	161.999301
2390.340031	173.608392
2391.870578	180.386713
2393.404123	174.526573
2394.932457	171.366434
2396.462147	163.065734
2397.991552	160.487413
2399.520672	162.977622
2401.049506	167.932168
2402.573136	167.089510
2404.101401	159.125874
2405.624463	170.075524
2407.152160	169.734266
2408.673016	171.100699
2410.198506	176.044755
2411.720436	164.092308
2413.243720	165.667133
2414.765084	158.971329
2416.284528	166.809790
2417.805327	170.819580
2419.324207	177.734965
2420.842805	178.819580
2422.359486	179.786014
2423.877522	180.715385
2425.395276	178.000699
2426.909478	178.400000
2428.423400	177.275524
2429.937043	174.610490
2431.452039	172.043357
2432.963487	159.930070
2434.476290	173.884615
2435.987180	171.992308
2437.497790	173.804196
2439.006489	177.168531
2440.518175	172.634965
2442.026317	178.490909
2443.534180	185.777622
2445.041766	186.979021
2446.545812	186.969231
2448.052842	188.221678
2449.557964	181.181818
2451.062809	181.676923
2452.565747	183.839161
2454.068408	174.900699
2455.570793	168.899301
2457.071273	164.055944
2458.573106	158.392308
2460.073035	164.081119
2461.572688	163.161538
2463.072066	163.763636
2464.569541	164.914685
2466.065114	163.320280
2467.563667	153.040559
2469.058691	154.874825
2470.555069	148.490909
2472.047920	148.723077
2473.542123	147.228671
2475.036053	145.069930
2476.526460	150.838462
2478.019844	155.579021
2479.511329	152.981818
2481.000918	158.627273
2482.490236	149.969231
2483.977657	142.353846
2485.468054	128.571329
2486.954932	126.586014
2488.443162	123.640559
2489.927876	126.827972
2491.412319	132.609091
2492.898114	143.012587
2494.382016	152.154545
2495.867270	161.428671
2497.347390	165.696503
2498.830482	173.041259
2500.311684	162.332867
2501.792617	159.858042
2503.271661	145.903497
2504.750437	137.627972
2506.228944	128.406993
2507.707182	124.942657
2509.185152	123.097203
2510.659618	119.681818
2512.137052	119.356643
2513.610983	136.067133
2515.086265	145.390210
2516.561279	150.511888
2518.032792	152.012587
2519.505656	156.420979
2520.976637	156.295105
2522.448967	162.568531
2523.916185	157.589510
2525.386369	149.748252
2526.854671	143.937762
2528.322709	131.556643
2529.790482	133.767832
2531.257990	143.451748
2532.725233	147.669231
2534.188985	147.315385
2535.654086	143.151748
2537.117310	149.121678
2538.581883	160.985315
2540.042967	165.383217
2541.505402	161.997902
2542.967573	158.209091
2544.426257	160.815385
2545.889514	152.937762
2547.347674	155.736364
2548.807183	159.832168
2550.261599	162.222378
2551.720585	157.346853
2553.177698	152.864336
2554.632941	159.597902
2556.087923	161.206294
2557.541035	160.837762
2558.995496	161.324476
2560.448088	162.393706
2561.900420	168.881119
2563.350884	172.063636
2564.804304	176.209091
2566.252642	180.948951
2567.703936	188.564336
2569.153363	187.639860
2570.599319	182.650350
2572.048229	179.467832
2573.493668	174.483217
2574.940456	172.517483
2576.385380	164.156643
2577.830047	162.619580
2579.276061	170.839161
2580.718608	174.671329
2582.162503	179.702797
2583.602933	181.968531
2585.044711	195.786014
2586.484629	193.852448
2587.925894	194.181119
2589.363697	193.706294
2590.804450	197.210490
2592.240140	194.055944
2593.678780	195.534266
2595.115563	197.658042
2596.550489	206.703497
2597.988364	209.701399
2599.421181	211.930070
2600.855345	212.862937
2602.287654	219.561538
2603.721310	217.011189
2605.153113	216.011189
2606.584663	206.542657
2608.015959	208.891608
2609.445404	213.672028
2610.874596	217.002797
2612.301937	220.034965
2613.730625	230.255245
2615.159060	242.255245
2616.584049	252.465734
2618.010383	262.608392
2619.434869	273.588811
2620.860701	277.458741
2622.283089	279.991608
2623.706823	283.495804
2625.128711	295.335664
2626.550348	303.724476
2627.970140	302.019580
2629.391278	312.158741
2630.812166	316.645455
2632.229616	332.979021
2633.650005	339.853147
2635.066957	354.794406
2636.483661	363.577622
2637.900116	372.055245
2639.316323	387.648252
2640.732281	393.371329
2642.146399	401.041958
2643.560270	403.162937
2644.972301	402.664336
2646.385677	410.112587
2647.795623	414.763636
2649.208505	428.518182
2650.617958	436.879021
2652.027165	457.190210
2653.434536	465.993007
2654.844841	482.827273
2656.253310	494.648951
2657.659944	505.632168
2659.066333	513.961538
2660.470888	522.333566
2661.876787	533.792308
2663.280853	536.597203
2664.684675	551.266434
2666.088252	554.126573
2667.489997	565.123077
2668.893086	577.953147
2670.292758	582.481818
2671.693773	592.305594
2673.091371	602.502797
2674.491900	616.330070
2675.889014	620.652448
2677.287471	631.506993
2678.684100	640.140559
2680.080488	635.260839
2681.476633	640.820979
2682.870952	634.735664
2684.266614	640.960140
2685.658866	635.858741
2687.052462	631.868531
2688.444233	623.269930
2689.837346	613.453147
2691.228636	603.912587
2692.618103	598.093007
2694.007331	592.048252
2695.396318	584.531469
2696.786648	577.482517
2698.171993	572.286713
2699.560263	569.776224
2700.946712	563.713287
2702.332922	546.309790
2703.718893	535.732867
2705.101466	523.378322
2706.485380	509.346853
2707.869057	501.159441
2709.252496	489.954545
2710.632539	472.721678
2712.013924	458.804895
2713.393493	446.978322
2714.774404	431.909091
2716.153500	417.913287
2717.530781	405.188811
2718.909404	388.323776
2720.286214	383.248951
2721.662788	377.217483
2723.039126	364.473427
2724.413652	350.691608
2725.789519	331.746154
2727.161999	317.350350
2728.537396	305.526573
2729.907831	294.359441
2731.279608	288.605594
2732.651151	281.720979
2734.020885	276.218182
2735.391959	262.997902
2736.761226	259.147552
2738.130259	254.258741
2739.497485	243.586014
2740.864479	235.809790
2742.231240	221.884615
2743.597768	217.783217
2744.962492	209.369231
2746.326983	213.060839
2747.691242	209.484615
2749.055270	197.947552
2750.419065	184.967832
2751.779487	179.134965
2753.142820	172.848951
2754.501210	170.586713
2755.862510	166.697902
2757.220439	165.102098
2758.581278	163.381818
2759.940316	172.123776
2761.295986	174.141958
2762.654565	187.823776
2764.009776	180.727273
2765.364758	174.658042
2766.717943	178.293706
2768.074035	169.370629
2769.426763	155.209091
2770.779262	149.176923
2772.131533	143.098601
2773.485143	138.029371
2774.835391	142.942657
2776.183846	153.040559
2777.535205	155.072028
2778.883205	157.093007
2780.232544	153.252448
2781.580090	153.928671
2782.927409	160.553147
2784.274502	156.951748
2785.619804	161.962937
2786.964880	157.387413
2788.309730	155.690210
2789.654354	157.495804
2790.995625	154.383916
2792.338235	153.384615
2793.680620	150.483217
2795.022779	142.430769
2796.361589	136.731469
2797.703299	135.514685
2799.041660	135.152448
2800.381359	134.995105
2801.719272	134.397902
2803.055401	125.827273
2804.391307	130.283217
2805.728549	123.610490
2807.064008	112.477622
2808.399244	113.185315
2809.732698	123.593706
2811.067488	116.341958
2812.398937	114.406993
2813.733282	118.906294
2815.062729	122.341958
2816.393513	124.741958
2817.724075	129.293706
2819.052858	130.948252
2820.382978	135.947552
2821.711318	131.449650
2823.039438	133.586014
2824.365781	140.374126
2825.693459	146.165035
2827.017805	146.947552
2828.343486	146.953846
2829.667393	144.695804
2830.991079	145.027273
2832.316101	139.435664
2833.637794	135.486713
2834.959267	135.124476
2836.280522	135.876923
2837.601558	136.037762
2838.920822	131.699301
2840.241421	131.050350
2841.560248	140.002098
2842.878857	146.122378
2844.195696	146.734266
2845.512317	139.239860
2846.828720	141.169231
2848.143355	141.453846
2849.459324	145.067133
2850.771973	142.488811
2852.085958	140.176224
2853.399726	132.441958
2854.713277	122.712587
2856.025061	125.294406
2857.335080	135.642657
2858.646433	131.301399
2859.954470	133.496503
2861.263843	134.809091
2862.573000	135.544755
2863.881942	140.132168
2865.189121	139.100000
2866.494536	136.251748
2867.801286	133.352448
2869.106273	125.827972
2870.411047	120.519580
2871.714059	118.985315
2873.019953	114.949650
2874.320992	105.037762
2875.623364	108.125175
2876.923977	108.972727
2878.225924	104.723776
2879.527658	114.104196
2880.826088	119.985315
2882.125851	121.303497
2883.423857	120.503497
2884.721651	117.916783
2886.017688	110.045455
2887.315059	109.088112
2888.610674	103.986713
2889.906079	106.854545
2891.201272	113.190210
2892.493167	116.192308
2893.787939	120.100699
2895.079415	130.776923
2896.372223	131.153147
2897.664821	138.037063
2898.954124	147.246853
2900.244760	143.479021
2901.533646	141.071329
2902.823863	142.376923
2904.110789	129.965035
2905.399047	134.158741
2906.685556	131.106993
2907.971856	128.255944
2909.257948	127.288112
2910.542292	128.168531
2911.829508	119.592308
2913.111897	123.005594
2914.395618	118.100000
2915.677592	115.026573
2916.959360	120.082517
2918.239382	114.395105
2919.522274	112.506294
2920.803421	118.797203
2922.081286	115.331469
2923.362020	121.894406
2924.639473	127.299301
2925.916721	131.220280
2927.192226	131.219580
2928.470599	125.309091
2929.744157	120.494406
2931.020583	121.783217
2932.295268	123.176923
2933.568213	123.182517
2934.842488	125.363636
2936.115024	126.351049
2937.387356	122.621678
2938.656415	126.145455
2939.928339	126.420280
2941.198525	124.398601
2942.468507	115.278322
2943.738286	101.989510
2945.006328	93.055944
2946.272635	84.606993
2947.538739	85.960839
2948.806174	84.374825
2950.071873	85.597902
2951.337370	98.055245
2952.602665	104.269930
2953.864696	115.421678
2955.128056	119.821678
2956.391215	128.288112
2957.652641	122.702098
2958.915397	122.837762
2960.176422	113.969930
2961.435716	105.022378
2962.694809	99.465734
2963.953702	94.863636
2965.212395	89.033566
2966.470888	89.309091
2967.727652	92.332168
2968.984217	100.176923
2970.239053	104.827972
2971.495219	116.602797
2972.748129	116.303497
2974.002369	113.904895
2975.256410	108.838462
2976.508725	106.020979
2977.760842	104.007692
2979.011234	108.848252
2980.264481	107.103497
2981.512951	107.055944
2982.764275	115.713287
2984.012351	114.316084
2985.260229	112.769930
2986.507910	115.371329
2987.755395	112.181119
2989.001158	100.465734
2990.246724	96.902098
2991.493619	94.784615
2992.737268	92.723077
2993.982246	98.904895
2995.223981	96.811189
2996.468567	96.644056
2997.711434	97.005594
2998.951059	86.080420
3000.193536	88.853846
3001.432772	92.432168
3002.673336	93.860839
3003.912183	100.616783
3005.150836	104.960140
3006.387773	105.276923
3007.626037	105.492308
3008.862587	107.597902
3010.098943	106.486014
3011.335105	107.118881
3012.569553	103.621678
3013.803808	95.539161
3015.037870	104.372727
3016.270220	104.660839
3017.500858	104.106993
3018.734342	99.958741
3019.966115	96.918881
3021.196176	95.709091
3022.426046	100.548252
3023.654206	97.965734
3024.883693	97.039161
3026.111470	96.816084
3027.339056	94.141259
3028.567968	96.987413
3029.792138	106.907692
3031.019151	105.572727
3032.242941	102.353147
3033.468056	98.295804
3034.691465	103.095105
3035.914685	106.405594
3037.136199	111.546154
3038.360554	102.797203
3039.580174	97.316084
3040.801120	93.890909
3042.021876	88.385315
3043.240929	95.696503
3044.461308	94.179021
3045.678470	97.612587
3046.896957	97.616084
3048.113743	96.487413
3049.330340	96.971329
3050.546750	103.460839
3051.759946	106.974825
3052.975980	101.955944
3054.188802	97.101399
3055.404461	95.033566
3056.615397	90.581119
3057.827659	85.286014
3059.039733	79.301399
3060.251621	86.334965
3061.461811	84.807692
3062.671816	85.743357
3063.881634	89.496503
3065.089756	98.583217
3066.297692	102.937063
3067.503934	104.202098
3068.711500	105.375524
3069.917371	103.872727
3071.123057	99.429371
3072.328559	90.827273
3073.532367	91.360140
3074.737499	95.039860
3075.940938	91.051049
3077.142685	89.097902
3078.344249	87.353147
3079.545629	89.626573
3080.746825	85.248951
3081.946331	84.800000
3083.145653	82.998601
3084.346299	83.086713
3085.545256	82.823077
3086.741017	86.741259
3087.939608	90.993007
3089.135005	88.379021
3090.331726	87.997902
3091.525254	87.451049
3092.721610	87.333566
3093.916279	87.720979
3095.107758	82.625874
3096.303568	82.709091
3097.494685	78.941958
3098.687125	85.313287
3099.876376	83.144755
3101.068454	92.207692
3102.258848	91.330070
3103.446055	97.839860
3104.634586	105.162238
3105.824439	107.821678
3107.011107	110.015385
3108.197596	108.954545
3109.383905	104.612587
3110.571537	99.668531
3111.755986	92.849650
3112.938755	90.615385
3114.124348	89.641958
3115.308260	93.894406
3116.490494	92.049650
3117.672550	92.448252
3118.854427	93.059441
3120.036126	87.732867
3121.216148	85.219580
3122.394492	85.725175
3123.575658	87.246154
3124.753648	87.320979
3125.931461	86.395105
3127.109097	91.865734
3128.285058	99.672727
3129.460843	101.728671
3130.637948	104.891608
3131.813380	99.611888
3132.987138	99.544755
3134.159223	89.845455
3135.332629	88.065035
3136.505860	90.166434
3137.677418	87.313287
3138.850298	78.433566
3140.020010	78.620979
3141.191043	81.913287
3142.360405	80.300000
3143.528098	80.876224
3144.698606	89.387413
3145.864455	90.751748
3147.034614	89.432867
3148.200115	95.281119
3149.365443	99.447552
3150.530597	98.406294
3151.695578	95.623776
3152.861878	92.496503
3154.023525	96.112587
3155.186493	92.725175
3156.349287	84.119580
3157.511909	80.162937
3158.672866	79.736364
3159.833650	74.646154
3160.994263	73.338462
3162.153211	82.855245
3163.311987	83.053846
3164.470592	87.322378
3165.629025	92.165035
3166.787286	98.485315
3167.943885	105.509790
3169.098823	105.480420
3170.255080	106.102098
3171.409677	103.176224
3172.564102	100.029371
3173.716868	89.745455
3174.869464	95.483217
3176.021890	96.874126
3177.174145	92.914685
3178.326231	93.144056
3179.475170	94.486713
3180.626916	97.006294
3181.777005	99.986713
3182.925436	99.433566
3184.073699	101.812587
3185.221793	104.132168
3186.369717	104.722378
3187.515987	98.882517
3188.662088	105.190909
3189.806535	102.474825
3190.950813	101.809091
3192.094924	104.600699
3193.240353	106.911888
3194.382643	106.669231
3195.524765	106.997203
3196.666721	106.754545
3197.808509	102.031469
3198.950130	104.288112
3200.088615	99.491608
3201.228419	97.767832
3202.369539	102.141259
3203.507525	101.656643
3204.643862	104.271329
3205.780033	107.483217
3206.917522	115.260839
3208.053362	122.151049
3209.190518	119.642657
3210.323063	115.008392
3211.459888	105.161538
3212.592102	105.590210
3213.725634	97.868531
3214.859000	97.006993
3215.989239	94.663636
3217.122277	88.843357
3218.252187	88.190909
3219.383415	93.846154
3220.511517	99.207692
3221.642417	103.620280
3222.771672	107.697902
3223.899283	106.651748
3225.023773	105.683916
3226.152538	106.067832
3227.278181	106.276923
3228.403661	109.654545
3229.527500	105.560839
3230.654134	103.330769
3231.776169	105.253147
3232.899521	106.560839
3234.022711	102.572028
3235.145739	103.385315
3236.267127	99.304196
3237.388354	93.020280
3238.507942	93.717483
3239.627369	88.792308
3240.745159	89.572727
3241.865740	89.808392
3242.983208	82.912587
3244.100515	80.334965
3245.217661	79.379720
3246.333172	77.591608
3247.449998	75.696503
3248.563713	75.453846
3249.680219	74.045455
3250.795089	81.105594
3251.906851	83.777622
3253.018454	85.489510
3254.131372	89.144755
3255.244130	90.582517
3256.353782	84.408392
3257.464749	80.384615
3258.575557	82.922378
3259.684733	82.719580
3260.792278	84.976923
3261.901138	85.874825
3263.009839	82.781119
3264.115438	80.714685
3265.222352	81.650350
3266.327636	80.597203
3267.434234	81.860140
3268.537732	81.688112
3269.642544	81.223077
3270.747199	85.769930
3271.848756	93.480420
3272.950156	98.545455
3274.052870	104.125175
3275.155427	109.694406
3276.254889	109.195105
3277.357133	114.281818
3278.456283	118.275524
3279.553807	111.600699
3280.651176	113.174825
3281.751328	108.659441
3282.848386	109.033566
3283.945290	103.782517
3285.042038	98.322378
3286.134227	92.450350
3287.230666	83.525874
3288.325482	83.021678
3289.420143	77.220280
3290.513183	78.347552
3291.606069	77.488112
3292.697334	73.772028
3293.789912	71.711189
3294.880870	72.456643
3295.970208	79.088811
3297.059393	77.800699
3298.149890	81.851748
3299.237303	83.177622
3300.324564	87.539161
3301.413137	89.330070
3302.501557	87.311189
3303.585430	91.854545
3304.673545	93.232867
3305.758579	85.837063
3306.841997	76.813287
3307.926727	78.783916
3309.009841	69.800000
3310.094267	62.630769
3311.175615	60.951748
3312.258275	63.826573
3313.339321	66.539161
3314.420216	63.046853
3315.499498	65.456643
3316.578629	73.733566
3317.659072	75.009790
3318.736440	77.192308
3319.815120	82.055245
3320.892188	89.469930
3321.969106	83.130769
3323.044414	86.058042
3324.119572	90.426573
3325.196041	87.079720
3326.269439	81.279021
3327.342689	80.529371
3328.417250	81.294406
3329.490201	80.057343
3330.561545	77.811888
3331.634199	76.559441
3332.703786	73.529371
3333.774684	72.522378
3334.843975	72.376224
3335.914577	74.787413
3336.983572	77.939161
3338.050961	68.179021
3339.116745	68.597902
3340.186755	73.967832
3341.253702	76.480420
3342.317587	78.251748
3343.384240	79.697902
3344.449289	81.278322
3345.512734	82.572028
3346.576032	83.806993
3347.639185	84.216783
3348.702191	81.223077
3349.765050	78.935664
3350.826308	71.225874
3351.884509	77.129371
3352.946931	77.477622
3354.006296	81.332867
3355.065517	83.839860
3356.126046	89.477622
3357.182066	95.064336
3358.240851	97.783217
3359.295128	95.764336
3360.352169	90.205594
3361.407611	80.409790
3362.464362	70.905594
3363.519516	63.111189
3364.573072	62.719580
3365.625031	57.592308
3366.679752	60.966434
3367.731425	66.418881
3368.782953	74.586014
3369.835791	77.892308
3370.885581	78.426573
3371.936680	82.834266
3372.984732	85.580420
3374.035545	84.722378
3375.083312	84.295105
3376.130937	79.788112
3377.178420	81.283217
3378.224309	77.353846
3379.271508	76.869930
3380.315663	81.116084
3381.362577	78.172727
3382.407899	73.570629
3383.450181	71.366434
3384.492321	77.321678
3385.535770	81.629371
3386.579077	84.421678
3387.620794	85.344755
3388.662370	85.138462
3389.703806	83.982517
3390.743653	77.745455
3391.781911	75.519580
3392.821477	77.503497
3393.860903	69.961538
3394.898741	66.589510
3395.934992	64.583217
3396.971103	66.901399
3398.008522	70.337762
3399.042908	75.895804
3400.078602	76.274126
3401.114156	80.258741
3402.146678	82.649650
3403.181954	85.512587
3404.214199	85.067832
3405.246306	90.737063
3406.276829	87.577622
3407.308660	81.572727
3408.340352	81.146853
3409.369016	84.416084
3410.397542	85.258042
3411.427376	81.114685
3412.457072	73.471329
3413.483741	69.206294
3414.511718	66.842657
3415.536670	63.902797
3416.564372	68.341958
3417.589051	70.099301
3418.615036	68.097902
3419.639442	63.711888
3420.663710	70.234965
3421.686400	74.076224
3422.708955	72.018881
3423.732814	68.367133
3424.753654	65.794406
3425.774359	66.179520
3426.796369	67.042058
3427.815361	68.180619
3428.834218	69.393806
3429.854381	70.480220
3430.871526	71.238462
