-118.385087	5.721703
-115.715486	12.951648
-113.048821	16.644206
-110.382909	17.564236
-107.719928	16.476598
-105.055517	14.146154
-102.394037	11.337762
-99.731128	11.140559
-97.073326	11.393007
-94.414093	9.652448
-91.755609	13.335664
-89.100050	15.112587
-86.443062	19.198601
-83.791171	18.620280
-81.137851	24.953147
-78.487451	23.292308
-75.835621	23.011189
-73.188882	16.416084
-70.540713	16.983916
-67.893288	17.793706
-65.248776	15.434965
-62.602835	15.174126
-59.961977	17.879021
-57.319688	16.974126
-54.680309	19.362238
-52.039501	18.634266
-49.399432	24.040559
-46.764437	20.546853
-44.128012	23.028671
-41.494491	24.052448
-38.859540	29.401399
-36.229656	35.700000
-33.596178	39.733566
-30.967763	46.046154
-28.340082	49.389510
-25.710973	28.222378
-23.086920	-93.763636
-20.459278	-573.982517
-17.836689	-1712.725175
-15.214831	-1484.844056
-12.593704	1622.719580
-9.973308	7280.535664
-7.355799	12213.364336
-4.736862	15661.077622
-2.120811	17596.844755
0.494512	18015.381818
3.109108	16930.070629
5.720822	14352.983916
8.333963	10366.930769
10.942071	5280.813287
13.553761	204.200000
16.160420	-2283.625175
18.768507	-1891.381818
21.375870	-294.337762
23.978208	40.293706
26.584124	41.490210
29.185019	37.904895
31.787341	29.613986
34.384645	29.123077
36.985525	23.348951
39.581391	21.266434
42.178684	18.566434
44.775258	24.311888
47.366823	20.530070
49.959816	21.120280
52.549948	21.127972
55.141508	23.931469
57.730208	23.794406
60.320336	27.622378
62.905464	24.300699
65.492020	25.446853
68.077861	22.403497
70.660849	20.965734
73.245264	18.159441
75.822549	18.983916
78.403401	15.145455
80.981404	14.671329
83.558697	9.762238
86.137416	9.225874
88.711154	7.642657
91.286318	8.681818
93.858639	5.344056
96.430253	7.943357
98.999026	7.701399
101.569226	7.992308
104.136587	6.446154
106.705375	12.103497
109.271325	17.774825
111.834441	19.671329
114.401114	22.002098
116.958564	30.383916
119.521700	40.596503
122.079877	56.732168
124.641607	81.616783
127.198382	134.660839
129.756582	208.482517
132.309830	306.878322
134.862379	421.367832
137.418480	553.622378
139.969632	684.018182
142.520086	809.670629
145.069844	924.110490
147.616782	1008.108392
150.163024	1060.711888
152.710693	1087.843357
155.257665	1100.888811
157.799701	1106.399301
160.341044	1099.625175
162.881695	1094.266434
165.423770	1084.247552
167.963035	1074.265734
170.499490	1064.384615
173.035255	1061.093007
175.572445	1056.195804
178.108943	1045.704895
180.642636	1039.036364
183.173526	1037.095105
185.703727	1037.099301
188.235353	1033.900699
190.764179	1031.541259
193.290205	1038.358042
195.815545	1040.322378
198.342310	1043.383916
200.866279	1047.432867
203.389562	1051.893007
205.912161	1051.248951
208.431967	1053.623776
210.951090	1057.291608
213.469530	1057.090210
215.989394	1055.669231
218.502257	1057.033566
221.018651	1054.577622
223.534364	1056.777622
226.045186	1063.560839
228.557433	1073.860839
231.066897	1075.758741
233.575683	1081.262937
236.083791	1079.862937
238.593323	1088.570629
241.097974	1091.425874
243.601949	1095.012587
246.107348	1097.976923
248.607872	1099.862937
251.111919	1098.344056
253.608996	1099.856643
256.109595	1104.648951
258.607423	1110.841958
261.104578	1108.668531
263.601060	1117.400699
266.092680	1121.948951
268.587818	1130.382517
271.080191	1129.486713
273.571893	1137.981119
276.060832	1137.454545
278.551194	1142.961538
281.038795	1146.106993
283.523636	1147.434266
286.011991	1149.311888
288.493408	1156.037762
290.978338	1158.402797
293.458422	1165.323776
295.942019	1170.334266
298.420774	1171.400000
300.900951	1171.227972
303.378377	1178.616084
305.855139	1191.883217
308.331237	1236.117483
310.804587	1304.891608
313.277276	1386.618182
315.749303	1456.650350
318.220668	1510.920979
320.689290	1541.802797
323.157252	1545.550350
325.626637	1520.704895
328.091199	1474.158042
330.559264	1408.675524
333.022510	1345.704196
335.485099	1291.207692
337.947030	1266.888811
340.408305	1263.167832
342.866846	1268.901399
345.326809	1263.865734
347.784040	1262.867832
350.240616	1265.070629
352.696537	1265.944056
355.149730	1260.489510
357.604345	1263.874825
360.054158	1267.117483
362.507467	1271.921678
364.955977	1272.624476
367.403837	1279.344755
369.853118	1277.536364
372.297606	1277.109091
374.743516	1270.701399
377.188777	1273.167133
379.631319	1277.380420
382.073213	1276.099301
384.514459	1270.653147
386.952990	1271.248252
389.392943	1275.141259
391.830182	1267.932168
394.264709	1266.341259
396.702724	1265.152448
399.135962	1258.093706
401.570622	1253.080420
404.000509	1255.141958
406.433881	1259.387413
408.862482	1261.587413
411.290443	1262.187413
413.719824	1263.017483
416.144441	1266.862937
418.570478	1276.389510
420.995876	1276.880420
423.420633	1276.541259
425.840631	1276.430070
428.262051	1273.283217
430.680774	1273.443357
433.100918	1273.073427
435.518367	1273.887413
437.937236	1274.422378
440.353412	1277.441259
442.764841	1276.476224
445.179746	1281.259441
447.591961	1284.209790
450.003542	1283.330070
452.414489	1272.565035
454.822750	1264.989510
457.230379	1251.746853
459.637375	1244.374825
462.043739	1229.825175
464.447422	1220.943357
466.850474	1210.819580
469.252896	1205.955245
471.654688	1193.521678
474.053802	1194.934266
476.454336	1195.221678
478.854241	1202.941259
481.249423	1202.462238
483.648072	1211.048951
486.042001	1207.046853
488.435304	1201.250350
490.827981	1181.199301
493.220033	1154.676923
495.613504	1121.602098
498.002262	1083.109790
500.388354	1033.251748
502.775866	992.663636
505.162754	946.864336
507.546979	910.651049
509.932623	874.653846
512.315604	847.372028
514.695925	815.626573
517.077665	793.127972
519.456746	775.327972
521.837246	763.039161
524.215088	751.618182
526.590275	743.651748
528.964844	735.907692
531.340832	732.904895
533.714166	721.639161
536.088919	718.284615
538.458985	705.990210
540.828436	695.867832
543.199306	685.904895
545.565494	678.316783
547.933101	670.041958
550.298062	659.864336
552.662410	651.430070
555.026146	647.409790
557.391299	646.334266
559.751780	646.305594
562.113678	643.095804
564.472937	644.681119
566.829557	637.865734
569.189623	636.030769
571.542997	633.897902
573.899816	628.981818
576.254000	616.497902
578.607575	608.648252
580.960542	599.129371
583.310878	594.973427
585.662630	595.147552
588.007706	599.072028
590.358246	599.148951
592.702113	601.965734
595.051441	607.335664
597.396120	614.873427
599.738175	617.844755
602.081647	616.990210
604.422496	606.916783
606.762742	601.973427
609.100368	589.504196
611.441429	584.000000
613.777853	577.065734
616.115693	570.767832
618.450915	559.372028
620.783522	559.267832
623.117546	557.540559
625.448955	555.113287
627.779766	548.202098
630.109979	541.122378
632.439595	535.064336
634.764587	536.088112
637.095021	533.304196
639.420833	532.756643
641.744039	529.676923
644.068661	532.655944
646.390677	527.530070
648.712099	530.072727
651.030918	526.363636
653.351153	524.386014
655.670795	517.988112
657.987836	513.653147
660.304286	511.464336
662.618137	513.239860
664.933403	508.983916
667.246073	506.932168
669.560158	502.771329
671.869644	503.679021
674.180544	497.153846
676.488852	495.393007
678.796572	489.185315
681.105707	488.731469
683.410249	482.004895
685.714205	479.666434
688.017574	472.523776
690.322358	474.569231
692.622556	469.087413
694.924169	469.084615
697.225196	466.267832
699.521642	465.483916
701.819502	462.876224
704.116780	460.261538
706.413473	456.516084
708.705591	457.558042
711.001120	452.795105
713.292076	454.188811
715.584446	450.868531
717.874240	456.609091
720.163455	457.983916
722.452089	463.209790
724.738152	466.279720
727.025628	468.225874
729.310534	469.502797
731.594861	472.271329
733.876621	474.366434
736.159794	478.131469
738.442390	477.219580
740.720430	483.038462
742.999884	481.116783
745.278763	484.988811
747.557066	485.976224
749.830820	493.474825
752.105988	494.397902
754.380582	493.789510
756.652617	493.526573
758.926065	492.589510
761.196955	493.025175
763.465288	492.048951
765.735036	491.066434
768.002228	493.983217
770.268850	491.902098
772.534903	498.486713
774.798404	500.206993
777.063317	512.137063
779.327662	513.587413
781.587476	519.988811
783.848704	520.546853
786.109364	522.053846
788.367477	522.975524
790.623046	521.158741
792.882006	516.475524
795.134467	515.586014
797.392295	513.478322
799.645604	508.953846
801.896372	497.850350
804.148553	494.851049
806.398196	485.614685
808.649250	487.474126
810.895793	482.365035
813.143749	484.010490
815.389169	480.014685
817.636002	479.218182
819.882272	479.702797
822.124039	486.495804
824.369188	480.146154
826.607865	479.015385
828.849925	473.651049
831.087486	477.013986
833.326458	475.481818
835.562904	478.505594
837.800762	467.323077
840.036094	463.796503
842.268902	452.899301
844.503122	452.284615
846.734820	448.190210
848.965963	446.146853
851.196551	433.516783
853.426585	432.680420
855.656064	430.169231
857.881063	436.613986
860.109435	436.706294
862.333329	440.730070
864.558633	439.409790
866.779462	444.569231
869.003663	445.333566
871.223391	456.773427
873.444530	459.244755
875.665118	460.673427
877.883197	452.746154
880.102685	449.139161
882.317707	444.009790
884.532181	446.678322
886.746108	450.115385
888.959487	454.289510
891.172320	456.678322
893.384605	457.155944
895.594389	462.356643
897.803627	465.307692
900.012319	462.203497
902.218513	455.060839
904.426116	452.874825
906.631222	453.297203
908.835784	450.186014
911.037851	458.393007
913.241327	461.762937
915.442309	459.229371
917.642749	456.524476
919.844598	458.813986
922.040056	462.916783
924.238872	458.946853
926.433251	459.248951
928.630987	446.911189
930.824287	445.970629
933.018995	446.262238
935.211218	439.318182
937.402903	450.479720
939.594050	454.189510
941.782714	449.811189
943.970841	457.887413
946.156488	477.634965
948.345487	489.761538
950.530063	497.631469
952.714104	510.923077
954.901495	514.676923
957.080583	526.967832
959.263020	534.506993
961.444924	544.751748
963.624354	561.665734
965.801311	563.732168
967.979676	556.967133
970.159447	561.517483
972.332870	564.832168
974.509639	560.658042
976.682002	568.644755
978.855771	575.123776
981.025138	595.144755
983.197848	610.690210
985.368092	632.953846
987.537808	650.147552
989.706995	657.610490
991.871785	663.790210
994.039917	659.757343
996.203653	662.994406
998.368797	662.682517
1000.531481	655.146154
1002.693640	660.295804
1004.853341	659.057343
1007.012519	660.737762
1009.173103	673.685315
1011.331232	701.739860
1013.488837	729.216084
1015.645919	739.959441
1017.802478	763.686014
1019.954657	774.376923
1022.108243	785.874825
1024.261306	790.254545
1026.411922	779.051748
1028.563943	788.801399
1030.711591	789.011189
1032.862571	796.923776
1035.009181	815.137762
1037.155271	824.658741
1039.300843	826.571329
1041.447819	821.436364
1043.588508	817.139860
1045.732525	821.815385
1047.874103	806.038462
1050.015163	822.452448
1052.157628	821.589510
1054.293814	850.693706
1056.433326	854.802797
1058.568482	879.384615
1060.706963	882.445455
1062.841091	877.001399
1064.974705	861.784615
1067.109723	854.474126
1069.240392	843.559441
1071.372467	834.007692
1073.502111	803.279720
1075.631244	827.288811
1077.759866	815.235664
1079.887976	807.898601
1082.013660	784.271329
1084.138834	785.246154
1086.265411	770.227273
1088.387652	742.213287
1090.511297	722.839860
1092.630607	712.438462
1094.755146	702.662937
1096.873441	689.470629
1098.993139	690.134266
1101.110419	714.160140
1103.227193	713.472727
1105.343460	710.175524
1107.457312	712.815385
1109.572567	699.420979
1111.683500	692.063636
1113.797744	679.474825
1115.907669	656.727972
1118.018996	640.367133
1120.129820	629.431469
1122.236327	629.134965
1124.346143	624.403497
1126.451645	618.203497
1128.558551	603.837762
1130.659240	591.016084
1132.765142	585.016084
1134.866735	579.964336
1136.969731	583.181818
1139.072226	585.369231
1141.168515	577.444755
1143.270010	596.004196
1145.367203	598.103497
1147.463897	611.167133
1149.560094	609.644755
1151.655792	594.943357
1153.750993	584.555245
1155.843797	581.191608
1157.938003	574.592308
1160.026018	583.922378
1162.119231	568.827972
1164.206256	560.952448
1166.296581	564.445455
1168.382617	563.037762
1170.471951	549.888811
1172.555104	562.300699
1174.639660	546.502098
1176.725616	538.327273
1178.807291	534.965734
1180.890368	543.098601
1182.971059	538.482517
1185.051259	542.207692
1187.130967	532.166434
1189.210183	530.833566
1191.287018	537.230070
1193.361472	530.376923
1195.439218	534.016084
1197.512693	544.860839
1199.587570	530.406993
1201.658179	538.776224
1203.730189	536.920979
1205.799823	539.965734
1207.870858	529.990909
1209.941405	529.666434
1212.007691	530.479021
1214.075378	527.664336
1216.140693	520.444755
1218.207408	514.237063
1220.269867	506.430070
1222.335612	501.041259
1224.397102	495.962238
1226.459992	506.211888
1228.520515	508.736364
1230.580555	512.703497
1232.640111	510.545455
1234.697303	513.897902
1236.754012	513.421678
1238.808359	510.734965
1240.865986	511.025175
1242.921251	509.528671
1244.972275	506.553846
1247.024699	508.197902
1249.076644	512.734965
1251.126230	511.978322
1253.175337	515.689510
1255.223965	520.504895
1257.272115	516.719580
1259.319787	513.744755
1261.363228	506.800000
1263.409944	516.809790
1265.454308	519.379021
1267.498194	530.060839
1269.539730	537.209790
1271.578916	541.234965
1273.621374	541.665035
1275.659611	534.843357
1277.699245	529.495105
1279.738405	527.348951
1281.773347	525.053147
1283.809687	518.658042
1285.843682	527.315385
1287.879076	540.872028
1289.910256	555.420979
1291.942835	584.701399
1293.974941	600.243357
1296.004707	621.374126
1298.035871	629.591608
1300.062827	636.530769
1302.091181	643.118182
1304.115331	653.199301
1306.142746	669.695804
1308.165958	673.480420
1310.190568	694.397203
1312.212843	715.483217
1314.236516	750.972727
1316.257856	784.447552
1318.278729	809.796503
1320.299134	848.482517
1322.315345	880.948951
1324.332955	921.600000
1326.348236	954.810490
1328.366776	980.112587
1330.381126	1010.792308
1332.393151	1033.586713
1334.408434	1062.622378
1336.419531	1092.181818
1338.432024	1111.516084
1340.440335	1121.985315
1342.451902	1131.387413
1344.457430	1139.491608
1346.466212	1141.950350
1348.470818	1134.420280
1350.478677	1114.725175
1352.486073	1090.797203
1354.487439	1068.309091
1356.490202	1043.072727
1358.492505	1017.070629
1360.494347	985.152448
1362.495731	944.232867
1364.494800	897.479021
1366.493411	857.229371
1368.491564	810.294406
1370.489259	769.930070
1372.482790	730.755245
1374.477718	694.735664
1376.472189	667.123077
1378.466203	641.551049
1380.457910	628.295804
1382.449161	618.165035
1384.438107	602.231469
1386.428448	587.927972
1388.418334	576.230070
1390.405917	567.193706
1392.393046	553.406294
1394.377873	547.561538
1396.364095	543.104196
1398.348016	538.538462
1400.331485	533.207692
1402.314502	532.076923
1404.295221	535.615385
1406.277334	536.191608
1408.257150	538.327273
1410.236516	533.095804
1412.211743	532.123077
1414.190208	529.117483
1416.166380	522.572028
1418.142102	522.537063
1420.117375	524.525874
1422.090357	522.023077
1424.062892	517.719580
1426.034978	524.428671
1428.006616	529.097203
1429.974127	532.996503
1431.946711	537.611888
1433.911489	534.602098
1435.881340	532.044755
1437.847066	529.546154
1439.814186	529.100699
1441.779022	531.229371
1443.739738	526.641958
1445.705522	518.262937
1447.665351	518.441958
1449.626573	529.250350
1451.589188	533.180420
1453.547688	541.159441
1455.505746	548.504895
1457.463361	550.590909
1459.420535	555.537762
1461.375433	567.151748
1463.331723	573.795804
1465.285739	578.605594
1467.239315	575.418881
1469.190618	572.665734
1471.143313	586.254545
1473.093737	598.993706
1475.043722	604.027972
1476.993267	604.000699
1478.940544	606.381119
1480.885554	609.386713
1482.831956	618.927972
1484.777920	622.459441
1486.723446	620.274825
1488.666708	626.330769
1490.609533	628.381818
1492.550095	622.621678
1494.492048	632.472727
1496.431740	631.058042
1498.370996	629.995804
1500.309818	620.440559
1502.246380	622.509790
1504.184332	631.779021
1506.120027	638.518182
1508.055288	640.511888
1509.988292	652.303497
1511.920864	678.259441
1513.853004	699.948252
1515.784712	714.148951
1517.714167	735.797203
1519.645011	749.756643
1521.575425	772.808392
1523.501766	786.200000
1525.429497	810.801399
1527.354978	834.133566
1529.280030	858.882517
1531.204653	885.060839
1533.128847	935.677622
1535.050794	995.816084
1536.974130	1062.144755
1538.895221	1134.037762
1540.814067	1226.512587
1542.734303	1339.466434
1544.652295	1469.413986
1546.569861	1619.953147
1548.485185	1827.670629
1550.401899	2078.734266
1552.314558	2404.583217
1554.230421	2823.555944
1556.144045	3356.454545
1558.055430	3993.285315
1559.968204	4732.904196
1561.876929	5528.796503
1563.787044	6300.183916
1565.696735	6971.981119
1567.606002	7446.489510
1569.513036	7685.879720
1571.417837	7658.416783
1573.324027	7335.033566
1575.227985	6793.092308
1577.131523	6082.998601
1579.034639	5280.767832
1580.935527	4497.064336
1582.837803	3783.917483
1584.737850	3171.939161
1586.639286	2672.967832
1588.536687	2301.418881
1590.433671	1999.876923
1592.330236	1789.024476
1594.228188	1637.472028
1596.120306	1524.547552
1598.015618	1446.503497
1599.910511	1381.354545
1601.803183	1337.516084
1603.695439	1310.019580
1605.585475	1279.856643
1607.475095	1245.642657
1609.364300	1211.558741
1611.253089	1162.193007
1613.139662	1107.371329
1615.027621	1067.879021
1616.911565	1018.165035
1618.796895	955.230070
1620.681812	887.640559
1622.564515	835.881818
1624.448604	803.062937
1626.328683	766.447552
1628.210148	735.721678
1630.089403	700.134266
1631.970044	672.560140
1633.844881	649.393007
1635.724700	648.358042
1637.600513	643.405594
1639.475917	619.533566
1641.352706	600.658042
1643.223698	596.410490
1645.097872	597.355944
1646.968048	600.790210
1648.841404	595.324476
1650.712557	584.108392
1652.581508	584.103497
1654.451845	586.320280
1656.318188	589.557343
1658.185918	591.787413
1660.051448	586.513986
1661.918363	577.983916
1663.781290	567.418182
1665.645602	568.883217
1667.507719	557.613287
1669.369430	532.582517
1671.232526	502.039860
1673.093428	496.554545
1674.952136	511.592308
1676.810441	511.811189
1678.670131	521.511888
1680.524054	537.309790
1682.381149	535.455944
1684.237842	537.665035
1686.090559	530.083217
1687.946447	530.795105
1689.798361	531.573427
1691.649873	521.166434
1693.500986	507.445455
1695.351697	531.257343
1697.202008	528.967133
1699.050135	525.474126
1700.899645	539.618182
1702.743407	532.006993
1704.592119	520.523776
1706.435084	518.627972
1708.281215	498.706993
1710.123385	478.627273
1711.968719	465.824476
1713.808313	460.976224
1715.649291	453.066434
1717.491652	453.932168
1719.330057	451.647552
1721.169845	469.440559
1723.007458	486.065035
1724.844675	490.754545
1726.679719	525.084615
1728.516146	534.653846
1730.350401	524.269930
1732.184262	519.024476
1734.017728	517.004895
1735.847248	522.327273
1737.679927	507.489510
1739.508662	509.884615
1741.340555	521.469231
1743.168505	524.599301
1744.996063	510.229371
1746.823230	511.313287
1748.650004	514.793007
1750.476388	505.061538
1752.298835	496.082517
1754.124436	495.116783
1755.946103	484.953147
1757.769152	478.885315
1759.590040	476.290210
1761.410538	475.681818
1763.232418	460.743357
1765.048598	453.098601
1766.867930	443.721678
1768.683335	449.067133
1770.501891	447.460140
1772.316521	457.737063
1774.130764	465.376923
1775.944621	460.401399
1777.758091	471.662937
1779.569407	480.425175
1781.382105	474.054545
1783.194416	451.793706
1785.002810	438.462937
1786.812585	441.697203
1788.618444	430.241958
1790.427450	413.896503
1792.232542	395.501399
1794.039014	396.223077
1795.845103	389.295105
1797.647282	391.020979
1799.452604	417.936364
1801.254018	428.339860
1803.056812	438.854545
1804.855701	456.780420
1806.655969	468.074126
1808.455857	481.919580
1810.253602	488.034965
1812.050967	481.960839
1813.847951	472.820979
1815.644555	475.034965
1817.439020	470.400699
1819.234865	464.698601
1821.025054	463.127972
1822.820140	461.968531
1824.609573	462.146154
1826.402144	463.452448
1828.192579	454.025175
1829.980879	463.889510
1831.772315	466.844056
1833.558105	454.690210
1835.345275	442.287413
1837.130313	446.844056
1838.918485	434.604895
1840.702771	434.416783
1842.484928	439.712587
1844.268463	445.046853
1846.049871	444.634266
1847.832656	449.413287
1849.611562	462.565734
1851.391846	471.071329
1853.170005	468.092308
1854.949541	464.472727
1856.726953	451.921678
1858.502241	456.097203
1860.278908	448.688112
1862.053452	461.979021
1863.829373	448.711189
1865.599675	450.405594
1867.373104	435.373427
1869.144413	435.920979
1870.915351	435.897203
1872.687666	435.825874
1874.454369	438.116084
1876.224196	430.816783
1877.990160	416.867832
1879.759248	423.722378
1881.524474	427.136364
1883.289332	428.159441
1885.055566	424.201399
1886.817942	436.223776
1888.579951	430.824476
1890.341593	430.495804
1892.102867	436.483916
1893.863775	454.686014
1895.624315	462.520979
1897.382746	452.621678
1899.140812	453.686014
1900.896770	460.538462
1902.654104	452.053846
1904.411072	454.871329
1906.165935	453.399301
1907.918692	444.685315
1909.671086	434.833566
1911.424856	435.616084
1913.176522	438.317483
1914.926085	449.767133
1916.677025	456.171329
1918.427601	450.534965
1920.174339	456.393007
1921.922452	451.807692
1923.668466	448.033566
1925.415856	451.375524
1927.161147	442.415385
1928.904341	441.887413
1930.648911	434.718182
1932.391384	436.496503
1934.133497	430.369930
1935.875251	429.874825
1937.616644	426.872028
1939.355944	430.886014
1941.094885	435.195105
1942.833467	436.506993
1944.569957	439.808392
1946.306090	444.609091
1948.043597	447.506993
1949.777283	457.472727
1951.512343	451.060839
1953.245314	441.202098
1954.977929	437.574126
1956.710187	431.504196
1958.442089	432.574825
1960.171905	429.149650
1961.899637	423.416783
1963.628742	420.389510
1965.357493	416.634965
1967.084160	412.918182
1968.810473	411.602098
1970.538159	420.127273
1972.260309	418.112587
1973.985561	415.591608
1975.707005	421.643357
1977.431549	426.390210
1979.154014	426.596503
1980.872675	417.819580
1982.594435	422.135664
1984.312393	426.793007
1986.031725	421.772727
1987.747256	423.204196
1989.467609	423.583916
1991.184162	426.075524
1992.896920	422.629371
1994.612773	433.008392
1996.326554	427.103497
1998.039984	434.725175
1999.751344	446.537063
2001.464077	452.893007
2003.173018	461.112587
2004.885053	470.511189
2006.591578	464.172727
2008.301196	463.588811
2010.008746	458.383916
2011.715949	453.596503
2013.421086	447.859441
2015.125876	447.027273
2016.832038	434.111888
2018.534418	440.823776
2020.238170	445.133566
2021.939859	446.665035
2023.641202	449.279720
2025.342200	459.093706
2027.041138	461.450350
2028.741447	462.902797
2030.437980	469.719580
2032.135885	458.070629
2033.831732	456.918182
2035.530664	443.596503
2037.224110	437.870629
2038.918927	435.818881
2040.613401	424.757343
2042.304107	425.702797
2043.997897	419.982517
2045.687920	422.053846
2047.379314	416.165734
2049.068655	416.806993
2050.759366	420.907692
2052.446315	408.475524
2054.132923	414.559441
2055.820902	416.620280
2057.505121	433.827273
2059.190710	443.948951
2060.875960	446.044056
2062.559162	448.266434
2064.243734	440.323077
2065.922842	436.750350
2067.606736	424.197203
2069.285170	421.522378
2070.966681	411.406294
2072.644440	393.921678
2074.321863	395.894406
2076.000655	403.369231
2077.677404	408.283217
2079.352112	408.057343
2081.028189	403.048252
2082.702226	401.439161
2084.375927	397.284615
2086.049293	404.486014
2087.720621	399.334266
2089.391614	410.758741
2091.062273	415.293007
2092.732598	412.238462
2094.402588	426.170629
2096.070543	425.348951
2097.738165	421.188112
2099.403753	423.342657
2101.070709	424.590210
2102.735632	426.497902
2104.400222	422.393007
2106.062781	426.645455
2107.726709	424.067832
2109.388605	436.222378
2111.050170	434.347552
2112.711405	433.354545
2114.370610	436.058741
2116.029486	429.347552
2117.688031	435.009790
2119.346247	442.399301
2121.000739	440.001399
2122.658297	431.703497
2124.315524	417.506993
2125.969031	415.398601
2127.623905	411.483217
2129.275060	412.726573
2130.929278	408.710490
2132.579778	414.565035
2134.231646	413.835664
2135.878105	412.370629
2137.529318	410.020979
2139.176818	407.076224
2140.825686	398.332168
2142.472534	395.276224
2144.119056	385.811189
2145.765254	399.595804
2147.407742	402.199301
2149.053289	419.166434
2150.695129	426.941958
2152.340026	438.039161
2153.981218	433.896503
2155.622086	427.273427
2157.262631	427.065734
2158.901163	425.334266
2160.541061	424.388112
2162.177259	422.111888
2163.814823	420.720280
2165.452065	422.159441
2167.087297	417.869231
2168.722207	427.400699
2170.356796	414.862238
2171.991064	418.220979
2173.621638	416.810490
2175.255263	426.693706
2176.885197	439.483916
2178.516496	439.923776
2180.145791	440.486713
2181.774765	437.767133
2183.403421	442.021678
2185.031757	442.604196
2186.658090	442.560839
2188.284105	438.946154
2189.908119	431.593706
2191.533498	431.854545
2193.156876	429.900000
2194.781619	433.476923
2196.402680	434.048252
2198.023426	431.629371
2199.645535	422.462238
2201.265647	417.776923
2202.883763	419.713287
2204.501563	420.305594
2206.119047	420.184615
2207.736216	423.810490
2209.353070	425.144755
2210.969609	417.354545
2212.584154	417.866434
2214.196707	420.202797
2215.810625	419.841259
2217.422550	423.505594
2219.035840	412.645455
2220.647138	408.794406
2222.256448	402.247552
2223.867120	397.461538
2225.475804	397.942657
2227.084176	397.504895
2228.690560	394.140559
2230.298308	396.858042
2231.904069	392.862937
2233.509519	400.168531
2235.112985	403.141259
2236.717813	400.604196
2238.320657	401.954545
2239.921518	404.471329
2241.523742	401.390210
2243.123983	407.466434
2244.725588	413.480420
2246.323539	408.230070
2247.922853	420.596503
2249.520187	435.446853
2251.117213	432.602098
2252.715600	455.605594
2254.310339	459.089510
2255.903102	456.218881
2257.497226	457.622378
2259.092712	457.024476
2260.684554	445.999301
2262.276089	449.616783
2263.868985	434.500699
2265.456572	416.561538
2267.048856	426.028671
2268.635832	421.676923
2270.225837	429.779021
2271.810537	436.909091
2273.399931	438.520979
2274.984022	443.717483
2276.569475	442.690210
2278.152959	444.717483
2279.739468	447.433566
2281.322344	449.162937
2282.904916	432.605594
2284.487186	425.791608
2286.065825	421.551049
2287.647488	427.979720
2289.225524	419.362937
2290.806582	403.141259
2292.384013	398.103497
2293.959481	405.260839
2295.537971	410.626573
2297.112836	409.889510
2298.687401	410.908392
2300.261666	411.082517
2301.835630	413.383916
2303.409294	417.987413
2304.982657	428.544056
2306.552402	441.086014
2308.121848	424.041958
2309.694313	430.067133
2311.261503	435.401399
2312.831710	451.701399
2314.398303	449.852448
2315.966256	438.103497
2317.532254	419.724476
2319.097954	418.553846
2320.663356	432.747552
2322.226805	451.296503
2323.791613	483.158741
2325.352812	490.674825
2326.917026	496.642657
2328.475979	499.435664
2330.037945	502.128671
2331.597961	502.000699
2333.157681	479.618182
2334.715452	447.558741
2336.272929	413.688811
2337.830110	416.034965
2339.385345	428.136364
2340.940285	444.383916
2342.494932	457.460839
2344.049285	446.229371
2345.603344	443.907692
2347.157110	448.702797
2348.708931	452.232168
2350.258809	438.055944
2351.811695	433.479720
2353.359339	425.981119
2354.909990	425.513287
2356.457051	430.829371
2358.005469	433.909091
2359.553595	429.731469
2361.098134	437.248951
2362.644030	437.553846
2364.187987	443.475524
2365.733302	455.398601
2367.275032	450.848951
2368.818120	436.851049
2370.359271	451.256643
2371.900133	439.951049
2373.440706	440.644056
2374.980990	443.190210
2376.520985	432.071329
2378.057401	431.197902
2379.596819	446.237762
2381.132660	459.521678
2382.669857	466.877622
2384.203480	468.260140
2385.740102	485.289510
2387.274793	484.400699
2388.807555	497.660839
2390.340031	500.142657
2391.870578	511.234965
2393.404123	506.717483
2394.932457	480.625874
2396.462147	482.444755
2397.991552	478.617483
2399.520672	486.593007
2401.049506	482.293007
2402.573136	502.409091
2404.101401	523.155245
2405.624463	520.057343
2407.152160	545.753147
2408.673016	557.210490
2410.198506	557.420280
2411.720436	563.058741
2413.243720	555.978322
2414.765084	564.165035
2416.284528	560.178322
2417.805327	559.918881
2419.324207	564.835664
2420.842805	579.369231
2422.359486	568.738462
2423.877522	572.930070
2425.395276	586.938462
2426.909478	587.351748
2428.423400	591.756643
2429.937043	592.376224
2431.452039	568.165035
2432.963487	563.013287
2434.476290	547.411189
2435.987180	543.433566
2437.497790	544.439860
2439.006489	552.746154
2440.518175	548.502797
2442.026317	550.884615
2443.534180	546.647552
2445.041766	542.616084
2446.545812	563.790909
2448.052842	569.417483
2449.557964	561.314685
2451.062809	567.653846
2452.565747	568.351049
2454.068408	579.797902
2455.570793	585.192308
2457.071273	579.862238
2458.573106	561.734965
2460.073035	556.979720
2461.572688	557.851049
2463.072066	555.348252
2464.569541	582.019580
2466.065114	578.235664
2467.563667	575.653846
2469.058691	578.917483
2470.555069	568.227273
2472.047920	566.816084
2473.542123	540.930070
2475.036053	525.181818
2476.526460	517.103497
2478.019844	521.468531
2479.511329	525.600699
2481.000918	524.705594
2482.490236	528.699301
2483.977657	525.997203
2485.468054	527.317483
2486.954932	528.188112
2488.443162	516.497203
2489.927876	505.417483
2491.412319	499.571329
2492.898114	504.654545
2494.382016	505.167133
2495.867270	493.733566
2497.347390	486.152448
2498.830482	499.116084
2500.311684	491.253147
2501.792617	490.060140
2503.271661	481.446853
2504.750437	494.275524
2506.228944	497.416084
2507.707182	504.011888
2509.185152	513.587413
2510.659618	505.576224
2512.137052	499.050350
2513.610983	488.147552
2515.086265	484.098601
2516.561279	507.178322
2518.032792	497.383217
2519.505656	504.720979
2520.976637	499.008392
2522.448967	508.747552
2523.916185	514.006294
2525.386369	518.544755
2526.854671	514.473427
2528.322709	508.504895
2529.790482	504.653846
2531.257990	503.122378
2532.725233	495.558042
2534.188985	502.148252
2535.654086	492.194406
2537.117310	486.857343
2538.581883	474.510490
2540.042967	489.162238
2541.505402	494.904196
2542.967573	506.379720
2544.426257	513.081119
2545.889514	525.249650
2547.347674	529.813986
2548.807183	533.256643
2550.261599	538.637762
2551.720585	529.857343
2553.177698	539.243357
2554.632941	530.730769
2556.087923	525.098601
2557.541035	527.337762
2558.995496	523.649650
2560.448088	531.839860
2561.900420	524.368531
2563.350884	539.398601
2564.804304	541.575524
2566.252642	528.558741
2567.703936	540.827972
2569.153363	550.026573
2570.599319	552.960140
2572.048229	545.299301
2573.493668	537.323077
2574.940456	549.298601
2576.385380	566.669231
2577.830047	576.559441
2579.276061	585.511888
2580.718608	599.218881
2582.162503	601.339860
2583.602933	604.043357
2585.044711	629.437762
2586.484629	638.448252
2587.925894	636.071329
2589.363697	654.161538
2590.804450	645.081818
2592.240140	662.765035
2593.678780	668.806294
2595.115563	664.718182
2596.550489	665.042657
2597.988364	659.325874
2599.421181	657.947552
2600.855345	669.825874
2602.287654	670.463636
2603.721310	690.241958
2605.153113	703.203497
2606.584663	727.709091
2608.015959	726.662937
2609.445404	756.051748
2610.874596	770.206993
2612.301937	785.085315
2613.730625	799.037063
2615.159060	804.850350
2616.584049	804.518881
2618.010383	811.920979
2619.434869	821.834266
2620.860701	843.375524
2622.283089	841.265035
2623.706823	868.201399
2625.128711	878.049650
2626.550348	902.881119
2627.970140	923.393007
2629.391278	950.919580
2630.812166	983.381119
2632.229616	1004.076923
2633.650005	1025.276923
2635.066957	1059.701399
2636.483661	1097.534965
2637.900116	1131.995105
2639.316323	1158.716783
2640.732281	1188.273427
2642.146399	1208.306993
2643.560270	1224.862937
2644.972301	1249.384615
2646.385677	1273.179021
2647.795623	1293.045455
2649.208505	1304.558042
2650.617958	1322.531469
2652.027165	1360.232867
2653.434536	1397.122378
2654.844841	1445.129371
2656.253310	1488.860839
2657.659944	1532.188112
2659.066333	1588.590909
2660.470888	1642.426573
2661.876787	1696.830769
2663.280853	1748.411189
2664.684675	1783.629371
2666.088252	1834.243357
2667.489997	1871.520280
2668.893086	1918.946154
2670.292758	1952.210490
2671.693773	1977.172028
2673.091371	1988.506993
2674.491900	2008.522378
2675.889014	2023.405594
2677.287471	2033.463636
2678.684100	2046.613986
2680.080488	2070.988811
2681.476633	2090.720979
2682.870952	2112.704895
2684.266614	2118.788811
2685.658866	2130.228671
2687.052462	2135.821678
2688.444233	2141.900699
2689.837346	2136.648252
2691.228636	2140.592308
2692.618103	2122.546853
2694.007331	2112.155944
2695.396318	2110.231469
2696.786648	2101.857343
2698.171993	2090.016084
2699.560263	2065.915385
2700.946712	2032.991608
2702.332922	2024.794406
2703.718893	2005.458042
2705.101466	1984.370629
2706.485380	1944.007692
2707.869057	1899.559441
2709.252496	1846.878322
2710.632539	1810.450350
2712.013924	1760.926573
2713.393493	1715.648951
2714.774404	1665.495804
2716.153500	1606.300699
2717.530781	1552.965035
2718.909404	1519.832168
2720.286214	1457.722378
2721.662788	1408.468531
2723.039126	1350.564336
2724.413652	1311.200000
2725.789519	1267.385315
2727.161999	1233.772028
2728.537396	1192.609091
2729.907831	1165.496503
2731.279608	1117.122378
2732.651151	1076.662238
2734.020885	1036.304196
2735.391959	1002.372028
2736.761226	954.637762
2738.130259	928.284615
2739.497485	884.623077
2740.864479	871.176923
2742.231240	838.906294
2743.597768	811.497902
2744.962492	792.121678
2746.326983	770.417483
2747.691242	739.757343
2749.055270	723.129371
2750.419065	698.615385
2751.779487	688.379021
2753.142820	668.972028
2754.501210	655.164336
2755.862510	636.138462
2757.220439	626.581119
2758.581278	614.780420
2759.940316	599.028671
2761.295986	597.732867
2762.654565	586.962238
2764.009776	576.507692
2765.364758	576.856643
2766.717943	570.671329
2768.074035	576.009790
2769.426763	566.541259
2770.779262	556.872028
2772.131533	554.974825
2773.485143	543.767133
2774.835391	542.044755
2776.183846	544.265035
2777.535205	555.548252
2778.883205	543.403497
2780.232544	543.149650
2781.580090	544.004895
2782.927409	541.830769
2784.274502	544.537762
2785.619804	538.730769
2786.964880	540.397902
2788.309730	532.707692
2789.654354	513.534965
2790.995625	496.086713
2792.338235	487.777622
2793.680620	481.201399
2795.022779	466.729371
2796.361589	460.209091
2797.703299	442.625175
2799.041660	443.402797
2800.381359	444.171329
2801.719272	452.520979
2803.055401	462.448252
2804.391307	456.530070
2805.728549	452.817483
2807.064008	461.050350
2808.399244	464.574126
2809.732698	478.318881
2811.067488	481.846853
2812.398937	461.058741
2813.733282	447.045455
2815.062729	440.260839
2816.393513	433.713986
2817.724075	432.436364
2819.052858	437.125874
2820.382978	427.413986
2821.711318	432.127273
2823.039438	441.541259
2824.365781	448.772727
2825.693459	455.969231
2827.017805	460.004196
2828.343486	440.682517
2829.667393	446.537063
2830.991079	426.016783
2832.316101	426.940559
2833.637794	418.650350
2834.959267	424.664336
2836.280522	406.429371
2837.601558	400.458042
2838.920822	400.867133
2840.241421	408.725175
2841.560248	408.344056
2842.878857	414.834266
2844.195696	400.018881
2845.512317	389.361538
2846.828720	374.595804
2848.143355	381.865035
2849.459324	387.544056
2850.771973	395.809790
2852.085958	389.849650
2853.399726	398.125175
2854.713277	404.651049
2856.025061	397.869930
2857.335080	400.555245
2858.646433	398.934266
2859.954470	402.789510
2861.263843	404.086014
2862.573000	414.715385
2863.881942	427.179021
2865.189121	442.612587
2866.494536	449.726573
2867.801286	437.355944
2869.106273	433.378322
2870.411047	413.388811
2871.714059	403.870629
2873.019953	405.404895
2874.320992	403.677622
2875.623364	414.682517
2876.923977	427.013986
2878.225924	433.661538
2879.527658	442.142657
2880.826088	447.480420
2882.125851	434.719580
2883.423857	419.703497
2884.721651	424.411888
2886.017688	415.400000
2887.315059	419.872028
2888.610674	419.223776
2889.906079	423.239860
2891.201272	423.517483
2892.493167	428.529371
2893.787939	415.646154
2895.079415	407.643357
2896.372223	387.436364
2897.664821	367.806294
2898.954124	367.661538
2900.244760	373.879720
2901.533646	377.708392
2902.823863	385.087413
2904.110789	404.977622
2905.399047	414.048252
2906.685556	416.085315
2907.971856	432.566434
2909.257948	432.655944
2910.542292	432.757343
2911.829508	415.638462
2913.111897	417.290909
2914.395618	420.823776
2915.677592	429.011888
2916.959360	427.451748
2918.239382	417.027273
2919.522274	423.924476
2920.803421	415.291608
2922.081286	413.686713
2923.362020	414.734266
2924.639473	402.036364
2925.916721	405.112587
2927.192226	386.336364
2928.470599	389.525874
2929.744157	393.213287
2931.020583	394.806294
2932.295268	393.453846
2933.568213	386.822378
2934.842488	395.854545
2936.115024	394.544056
2937.387356	395.781818
2938.656415	394.431469
2939.928339	407.016783
2941.198525	430.945455
2942.468507	415.299301
2943.738286	426.573427
2945.006328	423.730769
2946.272635	420.797902
2947.538739	412.481119
2948.806174	392.561538
2950.071873	383.798601
2951.337370	382.109091
2952.602665	383.790210
2953.864696	382.680420
2955.128056	398.274126
2956.391215	405.220979
2957.652641	393.009091
2958.915397	398.888112
2960.176422	390.620979
2961.435716	391.627273
2962.694809	384.429371
2963.953702	374.765734
2965.212395	367.495804
2966.470888	369.702797
2967.727652	371.919580
2968.984217	360.131469
2970.239053	351.661538
2971.495219	338.860140
2972.748129	328.348252
2974.002369	333.839860
2975.256410	332.537762
2976.508725	340.391608
2977.760842	349.275524
2979.011234	359.314685
2980.264481	343.654545
2981.512951	343.348951
2982.764275	339.593706
2984.012351	321.790210
2985.260229	322.305594
2986.507910	325.439161
2987.755395	321.541958
2989.001158	331.002797
2990.246724	331.502797
2991.493619	342.609091
2992.737268	358.865035
2993.982246	374.628671
2995.223981	372.042657
2996.468567	379.111189
2997.711434	386.213986
2998.951059	374.595105
3000.193536	378.428671
3001.432772	377.239860
3002.673336	371.974825
3003.912183	371.679720
3005.150836	352.253147
3006.387773	345.540559
3007.626037	341.381119
3008.862587	343.376923
3010.098943	343.914685
3011.335105	343.134266
3012.569553	345.776923
3013.803808	347.167133
3015.037870	353.145455
3016.270220	365.308392
3017.500858	366.746853
3018.734342	379.639161
3019.966115	382.151049
3021.196176	376.244755
3022.426046	362.199301
3023.654206	362.993007
3024.883693	363.783217
3026.111470	357.784615
3027.339056	359.272028
3028.567968	359.223077
3029.792138	346.875524
3031.019151	338.360140
3032.242941	326.412587
3033.468056	338.332168
3034.691465	338.205594
3035.914685	329.491608
3037.136199	323.469930
3038.360554	335.693007
3039.580174	338.266434
3040.801120	331.564336
3042.021876	339.672028
3043.240929	325.281119
3044.461308	329.085315
3045.678470	331.069930
3046.896957	331.314685
3048.113743	336.479720
3049.330340	331.537063
3050.546750	333.688112
3051.759946	327.960140
3052.975980	332.164336
3054.188802	329.847552
3055.404461	324.821678
3056.615397	335.326573
3057.827659	338.613986
3059.039733	341.879720
3060.251621	340.495804
3061.461811	341.751049
3062.671816	338.966084
3063.881634	332.377622
3065.089756	319.858392
3066.297692	311.925175
3067.503934	307.087762
3068.711500	295.481818
3069.917371	303.922727
3071.123057	318.130070
3072.328559	320.627622
3073.532367	315.553147
3074.737499	319.562587
3075.940938	329.779720
3077.142685	351.296853
3078.344249	356.412587
3079.545629	352.918182
3080.746825	343.378322
3081.946331	334.700699
3083.145653	327.417483
3084.346299	334.537063
3085.545256	335.993007
3086.741017	331.930070
3087.939608	321.091608
3089.135005	313.753147
3090.331726	316.671329
3091.525254	327.690210
3092.721610	329.523776
3093.916279	323.428671
3095.107758	314.376923
3096.303568	322.366434
3097.494685	323.009790
3098.687125	322.068531
3099.876376	330.246853
3101.068454	314.605594
3102.258848	301.427273
3103.446055	300.319580
3104.634586	305.571329
3105.824439	312.388811
3107.011107	319.556643
3108.197596	316.071329
3109.383905	325.190909
3110.571537	338.105594
3111.755986	342.228671
3112.938755	343.990909
3114.124348	335.495105
3115.308260	314.251049
3116.490494	312.727972
3117.672550	315.730070
3118.854427	315.469231
3120.036126	313.898601
3121.216148	309.883217
3122.394492	305.589510
3123.575658	304.672727
3124.753648	304.146154
3125.931461	300.162238
3127.109097	298.690909
3128.285058	294.128671
3129.460843	296.331469
3130.637948	315.359441
3131.813380	328.558741
3132.987138	332.339860
3134.159223	340.490210
3135.332629	343.450350
3136.505860	331.295804
3137.677418	320.475524
3138.850298	309.152448
3140.020010	300.879720
3141.191043	294.191608
3142.360405	294.237063
3143.528098	301.711888
3144.698606	315.988112
3145.864455	316.358042
3147.034614	320.541259
3148.200115	320.710490
3149.365443	313.783217
3150.530597	309.439161
3151.695578	312.826573
3152.861878	314.942657
3154.023525	309.630769
3155.186493	307.800000
3156.349287	311.873427
3157.511909	318.088811
3158.672866	315.376923
3159.833650	307.873427
3160.994263	313.304895
3162.153211	305.992308
3163.311987	303.439161
3164.470592	304.209790
3165.629025	300.503497
3166.787286	297.574825
3167.943885	284.286713
3169.098823	287.640559
3170.255080	283.299301
3171.409677	287.399301
3172.564102	283.919580
3173.716868	295.435664
3174.869464	305.727972
3176.021890	309.776224
3177.174145	314.673427
3178.326231	315.518881
3179.475170	303.853846
3180.626916	306.676923
3181.777005	295.102098
3182.925436	300.386713
3184.073699	295.408392
3185.221793	305.781818
3186.369717	312.269930
3187.515987	329.039161
3188.662088	331.932867
3189.806535	336.700699
3190.950813	334.776224
3192.094924	328.953846
3193.240353	320.316783
3194.382643	331.981818
3195.524765	318.042657
3196.666721	329.737762
3197.808509	331.296503
3198.950130	337.719580
3200.088615	350.872028
3201.228419	359.846853
3202.369539	351.192308
3203.507525	348.874825
3204.643862	341.934266
3205.780033	334.821678
3206.917522	340.592308
3208.053362	348.924476
3209.190518	349.557343
3210.323063	366.086713
3211.459888	369.478322
3212.592102	369.570629
3213.725634	384.659441
3214.859000	382.474126
3215.989239	372.306993
3217.122277	368.537063
3218.252187	365.169231
3219.383415	365.738462
3220.511517	370.762238
3221.642417	381.022378
3222.771672	384.286014
3223.899283	375.311888
3225.023773	375.101399
3226.152538	368.733566
3227.278181	362.385315
3228.403661	358.990210
3229.527500	353.941259
3230.654134	350.579021
3231.776169	358.469231
3232.899521	363.089510
3234.022711	357.365734
3235.145739	362.541958
3236.267127	342.340559
3237.388354	326.653846
3238.507942	320.130070
3239.627369	305.269930
3240.745159	287.612587
3241.865740	296.702797
3242.983208	283.451049
3244.100515	287.276224
3245.217661	304.997902
3246.333172	309.229371
3247.449998	302.313287
3248.563713	309.851748
3249.680219	296.818182
3250.795089	307.514685
3251.906851	309.984615
3253.018454	305.312587
3254.131372	307.464336
3255.244130	313.453846
3256.353782	305.527273
3257.464749	301.682517
3258.575557	303.595804
3259.684733	285.169231
3260.792278	282.615385
3261.901138	278.309091
3263.009839	280.685315
3264.115438	293.395105
3265.222352	293.551049
3266.327636	290.909790
3267.434234	294.988811
3268.537732	292.244056
3269.642544	280.993706
3270.747199	269.381119
3271.848756	265.044755
3272.950156	259.895804
3274.052870	273.844056
3275.155427	278.525874
3276.254889	286.374126
3277.357133	288.491608
3278.456283	287.080420
3279.553807	290.448252
3280.651176	289.233566
3281.751328	287.762238
3282.848386	275.637762
3283.945290	273.811189
3285.042038	278.785315
3286.134227	279.850350
3287.230666	281.481818
3288.325482	288.649650
3289.420143	280.923776
3290.513183	279.816084
3291.606069	283.360839
3292.697334	288.869231
3293.789912	286.628671
3294.880870	280.810490
3295.970208	279.981818
3297.059393	275.006993
3298.149890	267.372727
3299.237303	260.913287
3300.324564	251.393706
3301.413137	261.928671
3302.501557	263.808392
3303.585430	261.320280
3304.673545	267.857343
3305.758579	274.712587
3306.841997	273.711888
3307.926727	275.240559
3309.009841	289.166434
3310.094267	287.741259
3311.175615	280.071329
3312.258275	292.478322
3313.339321	293.944056
3314.420216	296.016783
3315.499498	303.123077
3316.578629	296.787413
3317.659072	293.277622
3318.736440	291.744755
3319.815120	280.349650
3320.892188	280.327972
3321.969106	277.656643
3323.044414	278.654545
3324.119572	279.430769
3325.196041	284.265035
3326.269439	284.767133
3327.342689	276.059441
3328.417250	276.596503
3329.490201	263.232867
3330.561545	252.976923
3331.634199	253.293706
3332.703786	244.420979
3333.774684	244.948252
3334.843975	242.512587
3335.914577	246.878322
3336.983572	252.838462
3338.050961	255.969231
3339.116745	256.072028
3340.186755	251.528671
3341.253702	252.541259
3342.317587	248.435664
3343.384240	258.325175
3344.449289	265.896503
3345.512734	265.726573
3346.576032	274.306294
3347.639185	270.297902
3348.702191	260.818182
3349.765050	257.618182
3350.826308	257.253846
3351.884509	254.178322
3352.946931	256.254545
3354.006296	255.058042
3355.065517	255.732168
3356.126046	268.520280
3357.182066	266.127972
3358.240851	269.770629
3359.295128	270.674126
3360.352169	254.356643
3361.407611	246.607692
3362.464362	241.131469
3363.519516	246.347552
3364.573072	248.095804
3365.625031	242.321678
3366.679752	241.765035
3367.731425	241.731469
3368.782953	250.390909
3369.835791	254.053846
3370.885581	266.762937
3371.936680	264.227273
3372.984732	260.093007
3374.035545	267.224476
3375.083312	261.949650
3376.130937	268.580420
3377.178420	264.048252
3378.224309	257.111888
3379.271508	261.701399
3380.315663	251.530070
3381.362577	259.503497
3382.407899	258.738462
3383.450181	254.503497
3384.492321	241.279021
3385.535770	238.965734
3386.579077	232.265035
3387.620794	228.625874
3388.662370	225.020979
3389.703806	223.876923
3390.743653	229.144755
3391.781911	231.855944
3392.821477	237.641259
3393.860903	247.311888
3394.898741	256.793007
3395.934992	249.901399
3396.971103	250.984615
3398.008522	253.594406
3399.042908	246.722378
3400.078602	253.095804
3401.114156	254.734266
3402.146678	256.088112
3403.181954	259.876224
3404.214199	253.793706
3405.246306	255.701399
3406.276829	258.961538
3407.308660	260.709790
3408.340352	246.896503
3409.369016	252.494406
3410.397542	241.115385
3411.427376	242.100000
3412.457072	249.584615
3413.483741	255.434965
3414.511718	250.034266
3415.536670	252.712587
3416.564372	241.507692
3417.589051	244.869930
3418.615036	244.216084
3419.639442	241.857343
3420.663710	240.141958
3421.686400	247.348252
3422.708955	248.215385
3423.732814	255.520280
3424.753654	256.752448
3425.774359	257.253646
3426.796369	256.946803
3427.815361	256.020380
3428.834218	254.662837
3429.854381	253.062637
3430.871526	251.408242
