-117.841134	5.160000
-115.171534	2.810000
-112.504869	1.120000
-109.838956	5.950000
-107.175976	5.650000
-104.511565	-3.400000
-101.850085	-2.970000
-99.187176	4.230000
-96.529373	-3.130000
-93.870141	2.540000
-91.211657	2.760000
-88.556098	3.270000
-85.899109	-0.410000
-83.247219	-1.030000
-80.593899	3.250000
-77.943498	0.480000
-75.291669	1.000000
-72.644930	2.940000
-69.996761	7.980000
-67.349335	-1.630000
-64.704824	-2.890000
-62.058883	3.300000
-59.418024	2.660000
-56.775736	4.840000
-54.136357	0.040000
-51.495548	8.130000
-48.855480	1.880000
-46.220485	2.960000
-43.584060	4.880000
-40.950538	6.600000
-38.315588	4.470000
-35.685703	2.710000
-33.052226	5.050000
-30.423811	0.340000
-27.796130	8.530000
-25.167020	6.030000
-22.542967	8.280000
-19.915325	14.530000
-17.292737	16.350000
-14.670879	21.170000
-12.049752	46.380000
-9.429356	102.650000
-6.811847	373.150000
-4.192910	1138.200000
-1.576858	2645.070000
1.038465	4563.550000
3.653060	4425.380000
6.264774	607.590000
8.877916	55.340000
11.486024	28.600000
14.097713	12.850000
16.704373	12.940000
19.312460	10.550000
21.919823	14.630000
24.522161	4.290000
27.128077	0.450000
29.728971	4.300000
32.331293	3.880000
34.928597	4.140000
37.529478	3.120000
40.125343	3.700000
42.722637	2.690000
45.319211	3.910000
47.910776	7.860000
50.503769	0.140000
53.093901	0.160000
55.685460	3.260000
58.274161	3.400000
60.864288	4.920000
63.449416	5.220000
66.035972	6.590000
68.621814	2.300000
71.204802	1.420000
73.789216	8.520000
76.366502	5.690000
78.947354	3.440000
81.525357	2.270000
84.102650	0.940000
86.681369	0.650000
89.255106	5.310000
91.830271	0.370000
94.402592	-2.880000
96.974205	5.500000
99.542978	5.170000
102.113178	-3.290000
104.680539	4.260000
107.249327	-1.750000
109.815278	8.690000
112.378394	2.900000
114.945066	9.440000
117.502516	7.820000
120.065653	1.120000
122.623829	3.470000
125.185560	8.800000
127.742334	15.060000
130.300534	20.050000
132.853782	29.590000
135.406332	42.980000
137.962432	54.090000
140.513584	69.750000
143.064039	83.910000
145.613796	98.660000
148.160734	108.890000
150.706977	117.330000
153.254645	115.970000
155.801617	117.580000
158.343654	117.670000
160.884997	114.340000
163.425647	108.780000
165.967723	111.380000
168.506987	110.060000
171.043442	105.290000
173.579207	115.350000
176.116397	111.540000
178.652896	109.910000
181.186589	110.120000
183.717478	109.720000
186.247679	109.980000
188.779306	106.370000
191.308131	107.720000
193.834157	104.800000
196.359497	112.180000
198.886262	111.890000
201.410231	107.730000
203.933515	107.800000
206.456113	107.820000
208.975919	114.950000
211.495042	110.930000
214.013483	113.660000
216.533347	111.030000
219.046210	113.840000
221.562604	119.970000
224.078316	120.980000
226.589138	124.150000
229.101385	130.790000
231.610849	126.940000
234.119635	130.760000
236.627743	132.350000
239.137275	134.600000
241.641926	132.930000
244.145901	129.870000
246.651300	135.260000
249.151824	134.080000
251.655871	130.410000
254.152948	130.410000
256.653548	133.370000
259.151376	127.520000
261.648531	137.290000
264.145013	136.780000
266.636632	139.310000
269.131771	135.560000
271.624143	133.480000
274.115845	140.290000
276.604784	145.170000
279.095146	146.890000
281.582747	147.650000
284.067588	142.760000
286.555944	150.540000
289.037360	146.870000
291.522290	158.820000
294.002375	159.960000
296.485972	165.690000
298.964726	174.720000
301.444903	181.560000
303.922329	182.250000
306.399091	176.720000
308.875189	168.830000
311.348540	156.970000
313.821228	159.370000
316.293255	161.160000
318.764621	166.590000
321.233242	168.690000
323.701204	168.910000
326.170589	160.740000
328.635151	150.760000
331.103217	148.530000
333.566463	141.410000
336.029051	148.200000
338.490983	138.690000
340.952258	146.410000
343.410798	142.980000
345.870762	139.540000
348.327992	136.900000
350.784568	134.720000
353.240490	142.480000
355.693682	128.660000
358.148297	132.240000
360.598110	129.780000
363.051419	133.070000
365.499929	135.220000
367.947789	132.670000
370.397071	127.970000
372.841559	127.560000
375.287469	128.440000
377.732729	123.330000
380.175271	123.610000
382.617165	124.190000
385.058412	123.680000
387.496943	122.930000
389.936895	121.820000
392.374134	120.100000
394.808662	116.300000
397.246677	118.340000
399.679915	120.770000
402.114574	127.210000
404.544461	121.680000
406.977833	120.200000
409.406435	121.120000
411.834395	126.540000
414.263777	123.260000
416.688393	119.990000
419.114431	117.120000
421.539828	121.790000
423.964585	120.280000
426.384584	116.580000
428.806003	123.310000
431.224727	122.900000
433.644871	122.470000
436.062320	116.390000
438.481189	118.530000
440.897365	123.520000
443.308793	113.190000
445.723698	113.400000
448.135914	115.810000
450.547495	113.400000
452.958442	110.950000
455.366703	109.710000
457.774331	102.620000
460.181327	105.450000
462.587692	108.670000
464.991374	107.280000
467.394426	112.540000
469.796848	106.890000
472.198640	111.600000
474.597754	113.590000
476.998288	109.570000
479.398193	113.640000
481.793376	121.060000
484.192025	126.240000
486.585953	133.770000
488.979256	138.840000
491.371934	144.350000
493.763986	147.690000
496.157456	155.240000
498.546214	176.490000
500.932306	197.930000
503.319818	239.330000
505.706707	303.410000
508.090932	417.820000
510.476575	632.620000
512.859557	1073.320000
515.239878	1999.000000
517.621618	3680.760000
520.000699	5377.250000
522.381198	5255.180000
524.759041	3459.500000
527.134227	1774.490000
529.508797	979.380000
531.884784	643.880000
534.258119	477.230000
536.632871	379.250000
539.002937	314.250000
541.372389	268.340000
543.743258	235.710000
546.109446	218.800000
548.477053	183.160000
550.842015	173.760000
553.206363	155.780000
555.570098	149.190000
557.935251	143.160000
560.295732	135.530000
562.657631	125.570000
565.016889	115.990000
567.373509	121.480000
569.733575	114.220000
572.086949	106.670000
574.443768	103.840000
576.797952	105.900000
579.151527	99.120000
581.504495	94.160000
583.854830	96.080000
586.206583	96.320000
588.551659	89.470000
590.902198	90.130000
593.246065	93.330000
595.595393	91.360000
597.940072	91.470000
600.282127	94.020000
602.625599	95.910000
604.966448	89.160000
607.306694	89.350000
609.644320	96.380000
611.985381	93.090000
614.321805	88.540000
616.659645	92.650000
618.994868	94.270000
621.327475	91.990000
623.661498	88.840000
625.992907	88.140000
628.323718	88.020000
630.653931	84.770000
632.983547	82.840000
635.308539	81.100000
637.638973	84.660000
639.964786	82.410000
642.287991	86.250000
644.612613	75.870000
646.934629	76.310000
649.256051	76.160000
651.574870	75.350000
653.895106	70.590000
656.214748	82.410000
658.531789	79.450000
660.848238	80.270000
663.162089	74.470000
665.477356	73.530000
667.790026	79.370000
670.104111	73.480000
672.413596	83.990000
674.724497	78.150000
677.032805	73.990000
679.340525	73.470000
681.649659	73.210000
683.954201	70.500000
686.258157	68.380000
688.561527	66.450000
690.866311	70.050000
693.166508	67.970000
695.468121	57.430000
697.769148	64.500000
700.065594	57.810000
702.363455	64.600000
704.660732	58.600000
706.957426	63.370000
709.249544	55.120000
711.545073	55.040000
713.836028	59.320000
716.128398	61.120000
718.418193	60.100000
720.707407	65.450000
722.996042	65.340000
725.282104	58.380000
727.569581	56.370000
729.854486	62.900000
732.138814	63.860000
734.420573	55.350000
736.703746	61.610000
738.986342	57.440000
741.264382	63.030000
743.543837	56.170000
745.822715	56.280000
748.101019	60.610000
750.374773	63.200000
752.649940	62.230000
754.924534	55.360000
757.196569	57.860000
759.470017	60.480000
761.740907	63.540000
764.009241	57.610000
766.278988	58.280000
768.546180	63.260000
770.812803	62.590000
773.078855	59.700000
775.342356	60.380000
777.607270	62.420000
779.871614	59.780000
782.131429	66.480000
784.392656	67.620000
786.653316	63.530000
788.911430	62.940000
791.166999	68.460000
793.425959	65.800000
795.678419	65.860000
797.936247	66.280000
800.189556	68.250000
802.440325	66.790000
804.692506	71.710000
806.942148	67.240000
809.193202	68.070000
811.439746	59.860000
813.687701	71.150000
815.933122	68.980000
818.179954	63.920000
820.426225	71.040000
822.667991	67.000000
824.913141	65.900000
827.151818	63.990000
829.393877	66.980000
831.631438	69.960000
833.870411	65.300000
836.106857	69.410000
838.344714	62.980000
840.580046	64.400000
842.812855	65.930000
845.047074	65.500000
847.278772	70.320000
849.509915	60.830000
851.740503	65.990000
853.970537	59.390000
856.200017	64.890000
858.425015	65.780000
860.653388	61.190000
862.877281	59.410000
865.102586	61.130000
867.323415	63.220000
869.547616	61.430000
871.767344	63.560000
873.988482	66.580000
876.209070	67.990000
878.427149	61.260000
880.646637	66.000000
882.861659	63.990000
885.076133	62.230000
887.290060	67.500000
889.503440	63.100000
891.716272	68.860000
893.928558	63.420000
896.138341	71.160000
898.347579	62.780000
900.556272	67.110000
902.762465	68.090000
904.970069	63.740000
907.175174	69.930000
909.379736	63.840000
911.581803	69.420000
913.785279	71.950000
915.986261	74.010000
918.186701	69.420000
920.388550	73.130000
922.584008	76.580000
924.782825	86.400000
926.977203	89.920000
929.174939	102.120000
931.368239	118.040000
933.562948	138.550000
935.755171	153.840000
937.946855	175.410000
940.138002	193.150000
942.326666	202.100000
944.514794	200.960000
946.700441	200.840000
948.889440	198.490000
951.074016	192.230000
953.258057	192.740000
955.445448	198.100000
957.624535	201.650000
959.806973	199.360000
961.988877	200.960000
964.168306	202.870000
966.345263	203.340000
968.523628	207.900000
970.703400	211.890000
972.876823	216.380000
975.053592	209.410000
977.225954	212.240000
979.399724	210.300000
981.569090	207.030000
983.741800	203.060000
985.912045	197.770000
988.081760	181.740000
990.250948	168.780000
992.415738	152.870000
994.583869	132.350000
996.747605	123.830000
998.912749	121.430000
1001.075433	116.780000
1003.237592	110.130000
1005.397294	107.660000
1007.556471	105.700000
1009.717055	97.720000
1011.875184	95.360000
1014.032790	92.060000
1016.189872	85.880000
1018.346430	86.580000
1020.498609	86.980000
1022.652195	79.470000
1024.805259	78.190000
1026.955874	80.800000
1029.107896	79.020000
1031.255544	70.000000
1033.406524	68.510000
1035.553133	68.530000
1037.699223	69.140000
1039.844795	73.660000
1041.991772	65.570000
1044.132460	63.970000
1046.276478	63.200000
1048.418055	63.830000
1050.559115	63.620000
1052.701581	65.770000
1054.837766	64.120000
1056.977278	65.510000
1059.112435	63.280000
1061.250916	64.040000
1063.385043	61.560000
1065.518657	70.400000
1067.653675	59.040000
1069.784345	67.270000
1071.916419	61.610000
1074.046064	61.240000
1076.175197	64.110000
1078.303818	66.450000
1080.431928	59.310000
1082.557612	60.930000
1084.682786	57.320000
1086.809364	58.910000
1088.931604	56.920000
1091.055249	58.890000
1093.174559	58.900000
1095.299098	50.140000
1097.417393	60.170000
1099.537092	57.530000
1101.654372	58.250000
1103.771145	52.390000
1105.887413	55.650000
1108.001264	55.100000
1110.116520	50.690000
1112.227452	56.840000
1114.341697	57.860000
1116.451621	51.670000
1118.562949	51.690000
1120.673772	50.380000
1122.780279	55.080000
1124.890095	48.400000
1126.995598	47.210000
1129.102503	45.860000
1131.203193	47.770000
1133.309095	49.400000
1135.410688	47.830000
1137.513684	46.810000
1139.616179	54.050000
1141.712467	46.720000
1143.813962	48.900000
1145.911155	47.210000
1148.007850	46.890000
1150.104046	50.040000
1152.199744	52.780000
1154.294945	46.650000
1156.387749	48.020000
1158.481955	45.550000
1160.569970	47.340000
1162.663184	49.020000
1164.750209	41.410000
1166.840533	45.380000
1168.926569	42.590000
1171.015904	47.190000
1173.099057	46.190000
1175.183612	42.540000
1177.269569	42.590000
1179.351244	47.770000
1181.434320	47.010000
1183.515011	48.120000
1185.595211	44.810000
1187.674919	45.930000
1189.754136	44.450000
1191.830971	47.560000
1193.905424	49.530000
1195.983170	44.080000
1198.056646	46.030000
1200.131522	46.840000
1202.202131	47.380000
1204.274141	42.730000
1206.343775	48.290000
1208.414810	44.880000
1210.485358	41.240000
1212.551644	44.440000
1214.619331	42.390000
1216.684646	41.700000
1218.751361	40.190000
1220.813820	41.190000
1222.879564	39.740000
1224.941054	43.100000
1227.003945	42.350000
1229.064468	41.210000
1231.124507	44.160000
1233.184063	41.700000
1235.241255	40.210000
1237.297965	39.350000
1239.352311	43.480000
1241.409939	44.010000
1243.465203	41.190000
1245.516228	38.050000
1247.568652	40.240000
1249.620596	37.820000
1251.670182	37.910000
1253.719289	41.320000
1255.767917	46.950000
1257.816067	41.830000
1259.863739	42.010000
1261.907180	36.240000
1263.953897	35.450000
1265.998260	37.960000
1268.042147	40.620000
1270.083682	46.090000
1272.122868	44.780000
1274.165327	39.270000
1276.203563	40.300000
1278.243198	39.610000
1280.282358	32.100000
1282.317299	40.630000
1284.353639	42.540000
1286.387635	43.880000
1288.423028	40.360000
1290.454209	35.350000
1292.486787	44.910000
1294.518894	45.830000
1296.548660	44.360000
1298.579823	40.600000
1300.606780	43.010000
1302.635134	41.600000
1304.659283	39.790000
1306.686698	38.310000
1308.709910	38.720000
1310.734520	39.190000
1312.756796	39.120000
1314.780468	44.340000
1316.801808	39.120000
1318.822681	40.290000
1320.843086	45.770000
1322.859298	39.450000
1324.876907	40.710000
1326.892188	40.710000
1328.910728	40.330000
1330.925079	41.740000
1332.937103	38.610000
1334.952386	43.650000
1336.963483	39.370000
1338.975977	37.010000
1340.984288	41.050000
1342.995854	39.190000
1345.001382	39.700000
1347.010165	40.980000
1349.014770	37.050000
1351.022629	38.540000
1353.030026	43.080000
1355.031392	43.680000
1357.034154	39.630000
1359.036457	37.040000
1361.038300	39.490000
1363.039683	43.410000
1365.038753	43.650000
1367.037364	42.530000
1369.035516	38.100000
1371.033211	31.920000
1373.026743	39.220000
1375.021670	39.250000
1377.016141	37.100000
1379.010155	43.340000
1381.001862	40.110000
1382.993113	32.120000
1384.982059	36.700000
1386.972401	42.520000
1388.962287	34.250000
1390.949869	43.230000
1392.936998	40.360000
1394.921825	42.540000
1396.908047	38.320000
1398.891968	33.890000
1400.875437	32.910000
1402.858454	40.960000
1404.839173	34.830000
1406.821286	40.420000
1408.801103	40.910000
1410.780468	39.140000
1412.755695	35.910000
1414.734160	40.250000
1416.710332	37.370000
1418.686054	37.290000
1420.661328	41.620000
1422.634310	38.620000
1424.606844	39.380000
1426.578930	39.880000
1428.550569	39.640000
1430.518079	42.450000
1432.490663	40.830000
1434.455441	32.290000
1436.425292	40.920000
1438.391019	40.630000
1440.358138	40.370000
1442.322974	43.690000
1444.283690	38.930000
1446.249474	39.840000
1448.209303	41.960000
1450.170526	40.990000
1452.133140	35.990000
1454.091640	41.690000
1456.049698	39.790000
1458.007314	38.720000
1459.964487	38.290000
1461.919385	44.960000
1463.875676	39.050000
1465.829692	39.290000
1467.783267	39.790000
1469.734570	36.980000
1471.687265	38.940000
1473.637689	39.470000
1475.587674	44.510000
1477.537220	41.890000
1479.484497	46.210000
1481.429506	37.080000
1483.375908	41.500000
1485.321872	40.970000
1487.267399	34.940000
1489.210660	36.730000
1491.153486	36.150000
1493.094047	35.560000
1495.036001	35.050000
1496.975692	32.630000
1498.914948	38.660000
1500.853770	36.930000
1502.790332	40.640000
1504.728285	42.890000
1506.663979	37.910000
1508.599240	37.680000
1510.532244	35.830000
1512.464817	40.730000
1514.396956	37.550000
1516.328664	43.300000
1518.258119	36.710000
1520.188964	35.430000
1522.119377	39.600000
1524.045718	36.110000
1525.973449	37.990000
1527.898931	35.440000
1529.823983	37.860000
1531.748606	41.250000
1533.672799	35.660000
1535.594746	39.840000
1537.518083	33.160000
1539.439173	41.120000
1541.358019	37.160000
1543.278255	35.680000
1545.196248	41.090000
1547.113813	36.310000
1549.029138	34.600000
1550.945852	36.720000
1552.858511	44.760000
1554.774373	38.860000
1556.687997	42.650000
1558.599382	44.930000
1560.512157	39.280000
1562.420882	37.140000
1564.330996	37.980000
1566.240687	35.680000
1568.149955	34.640000
1570.056989	43.620000
1571.961790	37.350000
1573.867979	42.980000
1575.771938	34.580000
1577.675475	37.380000
1579.578592	37.870000
1581.479479	39.760000
1583.381755	40.620000
1585.281803	40.540000
1587.183238	38.030000
1589.080640	39.110000
1590.977623	35.220000
1592.874188	39.070000
1594.772140	36.030000
1596.664258	34.220000
1598.559570	37.390000
1600.454464	36.130000
1602.347136	38.660000
1604.239391	39.350000
1606.129427	42.670000
1608.019047	34.380000
1609.908252	37.140000
1611.797041	38.320000
1613.683614	33.350000
1615.571574	36.660000
1617.455517	44.040000
1619.340847	32.590000
1621.225764	35.490000
1623.108467	38.100000
1624.992557	42.020000
1626.872635	35.390000
1628.754101	38.750000
1630.633356	35.290000
1632.513997	42.700000
1634.388834	38.100000
1636.268652	41.820000
1638.144466	36.560000
1640.019869	37.140000
1641.896658	37.640000
1643.767651	44.780000
1645.641825	37.240000
1647.512000	35.840000
1649.385356	42.300000
1651.256509	36.470000
1653.125461	36.990000
1654.995797	36.790000
1656.862141	37.500000
1658.729870	36.900000
1660.595400	37.540000
1662.462316	37.690000
1664.325242	35.880000
1666.189555	43.310000
1668.051671	39.240000
1669.913382	36.970000
1671.776479	39.890000
1673.637380	37.890000
1675.496089	40.650000
1677.354394	36.910000
1679.214083	36.760000
1681.068006	39.520000
1682.925102	33.780000
1684.781794	39.360000
1686.634511	39.640000
1688.490399	38.740000
1690.342313	43.280000
1692.193826	44.850000
1694.044938	33.610000
1695.895649	39.030000
1697.745960	38.950000
1699.594087	38.630000
1701.443598	39.130000
1703.287359	40.010000
1705.136071	40.660000
1706.979036	39.630000
1708.825168	36.430000
1710.667337	41.730000
1712.512672	35.020000
1714.352266	34.950000
1716.193244	36.460000
1718.035605	40.640000
1719.874010	37.950000
1721.713798	41.210000
1723.551410	33.030000
1725.388628	37.940000
1727.223672	37.500000
1729.060099	39.580000
1730.894353	36.440000
1732.728214	38.570000
1734.561680	33.590000
1736.391200	39.310000
1738.223880	37.020000
1740.052615	35.840000
1741.884507	39.240000
1743.712457	41.180000
1745.540015	33.630000
1747.367182	36.840000
1749.193957	39.800000
1751.020340	40.150000
1752.842787	35.330000
1754.668389	40.700000
1756.490056	36.330000
1758.313104	34.600000
1760.133992	38.960000
1761.954491	35.510000
1763.776370	40.430000
1765.592550	35.930000
1767.411883	36.510000
1769.227287	39.710000
1771.045843	35.740000
1772.860473	34.270000
1774.674716	34.430000
1776.488573	36.410000
1778.302043	33.190000
1780.113360	41.470000
1781.926057	34.910000
1783.738369	38.120000
1785.546762	38.430000
1787.356537	35.200000
1789.162397	38.780000
1790.971402	42.760000
1792.776494	29.610000
1794.582967	36.500000
1796.389056	35.380000
1798.191234	39.970000
1799.996557	39.780000
1801.797971	34.240000
1803.600765	37.850000
1805.399653	41.230000
1807.199922	39.340000
1808.999809	38.200000
1810.797554	41.130000
1812.594919	39.400000
1814.391903	37.700000
1816.188508	30.770000
1817.982973	32.360000
1819.778817	34.120000
1821.569006	32.140000
1823.364092	32.270000
1825.153525	32.980000
1826.946096	37.810000
1828.736531	37.900000
1830.524832	37.230000
1832.316267	34.610000
1834.102058	35.160000
1835.889228	38.100000
1837.674266	34.700000
1839.462438	39.180000
1841.246724	33.700000
1843.028880	36.180000
1844.812416	40.370000
1846.593823	33.440000
1848.376609	31.950000
1850.155514	31.700000
1851.935798	33.860000
1853.713957	37.020000
1855.493494	37.020000
1857.270905	37.800000
1859.046194	37.020000
1860.822860	33.710000
1862.597404	34.090000
1864.373325	31.460000
1866.143627	37.290000
1867.917056	37.450000
1869.688365	34.830000
1871.459303	37.480000
1873.231619	37.120000
1874.998321	39.570000
1876.768148	35.170000
1878.534112	40.420000
1880.303200	36.060000
1882.068426	28.500000
1883.833284	32.850000
1885.599519	34.760000
1887.361895	36.690000
1889.123903	36.890000
1890.885545	35.660000
1892.646819	36.490000
1894.407727	34.700000
1896.168268	37.220000
1897.926699	42.280000
1899.684764	34.070000
1901.440722	36.350000
1903.198056	34.880000
1904.955025	33.740000
1906.709887	40.000000
1908.462645	34.190000
1910.215038	33.970000
1911.968808	34.590000
1913.720474	39.240000
1915.470038	36.070000
1917.220977	37.880000
1918.971553	38.150000
1920.718291	35.570000
1922.466404	35.030000
1924.212419	32.840000
1925.959808	31.450000
1927.705100	34.360000
1929.448294	34.040000
1931.192863	38.180000
1932.935336	33.250000
1934.677450	33.540000
1936.419203	36.030000
1938.160596	36.110000
1939.899896	32.950000
1941.638837	33.880000
1943.377419	38.030000
1945.113910	37.630000
1946.850043	38.430000
1948.587550	39.230000
1950.321235	36.430000
1952.056295	34.710000
1953.789266	39.440000
1955.521881	33.190000
1957.254140	35.530000
1958.986042	37.040000
1960.715858	35.870000
1962.443589	37.170000
1964.172695	37.340000
1965.901445	36.490000
1967.628113	36.720000
1969.354426	32.790000
1971.082112	38.950000
1972.804262	32.600000
1974.529513	38.290000
1976.250957	30.440000
1977.975501	36.870000
1979.697966	36.850000
1981.416628	35.160000
1983.138388	32.200000
1984.856346	37.950000
1986.575677	32.960000
1988.291209	33.480000
1990.011561	31.960000
1991.728115	33.490000
1993.440872	35.900000
1995.156725	34.600000
1996.870506	35.580000
1998.583937	34.360000
2000.295297	40.600000
2002.008029	38.080000
2003.716971	34.720000
2005.429005	40.790000
2007.135530	39.670000
2008.845148	36.700000
2010.552698	33.980000
2012.259901	37.340000
2013.965038	41.030000
2015.669829	37.710000
2017.375991	40.300000
2019.078371	37.380000
2020.782122	36.390000
2022.483811	37.300000
2024.185154	36.660000
2025.886153	36.640000
2027.585090	35.770000
2029.285399	42.270000
2030.981932	37.060000
2032.679837	41.440000
2034.375684	34.770000
2036.074616	38.520000
2037.768062	41.620000
2039.462879	36.080000
2041.157354	32.040000
2042.848060	40.230000
2044.541850	40.330000
2046.231873	35.720000
2047.923267	37.570000
2049.612608	35.470000
2051.303319	33.030000
2052.990267	34.230000
2054.676876	37.100000
2056.364854	34.430000
2058.049073	34.200000
2059.734663	39.560000
2061.419912	37.180000
2063.103114	37.070000
2064.787686	42.410000
2066.466794	35.890000
2068.150689	43.800000
2069.829122	31.490000
2071.510633	30.220000
2073.188392	35.940000
2074.865815	35.100000
2076.544607	34.830000
2078.221357	33.620000
2079.896064	29.930000
2081.572142	33.810000
2083.246178	34.400000
2084.919880	36.000000
2086.593246	44.240000
2088.264573	37.490000
2089.935566	34.200000
2091.606225	33.050000
2093.276550	30.420000
2094.946541	36.050000
2096.614496	35.700000
2098.282117	39.110000
2099.947705	36.650000
2101.614661	35.550000
2103.279584	37.110000
2104.944175	36.130000
2106.606734	40.500000
2108.270661	40.050000
2109.932557	36.100000
2111.594123	32.190000
2113.255357	33.590000
2114.914563	37.100000
2116.573438	31.330000
2118.231984	38.560000
2119.890199	35.220000
2121.544692	33.410000
2123.202249	42.470000
2124.859476	40.470000
2126.512983	34.260000
2128.167857	35.810000
2129.819012	37.750000
2131.473230	38.810000
2133.123730	37.990000
2134.775598	41.190000
2136.422057	34.100000
2138.073271	37.010000
2139.720771	33.940000
2141.369638	32.900000
2143.016486	33.670000
2144.663009	37.780000
2146.309206	38.730000
2147.951695	36.290000
2149.597241	34.380000
2151.239082	33.700000
2152.883979	35.320000
2154.525170	34.570000
2156.166038	34.480000
2157.806583	37.760000
2159.445115	38.570000
2161.085013	34.870000
2162.721211	33.970000
2164.358775	33.120000
2165.996017	40.460000
2167.631249	36.730000
2169.266159	33.420000
2170.900748	38.340000
2172.535016	36.130000
2174.165590	35.740000
2175.799216	41.310000
2177.429150	37.160000
2179.060449	31.120000
2180.689743	36.240000
2182.318718	32.310000
2183.947373	35.420000
2185.575709	31.660000
2187.202043	37.170000
2188.828057	36.890000
2190.452071	36.190000
2192.077450	34.680000
2193.700828	33.260000
2195.325571	34.820000
2196.946633	36.850000
2198.567378	34.230000
2200.189487	36.130000
2201.809599	36.870000
2203.427715	28.780000
2205.045515	37.120000
2206.663000	38.600000
2208.280169	34.620000
2209.897023	29.300000
2211.513561	36.150000
2213.128107	30.370000
2214.740660	32.460000
2216.354577	30.690000
2217.966503	34.110000
2219.579792	33.280000
2221.191091	37.300000
2222.800400	33.700000
2224.411073	32.570000
2226.019757	33.850000
2227.628128	35.590000
2229.234513	39.290000
2230.842260	33.710000
2232.448022	41.910000
2234.053472	32.250000
2235.656937	28.730000
2237.261765	29.080000
2238.864609	30.250000
2240.465470	39.450000
2242.067694	36.630000
2243.667936	35.160000
2245.269540	34.500000
2246.867491	41.230000
2248.466805	29.810000
2250.064139	30.380000
2251.661165	36.220000
2253.259553	31.380000
2254.854292	34.560000
2256.447054	39.430000
2258.041179	39.430000
2259.636665	31.370000
2261.228506	32.230000
2262.820041	30.390000
2264.412938	28.440000
2266.000525	33.780000
2267.592808	36.920000
2269.179785	36.260000
2270.769789	35.800000
2272.354489	34.550000
2273.943883	35.800000
2275.527974	38.840000
2277.113427	31.330000
2278.696911	33.910000
2280.283420	31.330000
2281.866296	31.800000
2283.448869	35.210000
2285.031138	33.720000
2286.609777	36.450000
2288.191441	35.030000
2289.769476	30.380000
2291.350534	29.970000
2292.927965	31.750000
2294.503433	33.530000
2296.081923	36.380000
2297.656789	33.040000
2299.231354	31.230000
2300.805618	35.670000
2302.379583	36.730000
2303.953246	34.840000
2305.526610	39.000000
2307.096355	26.730000
2308.665801	34.260000
2310.238265	36.320000
2311.805455	32.540000
2313.375663	33.710000
2314.942256	36.430000
2316.510209	35.330000
2318.076206	33.060000
2319.641906	34.590000
2321.207308	33.030000
2322.770757	32.140000
2324.335565	32.860000
2325.896765	37.980000
2327.460979	45.460000
2329.019931	40.930000
2330.581897	38.450000
2332.141913	37.510000
2333.701633	38.320000
2335.259405	31.090000
2336.816881	34.230000
2338.374063	36.950000
2339.929297	32.630000
2341.484238	32.300000
2343.038884	35.520000
2344.593237	28.380000
2346.147296	32.570000
2347.701062	34.730000
2349.252883	31.310000
2350.802762	32.230000
2352.355648	31.330000
2353.903291	29.040000
2355.453943	30.780000
2357.001003	31.380000
2358.549421	37.470000
2360.097548	31.110000
2361.642086	32.140000
2363.187982	31.250000
2364.731940	36.510000
2366.277254	26.230000
2367.818985	32.210000
2369.362072	33.280000
2370.903223	29.960000
2372.444085	31.150000
2373.984658	42.820000
2375.524942	32.510000
2377.064937	28.570000
2378.601354	28.830000
2380.140772	34.030000
2381.676612	31.770000
2383.213810	33.330000
2384.747432	28.260000
2386.284054	33.880000
2387.818746	31.430000
2389.351508	34.750000
2390.883983	29.730000
2392.414530	37.970000
2393.948075	28.870000
2395.476409	31.060000
2397.006099	31.020000
2398.535504	34.360000
2400.064624	36.710000
2401.593458	33.240000
2403.117088	32.670000
2404.645353	30.750000
2406.168416	32.160000
2407.696112	32.660000
2409.216969	35.470000
2410.742458	30.260000
2412.264388	34.870000
2413.787672	38.220000
2415.309036	33.140000
2416.828480	31.740000
2418.349279	36.290000
2419.868159	36.710000
2421.386758	32.660000
2422.903439	33.450000
2424.421474	43.170000
2425.939228	31.540000
2427.453430	32.920000
2428.967353	33.310000
2430.480995	29.530000
2431.995992	37.010000
2433.507440	38.330000
2435.020242	30.340000
2436.531132	36.810000
2438.041743	32.760000
2439.550442	30.300000
2441.062127	33.630000
2442.570269	31.540000
2444.078133	30.800000
2445.585718	29.250000
2447.089764	34.370000
2448.596794	30.700000
2450.101916	29.790000
2451.606761	33.010000
2453.109699	30.550000
2454.612361	28.980000
2456.114746	34.480000
2457.615226	33.560000
2459.117059	31.260000
2460.616987	32.210000
2462.116640	30.760000
2463.616018	31.670000
2465.113493	27.310000
2466.609066	31.920000
2468.107619	27.070000
2469.602644	33.680000
2471.099021	32.810000
2472.591872	35.880000
2474.086076	29.620000
2475.580006	32.540000
2477.070412	37.580000
2478.563796	30.720000
2480.055282	26.830000
2481.544871	35.340000
2483.034188	31.380000
2484.521609	32.060000
2486.012006	38.250000
2487.498885	28.550000
2488.987115	33.810000
2490.471828	28.330000
2491.956272	32.560000
2493.442066	36.890000
2494.925969	32.360000
2496.411222	24.030000
2497.891342	33.840000
2499.374435	35.700000
2500.855637	30.500000
2502.336570	33.150000
2503.815614	26.190000
2505.294389	28.990000
2506.772896	33.820000
2508.251135	32.730000
2509.729105	29.860000
2511.203570	30.900000
2512.681005	26.590000
2514.154936	27.900000
2515.630217	28.740000
2517.105231	28.970000
2518.576744	32.050000
2520.049608	29.710000
2521.520589	29.670000
2522.992920	33.800000
2524.460137	25.770000
2525.930321	34.780000
2527.398624	34.530000
2528.866662	30.490000
2530.334435	30.730000
2531.801943	33.280000
2533.269186	31.970000
2534.732937	33.570000
2536.198038	36.970000
2537.661262	31.190000
2539.125835	33.110000
2540.586920	35.140000
2542.049354	33.750000
2543.511525	28.940000
2544.970210	30.820000
2546.433466	27.640000
2547.891626	32.300000
2549.351136	27.620000
2550.805551	32.370000
2552.264537	28.230000
2553.721651	32.500000
2555.176893	30.030000
2556.631875	34.620000
2558.084988	36.230000
2559.539448	27.670000
2560.992040	26.680000
2562.444372	31.510000
2563.894837	32.430000
2565.348257	33.740000
2566.796595	32.100000
2568.247888	32.070000
2569.697316	25.380000
2571.143271	28.820000
2572.592181	27.850000
2574.037621	29.980000
2575.484408	32.050000
2576.929332	31.960000
2578.373999	29.850000
2579.820013	33.760000
2581.262561	37.600000
2582.706456	31.350000
2584.146885	28.850000
2585.588663	32.240000
2587.028581	32.520000
2588.469846	30.850000
2589.907649	32.990000
2591.348402	27.360000
2592.784093	33.120000
2594.222732	28.780000
2595.659515	26.760000
2597.094442	27.440000
2598.532316	31.490000
2599.965133	25.120000
2601.399297	31.680000
2602.831607	32.820000
2604.265263	32.740000
2605.697066	35.620000
2607.128615	33.470000
2608.559912	27.610000
2609.989356	31.110000
2611.418548	32.050000
2612.845890	31.680000
2614.274577	30.420000
2615.703013	30.270000
2617.128001	33.060000
2618.554336	35.090000
2619.978822	30.280000
2621.404654	29.030000
2622.827042	33.420000
2624.250776	31.250000
2625.672663	34.970000
2627.094300	26.340000
2628.514093	30.180000
2629.935231	30.450000
2631.356119	27.320000
2632.773568	27.920000
2634.193958	27.250000
2635.610910	31.700000
2637.027613	28.000000
2638.444068	33.630000
2639.860275	30.010000
2641.276234	29.570000
2642.690352	30.880000
2644.104222	30.490000
2645.516253	28.070000
2646.929629	27.300000
2648.339575	30.400000
2649.752457	30.550000
2651.161910	29.990000
2652.571117	28.250000
2653.978488	24.990000
2655.388793	29.150000
2656.797263	28.340000
2658.203897	29.760000
2659.610286	27.130000
2661.014841	27.740000
2662.420740	26.920000
2663.824806	26.120000
2665.228627	29.260000
2666.632204	30.280000
2668.033950	29.280000
2669.437039	26.880000
2670.836710	29.930000
2672.237725	30.570000
2673.635324	30.750000
2675.035852	31.020000
2676.432966	28.860000
2677.831423	29.020000
2679.228053	34.290000
2680.624440	27.780000
2682.020585	28.670000
2683.414904	30.390000
2684.810566	35.100000
2686.202819	31.280000
2687.596414	29.670000
2688.988185	32.970000
2690.381299	26.620000
2691.772589	30.380000
2693.162056	28.040000
2694.551283	32.550000
2695.940271	27.380000
2697.330600	31.080000
2698.715946	30.360000
2700.104215	31.160000
2701.490664	29.010000
2702.876874	29.510000
2704.262845	29.270000
2705.645418	29.030000
2707.029333	25.270000
2708.413010	31.270000
2709.796448	27.690000
2711.176491	28.800000
2712.557876	29.470000
2713.937446	30.060000
2715.318356	33.480000
2716.697452	33.090000
2718.074734	29.640000
2719.453357	24.030000
2720.830166	26.680000
2722.206740	31.250000
2723.583078	34.970000
2724.957604	29.070000
2726.333471	35.900000
2727.705952	31.840000
2729.081348	27.390000
2730.451784	27.000000
2731.823561	28.930000
2733.195103	28.730000
2734.564837	26.470000
2735.935911	32.600000
2737.305178	29.180000
2738.674211	26.760000
2740.041438	29.740000
2741.408431	26.930000
2742.775192	27.200000
2744.141720	34.390000
2745.506444	24.140000
2746.870935	31.280000
2748.235195	25.320000
2749.599222	28.910000
2750.963018	26.630000
2752.323440	27.810000
2753.686772	27.320000
2755.045162	27.310000
2756.406462	30.610000
2757.764392	28.890000
2759.125230	21.880000
2760.484268	32.320000
2761.839939	29.010000
2763.198517	30.660000
2764.553728	24.530000
2765.908710	28.030000
2767.261895	32.730000
2768.617987	25.990000
2769.970715	31.460000
2771.323215	29.390000
2772.675486	32.460000
2774.029095	27.790000
2775.379344	25.350000
2776.727798	27.100000
2778.079157	25.350000
2779.427158	25.310000
2780.776496	30.570000
2782.124042	26.190000
2783.471362	27.130000
2784.818455	29.360000
2786.163756	29.580000
2787.508832	26.150000
2788.853682	30.050000
2790.198306	26.750000
2791.539578	28.360000
2792.882187	21.660000
2794.224572	21.970000
2795.566731	29.840000
2796.905541	29.610000
2798.247251	25.320000
2799.585612	25.870000
2800.925311	27.840000
2802.263225	33.030000
2803.599353	25.330000
2804.935259	26.440000
2806.272502	31.240000
2807.607961	27.140000
2808.943197	29.980000
2810.276650	34.770000
2811.611440	25.720000
2812.942890	29.520000
2814.277235	27.850000
2815.606682	15.850000
2816.937465	28.020000
2818.268028	27.950000
2819.596811	24.970000
2820.926930	26.990000
2822.255271	26.610000
2823.583391	21.240000
2824.909733	23.800000
2826.237412	30.850000
2827.561757	23.470000
2828.887439	24.570000
2830.211345	26.770000
2831.535031	21.530000
2832.860053	28.300000
2834.181746	29.080000
2835.503220	30.050000
2836.824475	31.770000
2838.145511	23.320000
2839.464774	26.250000
2840.785373	27.700000
2842.104200	25.380000
2843.422810	20.960000
2844.739648	32.790000
2846.056269	27.340000
2847.372673	24.800000
2848.687307	31.320000
2850.003277	26.570000
2851.315926	26.740000
2852.629910	24.650000
2853.943678	26.990000
2855.257229	25.440000
2856.569014	26.250000
2857.879032	24.090000
2859.190385	26.420000
2860.498423	25.820000
2861.807795	25.990000
2863.116952	27.390000
2864.425895	28.620000
2865.733073	28.130000
2867.038489	20.200000
2868.345238	22.620000
2869.650226	28.930000
2870.954999	21.580000
2872.258012	26.310000
2873.563905	23.750000
2874.864944	26.680000
2876.167317	31.660000
2877.467930	30.950000
2878.769877	28.550000
2880.071610	26.380000
2881.370040	23.110000
2882.669803	23.460000
2883.967809	25.160000
2885.265603	27.240000
2886.561641	23.820000
2887.859012	26.280000
2889.154627	26.270000
2890.450031	28.860000
2891.745224	28.230000
2893.037120	22.780000
2894.331892	28.020000
2895.623367	25.590000
2896.916175	26.200000
2898.208773	27.920000
2899.498077	23.740000
2900.788713	29.350000
2902.077598	22.780000
2903.367815	24.820000
2904.654741	26.030000
2905.942999	25.780000
2907.229508	28.310000
2908.515808	25.520000
2909.801900	25.860000
2911.086245	27.110000
2912.373460	30.040000
2913.655849	24.050000
2914.939570	27.920000
2916.221545	20.160000
2917.503312	24.970000
2918.783334	25.880000
2920.066227	25.830000
2921.347374	29.150000
2922.625239	25.940000
2923.905973	25.420000
2925.183426	25.200000
2926.460673	24.380000
2927.736178	28.470000
2929.014551	24.290000
2930.288110	27.220000
2931.564536	30.380000
2932.839221	23.800000
2934.112165	21.780000
2935.386441	26.430000
2936.658977	25.450000
2937.931308	22.040000
2939.200367	28.220000
2940.472291	21.120000
2941.742477	25.910000
2943.012459	23.590000
2944.282238	25.380000
2945.550281	25.960000
2946.816587	24.340000
2948.082691	24.370000
2949.350126	25.660000
2950.615825	26.040000
2951.881323	22.470000
2953.146618	22.870000
2954.408648	29.120000
2955.672008	27.330000
2956.935167	24.510000
2958.196594	22.960000
2959.459350	23.810000
2960.720374	25.750000
2961.979668	28.240000
2963.238761	23.790000
2964.497655	24.570000
2965.756348	24.920000
2967.014841	22.330000
2968.271604	24.150000
2969.528169	23.550000
2970.783005	23.570000
2972.039171	25.300000
2973.292082	26.090000
2974.546321	27.130000
2975.800362	26.350000
2977.052677	21.020000
2978.304794	21.480000
2979.555186	25.220000
2980.808433	20.530000
2982.056903	27.120000
2983.308228	25.460000
2984.556303	24.700000
2985.804181	24.280000
2987.051863	22.640000
2988.299347	25.060000
2989.545110	15.880000
2990.790677	22.120000
2992.037571	27.940000
2993.281221	29.340000
2994.526199	19.340000
2995.767933	25.940000
2997.012519	15.470000
2998.255386	22.400000
2999.495012	25.350000
3000.737488	20.160000
3001.976724	19.500000
3003.217288	17.690000
3004.456135	24.910000
3005.694788	27.230000
3006.931725	15.070000
3008.169990	24.570000
3009.406539	24.340000
3010.642895	30.100000
3011.879057	23.210000
3013.113505	26.260000
3014.347760	20.040000
3015.581823	19.240000
3016.814172	23.560000
3018.044810	21.700000
3019.278294	21.760000
3020.510067	25.280000
3021.740129	24.320000
3022.969998	23.000000
3024.198158	23.410000
3025.427645	29.140000
3026.655422	24.210000
3027.883008	24.270000
3029.111920	23.180000
3030.336090	24.540000
3031.563104	26.590000
3032.786893	27.190000
3034.012009	24.160000
3035.235418	26.120000
3036.458637	21.090000
3037.680151	20.890000
3038.904506	23.660000
3040.124126	23.860000
3041.345072	21.260000
3042.565829	20.850000
3043.784882	23.500000
3045.005260	25.040000
3046.222422	23.100000
3047.440910	27.820000
3048.657695	24.920000
3049.874293	22.960000
3051.090702	24.030000
3052.303898	25.880000
3053.519933	17.870000
3054.732755	23.940000
3055.948413	22.120000
3057.159350	20.970000
3058.371611	22.580000
3059.583685	25.790000
3060.795573	24.320000
3062.005764	24.570000
3063.215768	19.620000
3064.425586	22.050000
3065.633708	21.440000
3066.841645	20.850000
3068.047886	20.670000
3069.255452	25.610000
3070.461323	22.595000
3071.667009	19.580000
3072.872511	19.670000
3074.076319	29.640000
3075.281451	29.860000
3076.484890	23.440000
3077.686638	26.650000
3078.888201	22.660000
3080.089581	21.310000
3081.290777	21.610000
3082.490283	25.320000
3083.689606	22.200000
3084.890252	22.400000
3086.089208	23.910000
3087.284970	23.470000
3088.483560	20.450000
3089.678958	20.370000
3090.875678	21.590000
3092.069206	21.470000
3093.265562	18.830000
3094.460231	22.160000
3095.651710	26.010000
3096.847521	24.390000
3098.038637	26.530000
3099.231077	25.400000
3100.420329	26.320000
3101.612406	21.080000
3102.802800	18.830000
3103.990008	19.410000
3105.178538	22.200000
3106.368391	20.890000
3107.555060	23.200000
3108.741548	23.660000
3109.927858	22.510000
3111.115489	21.290000
3112.299938	18.370000
3113.482708	21.710000
3114.668300	23.610000
3115.852213	25.640000
3117.034447	18.400000
3118.216502	17.680000
3119.398379	21.840000
3120.580078	25.170000
3121.760100	25.020000
3122.938445	20.840000
3124.119610	21.290000
3125.297600	22.850000
3126.475413	20.550000
3127.653049	19.910000
3128.829010	21.910000
3130.004795	22.590000
3131.181901	20.320000
3132.357332	17.900000
3133.531090	26.230000
3134.703175	21.980000
3135.876582	22.460000
3137.049812	19.490000
3138.221371	21.470000
3139.394250	22.000000
3140.563962	19.340000
3141.734995	22.030000
3142.904358	22.150000
3144.072050	19.850000
3145.242558	21.900000
3146.408408	25.130000
3147.578566	22.700000
3148.744068	18.560000
3149.909395	23.240000
3151.074549	23.690000
3152.239530	16.090000
3153.405830	23.220000
3154.567478	19.160000
3155.730445	20.780000
3156.893240	21.910000
3158.055862	21.790000
3159.216818	18.620000
3160.377603	20.600000
3161.538215	22.800000
3162.697163	17.140000
3163.855940	19.830000
3165.014544	16.680000
3166.172977	23.270000
3167.331239	21.860000
3168.487838	20.850000
3169.642776	18.770000
3170.799033	18.590000
3171.953629	18.640000
3173.108055	16.090000
3174.260821	21.600000
3175.413416	24.050000
3176.565842	20.250000
3177.718098	22.390000
3178.870183	23.320000
3180.019122	19.510000
3181.170869	18.670000
3182.320957	17.430000
3183.469389	17.290000
3184.617651	21.740000
3185.765745	19.970000
3186.913670	19.310000
3188.059939	25.620000
3189.206040	23.450000
3190.350487	20.880000
3191.494766	21.190000
3192.638877	19.390000
3193.784305	18.390000
3194.926595	21.720000
3196.068718	21.850000
3197.210673	20.350000
3198.352461	15.200000
3199.494082	20.630000
3200.632568	23.670000
3201.772371	21.740000
3202.913491	18.450000
3204.051478	20.370000
3205.187815	21.740000
3206.323986	16.260000
3207.461474	20.170000
3208.597314	22.080000
3209.734471	20.450000
3210.867015	16.400000
3212.003841	19.440000
3213.136055	15.920000
3214.269586	23.340000
3215.402953	24.750000
3216.533192	22.110000
3217.666229	18.280000
3218.796140	19.710000
3219.927367	18.730000
3221.055470	25.300000
3222.186369	15.880000
3223.315624	23.600000
3224.443236	19.720000
3225.567725	24.900000
3226.696490	18.340000
3227.822133	19.700000
3228.947613	19.820000
3230.071452	20.080000
3231.198086	22.210000
3232.320122	25.580000
3233.443474	21.980000
3234.566664	25.270000
3235.689691	15.130000
3236.811080	23.300000
3237.932306	17.830000
3239.051894	19.540000
3240.171321	22.210000
3241.289111	13.330000
3242.409692	20.280000
3243.527160	22.280000
3244.644467	19.000000
3245.761614	23.260000
3246.877124	22.810000
3247.993950	25.150000
3249.107666	16.920000
3250.224171	25.500000
3251.339042	20.980000
3252.450803	18.240000
3253.562406	19.460000
3254.675324	25.600000
3255.788082	20.310000
3256.897734	23.320000
3258.008701	17.580000
3259.119509	19.020000
3260.228685	17.290000
3261.336230	16.940000
3262.445090	21.400000
3263.553792	23.090000
3264.659391	20.610000
3265.766304	21.220000
3266.871588	18.780000
3267.978186	20.990000
3269.081684	21.850000
3270.186496	20.940000
3271.291151	24.370000
3272.392708	20.590000
3273.494108	20.260000
3274.596822	19.730000
3275.699380	18.650000
3276.798841	15.840000
3277.901086	15.800000
3279.000235	23.280000
3280.097760	17.590000
3281.195129	21.940000
3282.295280	15.500000
3283.392339	14.550000
3284.489242	22.030000
3285.585990	17.960000
3286.678179	20.380000
3287.774618	20.760000
3288.869434	14.870000
3289.964096	17.820000
3291.057136	18.230000
3292.150021	17.460000
3293.241286	17.910000
3294.333864	19.200000
3295.424822	20.940000
3296.514160	22.060000
3297.603345	23.720000
3298.693842	19.880000
3299.781256	15.460000
3300.868516	17.720000
3301.957089	17.910000
3303.045509	15.130000
3304.129383	16.110000
3305.217498	15.580000
3306.302531	21.400000
3307.385949	18.720000
3308.470679	21.550000
3309.553793	19.120000
3310.638220	22.230000
3311.719568	19.630000
3312.802228	18.190000
3313.883274	23.080000
3314.964168	16.030000
3316.043450	16.830000
3317.122581	18.970000
3318.203024	18.570000
3319.280392	24.620000
3320.359072	20.030000
3321.436140	18.060000
3322.513059	20.220000
3323.588366	19.760000
3324.663524	21.180000
3325.739993	19.290000
3326.813392	21.610000
3327.886641	15.110000
3328.961202	19.550000
3330.034154	19.130000
3331.105497	20.590000
3332.178151	15.410000
3333.247739	22.960000
3334.318637	20.170000
3335.387928	18.980000
3336.458529	18.670000
3337.527525	16.970000
3338.594914	17.820000
3339.660698	22.320000
3340.730708	22.930000
3341.797655	16.800000
3342.861540	17.090000
3343.928192	22.500000
3344.993241	21.250000
3346.056686	21.200000
3347.119985	19.930000
3348.183137	17.040000
3349.246143	18.570000
3350.309003	19.310000
3351.370261	14.690000
3352.428462	17.000000
3353.490883	17.560000
3354.550249	21.360000
3355.609469	19.120000
3356.669998	16.390000
3357.726019	19.940000
3358.784803	19.770000
3359.839080	19.950000
3360.896121	22.160000
3361.951563	15.000000
3363.008315	16.170000
3364.063468	14.720000
3365.117024	17.680000
3366.168984	18.170000
3367.223705	17.710000
3368.275377	17.510000
3369.326906	21.470000
3370.379743	16.610000
3371.429533	19.590000
3372.480632	17.010000
3373.528684	16.920000
3374.579497	18.390000
3375.627264	20.190000
3376.674889	18.430000
3377.722372	19.430000
3378.768262	16.660000
3379.815460	15.530000
3380.859616	21.900000
3381.906530	17.050000
3382.951852	21.020000
3383.994133	16.340000
3385.036273	18.230000
3386.079722	18.860000
3387.123029	16.060000
3388.164746	17.860000
3389.206323	17.080000
3390.247758	23.870000
3391.287605	16.590000
3392.325863	14.100000
3393.365429	18.660000
3394.404855	19.120000
3395.442693	19.400000
3396.478944	19.430000
3397.515056	19.180000
3398.552475	15.960000
3399.586861	19.110000
3400.622554	16.160000
3401.658108	18.990000
3402.690631	21.100000
3403.725906	18.750000
3404.758152	19.990000
3405.790259	20.990000
3406.820782	17.820000
3407.852612	15.060000
3408.884304	17.500000
3409.912968	20.440000
3410.941495	14.990000
3411.971328	19.240000
3413.001024	20.330000
3414.027694	21.170000
3415.055670	21.980000
3416.080623	12.010000
3417.108325	20.930000
3418.133003	17.740000
3419.158989	13.610000
3420.183394	21.520000
3421.207663	18.460000
3422.230353	19.440000
3423.252907	16.120000
3424.276767	19.450000
3425.297607	19.030000
3426.318311	17.150000
3427.340322	14.720000
3428.359314	20.610000
3429.378170	16.810000
3430.398333	20.230000
3431.415479	19.730000
