Raman shift (cm-1) - Current Spectrum	Intensity (Counts) - Current Spectrum	
102.32	10	
104.89	11	
107.46	10	
110.02	6	
112.59	6	
115.15	7	
117.71	13	
120.27	23	
122.83	38	
125.39	60	
127.95	96	
130.51	155	
133.06	230	
135.61	313	
138.17	410	
140.72	500	
143.27	588	
145.82	663	
148.37	719	
150.91	751	
153.46	769	
156.01	776	
158.55	776	
161.09	770	
163.63	765	
166.18	755	
168.71	751	
171.25	748	
173.79	747	
176.32	746	
178.86	744	
181.39	741	
183.92	736	
186.46	734	
188.99	729	
191.52	725	
194.04	723	
196.57	725	
199.09	725	
201.62	725	
204.14	723	
206.66	717	
209.18	709	
211.7	707	
214.22	704	
216.74	708	
219.25	718	
221.77	723	
224.29	724	
226.8	727	
229.31	735	
231.82	737	
234.33	740	
236.84	746	
239.34	754	
241.85	763	
244.35	769	
246.86	764	
249.36	761	
251.86	764	
254.36	768	
256.86	769	
259.36	772	
261.86	772	
264.35	779	
266.84	781	
269.34	783	
271.83	784	
274.32	783	
276.81	788	
279.3	791	
281.79	792	
284.27	794	
286.76	796	
289.24	797	
291.73	799	
294.21	804	
296.69	804	
299.17	811	
301.65	817	
304.13	824	
306.61	830	
309.08	851	
311.56	894	
314.03	956	
316.5	1017	
318.97	1060	
321.44	1078	
323.91	1081	
326.38	1053	
328.84	1005	
331.31	957	
333.77	916	
336.24	898	
338.7	897	
341.16	891	
343.62	888	
346.08	884	
348.54	881	
350.99	876	
353.45	871	
355.9	876	
358.36	874	
360.81	880	
363.26	886	
365.71	885	
368.16	887	
370.6	882	
373.05	882	
375.49	881	
377.94	878	
380.38	877	
382.82	875	
385.27	880	
387.7	885	
390.14	883	
392.58	885	
395.02	882	
397.45	889	
399.89	888	
402.32	884	
404.75	883	
407.19	886	
409.61	885	
412.04	883	
414.47	884	
416.9	886	
419.32	889	
421.75	894	
424.17	892	
426.59	889	
429.01	889	
431.43	889	
433.85	892	
436.27	895	
438.69	900	
441.1	902	
443.52	907	
445.93	909	
448.34	906	
450.75	900	
453.17	890	
455.57	886	
457.98	883	
460.39	877	
462.8	867	
465.2	856	
467.6	848	
470	839	
472.41	833	
474.81	827	
477.21	827	
479.61	835	
482	836	
484.4	840	
486.79	839	
489.19	830	
491.58	819	
493.97	795	
496.36	771	
498.75	742	
501.14	716	
503.53	685	
505.91	654	
508.3	630	
510.68	607	
513.07	586	
515.45	565	
517.83	546	
520.21	536	
522.59	528	
524.97	523	
527.34	512	
529.72	509	
532.09	505	
534.47	500	
536.84	490	
539.21	477	
541.58	468	
543.95	465	
546.32	461	
548.68	461	
551.05	455	
553.41	454	
555.78	447	
558.14	443	
560.5	439	
562.87	440	
565.22	435	
567.58	432	
569.94	430	
572.29	429	
574.65	428	
577.01	423	
579.36	416	
581.71	414	
584.06	414	
586.41	419	
588.76	417	
591.11	422	
593.45	428	
595.8	430	
598.15	432	
600.49	429	
602.83	419	
605.17	413	
607.51	407	
609.85	404	
612.19	397	
614.53	396	
616.87	393	
619.2	383	
621.53	377	
623.87	372	
626.2	367	
628.53	367	
630.86	369	
633.19	372	
635.52	374	
637.85	375	
640.17	374	
642.5	367	
644.82	367	
647.14	364	
649.46	361	
651.78	359	
654.1	357	
656.42	356	
658.74	354	
661.06	350	
663.37	346	
665.68	342	
668	342	
670.31	337	
672.62	338	
674.93	340	
677.24	337	
679.55	338	
681.86	335	
684.16	334	
686.47	327	
688.77	323	
691.07	321	
693.37	315	
695.68	312	
697.98	310	
700.27	309	
702.57	310	
704.87	311	
707.16	314	
709.46	306	
711.75	307	
714.04	306	
716.34	304	
718.63	302	
720.91	302	
723.2	304	
725.49	307	
727.78	309	
730.06	308	
732.35	308	
734.63	310	
736.91	310	
739.19	316	
741.47	320	
743.75	324	
746.03	330	
748.31	335	
750.58	332	
752.86	332	
755.13	339	
757.4	338	
759.68	340	
761.95	342	
764.22	343	
766.49	343	
768.75	346	
771.02	348	
773.29	345	
775.55	348	
777.81	349	
780.08	356	
782.34	358	
784.6	359	
786.86	357	
789.12	358	
791.37	362	
793.63	365	
795.89	356	
798.14	354	
800.4	343	
802.65	337	
804.9	331	
807.15	325	
809.4	324	
811.65	331	
813.9	334	
816.14	342	
818.39	341	
820.63	345	
822.88	336	
825.12	331	
827.36	328	
829.6	323	
831.84	321	
834.08	321	
836.31	315	
838.55	316	
840.79	314	
843.02	311	
845.25	302	
847.49	301	
849.72	301	
851.95	302	
854.18	302	
856.41	307	
858.63	306	
860.86	300	
863.08	294	
865.31	298	
867.53	300	
869.76	306	
871.97	303	
874.2	309	
876.42	307	
878.63	304	
880.85	305	
883.07	298	
885.28	302	
887.5	314	
889.71	322	
891.92	315	
894.14	310	
896.35	306	
898.55	293	
900.76	288	
902.97	294	
905.18	299	
907.38	311	
909.59	310	
911.79	315	
913.99	312	
916.19	312	
918.39	309	
920.6	307	
922.79	306	
924.99	301	
927.18	301	
929.38	304	
931.58	298	
933.77	298	
935.96	304	
938.15	313	
940.35	323	
942.53	329	
944.72	345	
946.91	345	
949.1	356	
951.28	373	
953.47	369	
955.65	364	
957.83	364	
960.01	364	
962.2	375	
964.38	390	
966.55	414	
968.73	406	
970.91	412	
973.08	413	
975.26	402	
977.43	402	
979.61	407	
981.78	418	
983.95	434	
986.12	472	
988.29	479	
990.46	462	
992.62	470	
994.79	479	
996.95	481	
999.12	494	
1001.28	506	
1003.44	501	
1005.6	496	
1007.76	518	
1009.92	526	
1012.08	527	
1014.24	545	
1016.4	554	
1018.55	545	
1020.71	555	
1022.86	557	
1025.01	547	
1027.16	536	
1029.32	550	
1031.46	604	
1033.61	632	
1035.76	664	
1037.91	668	
1040.05	670	
1042.2	677	
1044.34	673	
1046.48	658	
1048.63	619	
1050.77	620	
1052.91	634	
1055.05	639	
1057.18	631	
1059.32	624	
1061.46	624	
1063.59	630	
1065.73	614	
1067.86	599	
1069.99	597	
1072.12	596	
1074.25	582	
1076.38	574	
1078.51	557	
1080.64	534	
1082.76	542	
1084.89	535	
1087.02	531	
1089.14	546	
1091.26	547	
1093.38	518	
1095.51	515	
1097.62	499	
1099.74	492	
1101.86	471	
1103.98	492	
1106.09	484	
1108.21	499	
1110.32	511	
1112.43	500	
1114.55	490	
1116.66	492	
1118.77	472	
1120.88	469	
1122.99	454	
1125.1	442	
1127.2	445	
1129.31	442	
1131.41	453	
1133.52	456	
1135.62	455	
1137.72	454	
1139.82	437	
1141.92	433	
1144.02	420	
1146.12	412	
1148.22	426	
1150.31	423	
1152.41	433	
1154.5	427	
1156.6	420	
1158.69	415	
1160.78	396	
1162.87	404	
1164.96	391	
1167.05	383	
1169.13	379	
1171.22	380	
1173.31	393	
1175.39	381	
1177.48	381	
1179.56	376	
1181.64	379	
1183.72	389	
1185.8	380	
1187.88	383	
1189.96	372	
1192.04	375	
1194.11	374	
1196.19	359	
1198.26	368	
1200.34	358	
1202.41	366	
1204.48	358	
1206.55	360	
1208.62	369	
1210.69	355	
1212.76	366	
1214.83	358	
1216.89	352	
1218.96	368	
1221.02	362	
1223.09	373	
1225.15	370	
1227.21	372	
1229.27	378	
1231.33	374	
1233.39	377	
1235.45	368	
1237.51	360	
1239.56	363	
1241.62	361	
1243.67	360	
1245.72	362	
1247.78	372	
1249.83	377	
1251.88	376	
1253.93	373	
1255.98	382	
1258.02	381	
1260.07	382	
1262.11	377	
1264.16	380	
1266.21	391	
1268.25	396	
1270.29	398	
1272.33	407	
1274.37	417	
1276.41	429	
1278.45	444	
1280.49	447	
1282.52	446	
1284.56	457	
1286.6	456	
1288.63	461	
1290.66	467	
1292.69	475	
1294.73	484	
1296.76	495	
1298.79	513	
1300.81	514	
1302.84	519	
1304.87	528	
1306.89	537	
1308.92	553	
1310.94	563	
1312.96	593	
1314.99	618	
1317.01	645	
1319.03	666	
1321.05	684	
1323.07	712	
1325.08	735	
1327.1	762	
1329.12	784	
1331.13	803	
1333.14	826	
1335.16	836	
1337.17	834	
1339.18	833	
1341.19	834	
1343.2	832	
1345.21	816	
1347.22	803	
1349.22	776	
1351.23	744	
1353.24	715	
1355.24	685	
1357.24	654	
1359.24	635	
1361.25	619	
1363.25	603	
1365.25	579	
1367.24	567	
1369.24	545	
1371.24	523	
1373.23	498	
1375.23	478	
1377.22	468	
1379.22	466	
1381.21	461	
1383.2	463	
1385.19	451	
1387.18	450	
1389.17	436	
1391.16	427	
1393.14	410	
1395.13	393	
1397.12	378	
1399.1	379	
1401.08	377	
1403.07	382	
1405.05	377	
1407.03	377	
1409.01	383	
1410.99	385	
1412.96	381	
1414.94	370	
1416.92	360	
1418.89	371	
1420.87	371	
1422.84	365	
1424.81	366	
1426.79	367	
1428.76	372	
1430.73	366	
1432.7	368	
1434.66	368	
1436.63	364	
1438.6	370	
1440.57	375	
1442.53	373	
1444.49	380	
1446.46	377	
1448.42	381	
1450.38	376	
1452.34	370	
1454.3	365	
1456.26	357	
1458.21	358	
1460.17	360	
1462.13	341	
1464.08	337	
1466.04	338	
1467.99	346	
1469.94	349	
1471.89	352	
1473.85	362	
1475.8	371	
1477.74	378	
1479.69	378	
1481.64	368	
1483.58	374	
1485.53	380	
1487.47	385	
1489.42	389	
1491.36	383	
1493.3	382	
1495.24	382	
1497.18	379	
1499.12	381	
1501.06	374	
1503	385	
1504.94	386	
1506.87	398	
1508.81	403	
1510.74	397	
1512.67	391	
1514.6	398	
1516.54	397	
1518.47	402	
1520.4	402	
1522.33	412	
1524.25	421	
1526.18	435	
1528.11	442	
1530.03	437	
1531.96	435	
1533.88	437	
1535.8	439	
1537.73	444	
1539.65	450	
1541.57	464	
1543.49	476	
1545.4	490	
1547.32	513	
1549.24	517	
1551.15	540	
1553.07	569	
1554.98	593	
1556.9	615	
1558.81	641	
1560.72	677	
1562.63	702	
1564.54	738	
1566.45	750	
1568.36	740	
1570.26	749	
1572.17	739	
1574.08	710	
1575.98	681	
1577.88	673	
1579.79	667	
1581.69	667	
1583.59	670	
1585.49	657	
1587.39	654	
1589.29	653	
1591.19	640	
1593.08	613	
1594.98	596	
1596.87	583	
1598.77	556	
1600.66	542	
1602.55	533	
1604.45	538	
1606.34	553	
1608.23	551	
1610.12	563	
1612	535	
1613.89	531	
1615.78	507	
1617.66	473	
1619.55	451	
1621.43	427	
1623.32	415	
1625.2	398	
1627.08	383	
1628.96	395	
1630.84	397	
1632.72	404	
1634.6	397	
1636.48	379	
1638.35	394	
1640.23	377	
1642.1	374	
1643.98	360	
1645.85	367	
1647.72	381	
1649.59	396	
1651.46	386	
1653.33	367	
1655.2	362	
1657.07	378	
1658.94	356	
1660.8	356	
1662.67	341	
1664.53	349	
1666.4	343	
1668.26	331	
1670.12	328	
1671.98	320	
1673.84	322	
1675.7	328	
1677.56	338	
1679.42	343	
1681.28	342	
1683.13	352	
1684.99	334	
1686.84	321	
1688.7	324	
1690.55	313	
1692.4	321	
1694.25	325	
1696.1	339	
1697.95	337	
1699.8	315	
1701.65	300	
1703.49	282	
1705.34	272	
1707.19	271	
1709.03	282	
1710.87	313	
1712.72	321	
1714.56	336	
1716.4	348	
1718.24	321	
1720.08	322	
1721.92	313	
1723.76	317	
1725.6	317	
1727.43	323	
1729.27	319	
1731.1	289	
1732.94	282	
1734.77	294	
1736.6	261	
1738.43	272	
1740.26	272	
1742.09	291	
1743.92	301	
1745.75	313	
1747.57	294	
1749.4	279	
1751.23	276	
1753.05	295	
1754.88	290	
1756.7	311	
1758.52	311	
1760.34	309	
1762.16	313	
1763.98	317	
1765.8	297	
1767.62	282	
1769.43	268	
1771.25	279	
1773.07	282	
1774.88	280	
1776.7	266	
1778.51	263	
1780.32	262	
1782.13	268	
1783.95	266	
1785.75	284	
1787.56	298	
1789.37	318	
1791.18	349	
1792.98	365	
1794.79	375	
1796.6	368	
1798.4	360	
1800.2	358	
1802.01	327	
1803.81	309	
1805.61	271	
1807.41	263	
1809.21	271	
1811	269	
1812.8	275	
1814.6	279	
1816.4	288	
1818.19	321	
1819.99	315	
1821.78	322	
1823.57	297	
1825.36	305	
1827.15	310	
1828.94	303	
1830.73	311	
1832.52	307	
1834.31	292	
1836.1	313	
1837.88	311	
1839.67	312	
1841.45	299	
1843.24	307	
1845.02	305	
1846.8	299	
1848.58	312	
1850.36	296	
1852.14	283	
1853.92	277	
1855.7	282	
1857.48	282	
1859.25	294	
1861.03	302	
1862.8	304	
1864.58	313	
1866.35	320	
1868.12	316	
1869.9	295	
1871.67	286	
1873.44	284	
1875.21	266	
1876.98	261	
1878.74	262	
1880.51	266	
1882.28	266	
1884.04	264	
1885.81	269	
1887.57	252	
1889.33	260	
1891.09	273	
1892.85	273	
1894.62	283	
1896.38	296	
1898.13	299	
1899.89	291	
1901.65	291	
1903.41	279	
1905.16	254	
1906.92	254	
1908.67	259	
1910.42	269	
1912.18	280	
1913.93	288	
1915.68	297	
1917.43	314	
1919.18	316	
1920.93	306	
1922.67	278	
1924.42	266	
1926.17	259	
1927.91	258	
1929.66	252	
1931.4	251	
1933.14	261	
1934.88	285	
1936.63	289	
1938.37	287	
1940.11	271	
1941.85	275	
1943.58	280	
1945.32	273	
1947.06	261	
1948.79	254	
1950.53	254	
1952.26	263	
1954	272	
1955.73	270	
1957.46	273	
1959.19	277	
1960.92	277	
1962.65	266	
1964.38	268	
1966.11	260	
1967.84	255	
1969.56	261	
1971.29	265	
1973.01	264	
1974.74	277	
1976.46	284	
1978.18	289	
1979.91	293	
1981.62	298	
1983.35	294	
1985.06	294	
1986.78	276	
1988.5	256	
1990.22	241	
1991.94	235	
1993.65	228	
1995.36	231	
1997.08	236	
1998.79	251	
2000.5	262	
2002.22	275	
2003.92	284	
2005.64	294	
2007.34	290	
2009.05	286	
2010.76	293	
2012.47	291	
2014.17	285	
2015.88	288	
2017.58	280	
2019.29	281	
2020.99	294	
2022.69	291	
2024.39	289	
2026.09	288	
2027.79	291	
2029.49	284	
2031.19	279	
2032.89	274	
2034.58	277	
2036.28	273	
2037.98	273	
2039.67	259	
2041.36	251	
2043.06	242	
2044.75	237	
2046.44	247	
2048.13	241	
2049.82	239	
2051.51	253	
2053.2	263	
2054.88	269	
2056.57	270	
2058.26	274	
2059.94	270	
2061.63	271	
2063.31	267	
2065	254	
2066.67	255	
2068.36	264	
2070.04	266	
2071.72	268	
2073.4	270	
2075.07	270	
2076.75	275	
2078.43	281	
2080.1	276	
2081.78	277	
2083.45	285	
2085.13	286	
2086.8	280	
2088.47	274	
2090.14	274	
2091.81	268	
2093.48	271	
2095.15	266	
2096.82	270	
2098.49	262	
2100.16	255	
2101.82	256	
2103.49	269	
2105.15	267	
2106.81	272	
2108.48	277	
2110.14	278	
2111.8	278	
2113.46	286	
2115.12	268	
2116.78	256	
2118.44	267	
2120.1	272	
2121.75	269	
2123.41	278	
2125.07	285	
2126.72	277	
2128.38	271	
2130.03	268	
2131.68	255	
2133.33	249	
2134.98	264	
2136.63	269	
2138.28	271	
2139.93	286	
2141.58	284	
2143.22	280	
2144.87	271	
2146.52	269	
2148.16	262	
2149.8	260	
2151.45	267	
2153.09	270	
2154.73	266	
2156.37	273	
2158.01	269	
2159.65	262	
2161.29	256	
2162.93	260	
2164.57	267	
2166.2	268	
2167.84	278	
2169.47	283	
2171.11	291	
2172.74	292	
2174.37	287	
2176.01	274	
2177.64	275	
2179.27	282	
2180.9	290	
2182.53	286	
2184.15	291	
2185.78	289	
2187.41	293	
2189.04	282	
2190.66	281	
2192.28	274	
2193.91	283	
2195.53	293	
2197.15	289	
2198.77	273	
2200.4	269	
2202.02	279	
2203.64	281	
2205.25	285	
2206.87	289	
2208.49	283	
2210.1	291	
2211.72	277	
2213.34	266	
2214.95	246	
2216.56	252	
2218.17	270	
2219.79	281	
2221.4	294	
2223.01	300	
2224.62	300	
2226.23	311	
2227.84	290	
2229.44	289	
2231.05	266	
2232.66	260	
2234.26	252	
2235.86	260	
2237.47	270	
2239.07	275	
2240.67	285	
2242.28	294	
2243.88	291	
2245.48	291	
2247.07	280	
2248.67	278	
2250.27	266	
2251.87	271	
2253.47	272	
2255.06	267	
2256.65	268	
2258.25	254	
2259.84	260	
2261.44	260	
2263.03	267	
2264.62	268	
2266.21	279	
2267.8	276	
2269.39	281	
2270.98	273	
2272.56	272	
2274.15	265	
2275.74	261	
2277.32	254	
2278.9	257	
2280.49	255	
2282.07	263	
2283.66	253	
2285.24	258	
2286.82	260	
2288.4	281	
2289.98	283	
2291.56	275	
2293.14	272	
2294.71	292	
2296.29	298	
2297.86	308	
2299.44	310	
2301.01	312	
2302.59	318	
2304.16	314	
2305.73	276	
2307.3	255	
2308.87	247	
2310.45	264	
2312.01	274	
2313.58	279	
2315.15	280	
2316.72	300	
2318.28	318	
2319.85	315	
2321.41	304	
2322.98	313	
2324.54	332	
2326.1	363	
2327.67	367	
2329.23	359	
2330.79	333	
2332.35	330	
2333.91	314	
2335.47	287	
2337.02	285	
2338.58	279	
2340.14	274	
2341.69	279	
2343.25	273	
2344.8	288	
2346.35	292	
2347.91	288	
2349.46	299	
2351.01	298	
2352.56	320	
2354.11	323	
2355.66	310	
2357.21	299	
2358.76	297	
2360.3	315	
2361.85	296	
2363.4	289	
2364.94	313	
2366.48	319	
2368.03	340	
2369.57	347	
2371.11	362	
2372.65	356	
2374.19	344	
2375.73	332	
2377.27	310	
2378.81	306	
2380.35	304	
2381.88	294	
2383.42	304	
2384.95	293	
2386.49	320	
2388.03	328	
2389.56	323	
2391.09	322	
2392.62	332	
2394.16	319	
2395.68	321	
2397.21	303	
2398.74	307	
2400.27	296	
2401.8	317	
2403.32	309	
2404.85	305	
2406.38	315	
2407.9	341	
2409.42	361	
2410.95	374	
2412.47	376	
2414	385	
2415.52	373	
2417.04	370	
2418.56	345	
2420.08	330	
2421.59	319	
2423.11	316	
2424.63	322	
2426.15	343	
2427.66	357	
2429.17	376	
2430.69	383	
2432.2	384	
2433.71	373	
2435.23	352	
2436.74	326	
2438.25	295	
2439.76	302	
2441.27	308	
2442.78	310	
2444.29	309	
2445.79	285	
2447.3	266	
2448.8	260	
2450.31	261	
2451.81	268	
2453.32	281	
2454.82	314	
2456.32	328	
2457.82	332	
2459.32	324	
2460.82	297	
2462.32	299	
2463.82	287	
2465.32	260	
2466.82	264	
2468.32	263	
2469.81	265	
2471.31	264	
2472.8	267	
2474.29	283	
2475.79	281	
2477.28	311	
2478.77	306	
2480.26	290	
2481.75	315	
2483.24	321	
2484.73	309	
2486.22	314	
2487.71	319	
2489.19	328	
2490.68	316	
2492.16	323	
2493.65	324	
2495.13	327	
2496.62	337	
2498.1	327	
2499.58	317	
2501.06	330	
2502.54	336	
2504.02	352	
2505.5	349	
2506.98	356	
2508.46	363	
2509.94	346	
2511.41	348	
2512.89	319	
2514.36	309	
2515.84	312	
2517.31	321	
2518.78	338	
2520.26	326	
2521.73	343	
2523.2	335	
2524.67	306	
2526.14	307	
2527.61	276	
2529.07	275	
2530.54	287	
2532.01	290	
2533.48	299	
2534.94	292	
2536.41	311	
2537.87	303	
2539.33	290	
2540.79	301	
2542.26	296	
2543.72	309	
2545.18	315	
2546.64	323	
2548.1	325	
2549.56	333	
2551.01	329	
2552.47	326	
2553.93	302	
2555.38	290	
2556.84	275	
2558.29	284	
2559.75	286	
2561.2	295	
2562.65	307	
2564.1	335	
2565.56	340	
2567	324	
2568.46	314	
2569.9	303	
2571.35	294	
2572.8	297	
2574.25	296	
2575.69	292	
2577.14	293	
2578.58	320	
2580.03	338	
2581.47	334	
2582.91	336	
2584.35	327	
2585.8	321	
2587.24	305	
2588.68	302	
2590.12	285	
2591.56	271	
2592.99	291	
2594.43	299	
2595.87	302	
2597.3	301	
2598.74	319	
2600.17	325	
2601.61	337	
2603.04	356	
2604.47	348	
2605.9	343	
2607.34	346	
2608.77	350	
2610.2	359	
2611.63	341	
2613.05	326	
2614.48	313	
2615.91	309	
2617.34	301	
2618.76	306	
2620.19	309	
2621.61	327	
2623.03	335	
2624.46	342	
2625.88	338	
2627.3	330	
2628.72	329	
2630.14	336	
2631.56	358	
2632.98	370	
2634.4	376	
2635.82	363	
2637.24	350	
2638.65	344	
2640.07	352	
2641.48	346	
2642.9	344	
2644.31	352	
2645.72	366	
2647.14	371	
2648.55	384	
2649.96	371	
2651.37	392	
2652.78	398	
2654.19	412	
2655.6	409	
2657	395	
2658.41	384	
2659.82	386	
2661.22	378	
2662.63	375	
2664.03	367	
2665.44	370	
2666.84	375	
2668.24	379	
2669.64	368	
2671.04	358	
2672.45	372	
2673.84	379	
2675.24	369	
2676.64	372	
2678.04	359	
2679.44	367	
2680.83	371	
2682.23	363	
2683.62	364	
2685.02	361	
2686.41	371	
2687.8	373	
2689.2	364	
2690.59	368	
2691.98	346	
2693.37	357	
2694.76	344	
2696.15	347	
2697.54	355	
2698.92	349	
2700.31	342	
2701.7	355	
2703.08	359	
2704.47	369	
2705.85	364	
2707.24	373	
2708.62	369	
2710	381	
2711.38	364	
2712.77	349	
2714.14	327	
2715.53	320	
2716.9	315	
2718.28	321	
2719.66	328	
2721.04	330	
2722.41	341	
2723.79	352	
2725.16	340	
2726.54	337	
2727.91	325	
2729.29	314	
2730.66	303	
2732.03	301	
2733.4	304	
2734.77	307	
2736.14	313	
2737.51	324	
2738.88	323	
2740.25	344	
2741.62	344	
2742.98	348	
2744.35	345	
2745.71	351	
2747.08	332	
2748.44	325	
2749.81	312	
2751.17	299	
2752.53	291	
2753.89	294	
2755.25	275	
2756.61	283	
2757.97	296	
2759.33	305	
2760.69	291	
2762.05	305	
2763.41	285	
2764.76	287	
2766.12	279	
2767.47	276	
2768.83	274	
2770.18	290	
2771.53	302	
2772.88	318	
2774.24	312	
2775.59	303	
2776.94	277	
2778.29	287	
2779.63	275	
2780.98	277	
2782.33	284	
2783.68	286	
2785.03	280	
2786.37	278	
2787.72	255	
2789.06	251	
2790.41	256	
2791.75	264	
2793.09	277	
2794.43	283	
2795.77	289	
2797.11	270	
2798.45	256	
2799.79	237	
2801.13	230	
2802.47	250	
2803.81	266	
2805.14	278	
2806.48	297	
2807.82	294	
2809.15	284	
2810.48	270	
2811.82	279	
2813.15	280	
2814.48	277	
2815.81	288	
2817.14	270	
2818.48	267	
2819.8	251	
2821.13	233	
2822.46	231	
2823.79	238	
2825.12	262	
2826.44	283	
2827.77	289	
2829.09	282	
2830.42	255	
2831.74	256	
2833.07	241	
2834.39	236	
2835.71	241	
2837.03	248	
2838.35	266	
2839.67	286	
2840.99	283	
2842.31	273	
2843.63	256	
2844.95	267	
2846.26	266	
2847.58	254	
2848.89	255	
2850.21	238	
2851.52	245	
2852.84	253	
2854.15	247	
2855.46	245	
2856.78	236	
2858.09	246	
2859.4	249	
2860.71	255	
2862.02	261	
2863.32	254	
2864.63	281	
2865.94	308	
2867.25	318	
2868.55	318	
2869.86	315	
2871.16	302	
2872.47	301	
2873.77	290	
2875.07	274	
2876.37	266	
2877.68	269	
2878.98	269	
2880.28	276	
2881.58	277	
2882.88	274	
2884.18	252	
2885.47	246	
2886.77	237	
2888.07	242	
2889.36	237	
2890.66	240	
2891.95	243	
2893.24	260	
2894.54	267	
2895.83	267	
2897.12	271	
2898.42	287	
2899.71	280	
2901	291	
2902.28	292	
2903.58	315	
2904.86	325	
2906.15	335	
2907.44	324	
2908.72	308	
2910.01	310	
2911.29	288	
2912.58	252	
2913.86	253	
2915.15	245	
2916.43	262	
2917.71	276	
2918.99	276	
2920.27	278	
2921.55	281	
2922.83	298	
2924.11	293	
2925.39	291	
2926.67	304	
2927.94	292	
2929.22	297	
2930.5	293	
2931.77	288	
2933.05	283	
2934.32	268	
2935.59	261	
2936.87	262	
2938.14	266	
2939.41	286	
2940.68	273	
2941.95	275	
2943.22	270	
2944.49	273	
2945.76	263	
2947.02	260	
2948.29	262	
2949.56	266	
2950.82	266	
2952.09	269	
2953.35	259	
2954.62	267	
2955.88	263	
2957.14	258	
2958.4	266	
2959.67	276	
2960.93	270	
2962.19	260	
2963.45	247	
2964.71	243	
2965.96	238	
2967.22	249	
2968.48	239	
2969.74	245	
2970.99	263	
2972.25	269	
2973.5	266	
2974.75	263	
2976.01	248	
2977.26	243	
2978.51	233	
2979.76	243	
2981.02	241	
2982.26	247	
2983.52	247	
2984.76	260	
2986.01	270	
2987.26	269	
2988.51	267	
2989.75	269	
2991	266	
2992.24	273	
2993.49	263	
2994.73	239	
2995.98	224	
2997.22	228	
2998.46	236	
2999.7	225	
3000.94	236	
3002.18	238	
3003.42	243	
3004.66	261	
3005.9	267	
3007.14	258	
3008.38	262	
3009.61	253	
3010.85	254	
3012.09	250	
3013.32	234	
3014.56	225	
3015.79	221	
3017.02	223	
3018.25	221	
3019.49	216	
3020.72	221	
3021.95	210	
3023.18	215	
3024.41	227	
3025.64	219	
3026.86	238	
3028.09	236	
3029.32	230	
3030.54	224	
3031.77	213	
3032.99	218	
3034.22	218	
3035.44	224	
3036.67	220	
3037.89	229	
3039.11	236	
3040.33	220	
3041.55	210	
3042.77	202	
3043.99	191	
3045.21	202	
3046.43	214	
3047.65	223	
3048.87	219	
3050.08	225	
3051.3	221	
3052.51	211	
3053.73	208	
3054.94	214	
3056.16	216	
3057.37	223	
3058.58	240	
3059.79	240	
3061	234	
3062.21	239	
3063.42	243	
3064.63	241	
3065.84	237	
3067.05	236	
3068.26	217	
3069.46	204	
3070.67	205	
3071.87	190	
3073.08	192	
3074.28	201	
3075.49	207	
3076.69	218	
3077.89	226	
3079.1	233	
3080.3	236	
3081.5	230	
3082.7	245	
3083.9	240	
3085.1	249	
3086.3	236	
3087.49	244	
3088.69	243	
3089.89	235	
3091.08	245	
3092.28	237	
3093.47	217	
3094.67	223	
3095.86	214	
3097.05	213	
3098.25	216	
3099.44	226	
3100.63	210	
3101.82	206	
3103.01	207	
3104.2	190	
3105.39	184	
3106.58	190	
3107.76	181	
3108.95	187	
3110.14	204	
3111.32	199	
3112.51	197	
3113.69	205	
3114.88	200	
3116.06	198	
3117.24	208	
3118.42	221	
3119.61	217	
3120.79	217	
3121.97	224	
3123.15	212	
3124.33	212	
3125.5	211	
3126.68	209	
3127.86	208	
3129.04	206	
3130.21	208	
3131.39	210	
3132.56	213	
3133.74	230	
3134.91	228	
3136.08	231	
3137.26	239	
3138.43	246	
3139.6	239	
3140.77	229	
3141.94	241	
3143.11	239	
3144.28	237	
3145.45	231	
3146.62	218	
3147.79	208	
3148.95	202	
3150.12	200	
3151.28	197	
3152.45	203	
3153.61	214	
3154.77	214	
3155.94	218	
3157.1	227	
3158.26	230	
3159.42	232	
3160.58	235	
3161.75	241	
3162.9	247	
3164.06	242	
3165.22	233	
3166.38	227	
3167.54	208	
3168.7	197	
3169.85	182	
3171.01	182	
3172.16	185	
3173.32	192	
3174.47	202	
3175.62	201	
3176.77	197	
3177.93	188	
3179.08	174	
3180.23	166	
3181.38	164	
3182.53	175	
3183.68	187	
3184.83	198	
3185.97	203	
3187.12	214	
3188.27	211	
3189.41	213	
3190.56	202	
3191.7	187	
3192.85	191	
3193.99	195	
3195.13	202	
3196.28	208	
3197.42	214	
3198.56	226	
3199.7	224	
3200.84	226	
3201.98	210	
3203.12	217	
3204.26	209	
3205.4	192	
3206.53	195	
3207.67	199	
3208.8	203	
3209.94	204	
3211.07	199	
3212.21	199	
3213.34	201	
3214.48	221	
3215.61	205	
3216.74	208	
3217.87	219	
3219	220	
3220.13	223	
3221.26	224	
3222.39	224	
3223.52	218	
3224.65	215	
3225.78	217	
3226.9	212	
3228.03	210	
3229.16	206	
3230.28	197	
3231.41	189	
3232.53	195	
3233.65	190	
3234.77	194	
3235.9	193	
3237.02	187	
3238.14	191	
3239.26	191	
3240.38	197	
3241.5	205	
3242.62	217	
3243.73	231	
3244.85	228	
3245.97	235	
3247.08	221	
3248.2	210	
3249.32	201	
3250.43	192	
3251.55	197	
3252.66	200	
3253.77	201	
3254.88	197	
3256	207	
3257.11	201	
3258.22	199	
3259.33	197	
3260.44	199	
3261.54	186	
3262.65	184	
3263.76	168	
3264.87	165	
3265.97	144	
3267.08	156	
3268.19	159	
3269.29	184	
3270.39	193	
3271.5	214	
3272.6	208	
3273.7	220	
3274.8	209	
3275.91	206	
3277.01	188	
3278.11	189	
3279.21	202	
3280.31	207	
3281.4	204	
3282.5	209	
3283.6	202	
3284.7	205	
3285.79	198	
3286.89	200	
3287.98	205	
3289.08	214	
3290.17	223	
3291.26	210	
3292.36	214	
3293.45	216	
3294.54	199	
3295.63	200	
3296.72	203	
3297.81	194	
3298.9	190	
3299.99	187	
3301.08	179	
3302.16	179	
3303.25	189	
3304.34	205	
3305.42	202	
3306.51	206	
3307.59	210	
3308.68	198	
3309.76	192	
3310.85	184	
3311.93	188	
3313.01	187	
3314.09	176	
3315.17	189	
3316.25	198	
3317.33	200	
3318.41	201	
3319.49	196	
3320.57	199	
3321.64	193	
3322.72	186	
3323.8	169	
3324.87	170	
3325.95	176	
3327.02	184	
3328.09	189	
3329.17	190	
3330.24	189	
3331.31	191	
3332.39	189	
3333.46	184	
3334.53	179	
3335.6	198	
3336.67	191	
3337.73	188	
3338.8	189	
3339.87	188	
3340.94	182	
3342.01	175	
3343.07	172	
3344.14	162	
3345.2	152	
3346.26	160	
3347.33	145	
3348.39	142	
3349.45	144	
3350.52	160	
3351.58	167	
3352.64	176	
3353.7	176	
3354.76	174	
3355.82	176	
3356.88	164	
3357.93	152	
3358.99	152	
3360.05	147	
3361.1	170	
3362.16	176	
3363.22	183	
3364.27	177	
3365.32	192	
3366.38	193	
3367.43	178	
3368.48	184	
3369.53	182	
3370.59	175	
3371.64	184	
3372.69	180	
3373.74	176	
3374.79	183	
3375.83	197	
3376.88	196	
3377.93	185	
3378.98	187	
3380.02	186	
3381.07	184	
3382.11	179	
3383.16	178	
3384.2	171	
3385.24	174	
3386.29	181	
3387.33	177	
3388.37	158	
3389.41	166	
3390.46	174	
3391.49	182	
3392.53	183	
3393.57	191	
3394.61	196	
3395.65	191	
3396.69	188	
3397.72	170	
3398.76	166	
3399.79	169	
3400.83	171	
3401.87	175	
3402.9	178	
3403.93	177	
3404.97	189	
3406	184	
3407.03	178	
3408.06	169	
3409.09	184	
3410.12	172	
3411.15	172	
3412.18	159	
3413.21	143	
3414.24	153	
3415.26	158	
3416.29	155	
3417.32	163	
3418.34	175	
3419.37	195	
3420.39	195	
3421.42	186	
3422.44	179	
3423.46	166	
3424.48	171	
3425.5	152	
3426.53	145	
3427.55	152	
3428.57	163	
3429.59	174	
3430.61	184	
3431.62	190	
