-117.633747	8.310989
-114.964146	0.925275
-112.297481	-2.631269
-109.631568	-3.196404
-106.968588	-1.607892
-104.304177	1.296503
-101.642697	4.679021
-98.979788	6.579720
-96.321985	6.571329
-93.662753	3.718182
-91.004269	2.453846
-88.348710	-0.081818
-85.691721	0.859441
-83.039831	0.816084
-80.386511	0.060839
-77.736110	6.507692
-75.084281	7.662238
-72.437542	7.974126
-69.789373	6.553147
-67.141947	4.502797
-64.497436	3.729371
-61.851495	4.288811
-59.210636	4.934266
-56.568348	3.715385
-53.928969	5.166434
-51.288161	5.919580
-48.648092	5.290909
-46.013097	10.147552
-43.376672	9.100000
-40.743150	9.718182
-38.108200	10.894406
-35.478316	12.756643
-32.844838	15.726573
-30.216423	17.794406
-27.588742	14.227273
-24.959632	4.788811
-22.335580	-40.301399
-19.707937	-206.880420
-17.085349	-576.769930
-14.463491	-438.609790
-11.842364	608.151049
-9.221968	2486.290909
-6.604459	4048.879021
-3.985522	5126.647552
-1.369471	5715.630769
1.245853	5815.823776
3.860448	5426.269930
6.472162	4559.574126
9.085303	3238.832168
11.693412	1580.350350
14.305101	-32.060839
16.911760	-759.641259
19.519848	-598.218881
22.127210	-51.301399
24.729548	22.330769
27.335464	21.862238
29.936359	21.756643
32.538681	22.072028
35.135985	17.090909
37.736866	14.769231
40.332731	10.977622
42.930024	11.087413
45.526598	12.411189
48.118163	11.395105
50.711157	10.523077
53.301289	14.163636
55.892848	13.739161
58.481549	13.318182
61.071676	13.330769
63.656804	10.990909
66.243360	8.441259
68.829201	6.796503
71.412189	6.197902
73.996604	8.248252
76.573889	5.695804
79.154741	6.247552
81.732744	6.437063
84.310037	9.773427
86.888757	11.167832
89.462494	11.633566
92.037658	11.563636
94.609979	10.342657
97.181593	10.812587
99.750366	8.298601
102.320566	9.851049
104.887927	10.635664
107.456715	7.041958
110.022666	7.813986
112.585782	8.519580
115.152454	11.582517
117.709904	14.051748
120.273040	18.586014
122.831217	29.590909
125.392948	50.655944
127.949722	82.515385
130.507922	128.197203
133.061170	195.919580
135.613720	274.334965
138.169820	366.772727
140.720972	465.912587
143.271427	560.309790
145.821184	645.568531
148.368122	712.961538
150.914365	762.678322
153.462033	793.652448
156.009005	806.375524
158.551041	802.910490
161.092385	791.248252
163.633035	783.269930
166.175110	769.641259
168.714375	764.242657
171.250830	758.610490
173.786595	753.981119
176.323785	750.741958
178.860284	749.555944
181.393977	748.369231
183.924866	746.788811
186.455067	744.106993
188.986694	741.345455
191.515519	737.310490
194.041545	735.358042
196.566885	734.752448
199.093650	736.860839
201.617619	737.088112
204.140902	737.034266
206.663501	734.719580
209.183307	736.465035
211.702430	737.553846
214.220870	742.175524
216.740735	751.416783
219.253597	761.054545
221.769991	770.673427
224.285704	778.251049
226.796526	794.527972
229.308773	809.670629
231.818237	822.535664
234.327023	830.676224
236.835131	833.895804
239.344663	835.664336
241.849314	837.158042
244.353289	837.414685
246.858688	837.864336
249.359212	837.780420
251.863259	835.434965
254.360336	834.057343
256.860935	834.065734
259.358763	832.345455
261.855918	832.676923
264.352401	827.179021
266.844020	823.322378
269.339159	821.951748
271.831531	824.767133
274.323233	826.109790
276.812172	826.356643
279.302534	829.267133
281.790135	831.488811
284.274976	836.288811
286.763332	841.497203
289.244748	852.081818
291.729678	869.872727
294.209762	887.400699
296.693359	907.465035
299.172114	921.879021
301.652291	932.661538
304.129717	929.174126
306.606479	917.576923
309.082577	906.669231
311.555927	898.366434
314.028616	888.803497
316.500643	879.798601
318.972008	873.544755
321.440630	866.018881
323.908592	860.570629
326.377977	852.799301
328.842539	837.905594
331.310605	821.849650
333.773850	799.689510
336.236439	783.714685
338.698371	772.552448
341.159646	764.217483
343.618186	752.119580
346.078149	740.006294
348.535380	733.018881
350.991956	721.139860
353.447878	714.018182
355.901070	709.658042
358.355685	700.059441
360.805498	692.579021
363.258807	686.565035
365.707317	682.098601
368.155177	676.961538
370.604459	669.448252
373.048946	661.623776
375.494856	656.777622
377.940117	654.673427
380.382659	649.774825
382.824553	645.165734
385.265799	640.772727
387.704331	631.890909
390.144283	628.740559
392.581522	622.444755
395.016049	620.232867
397.454064	619.033566
399.887303	612.968531
402.321962	604.251049
404.751849	601.294406
407.185221	596.560839
409.613823	594.053147
412.041783	589.488112
414.471164	584.629371
416.895781	580.464336
419.321818	579.855944
421.747216	577.120280
424.171973	579.666434
426.591971	578.523077
429.013391	572.459441
431.432114	565.972727
433.852258	559.882517
436.269707	549.793007
438.688577	539.394406
441.104752	527.256643
443.516181	511.794406
445.931086	495.465734
448.343301	480.716783
450.754882	465.718881
453.165830	453.705594
455.574090	443.295804
457.981719	433.614685
460.388715	433.460140
462.795080	433.060839
465.198762	434.151049
467.601814	436.226573
470.004236	442.332168
472.406028	444.951049
474.805142	450.125175
477.205676	457.919580
479.605581	461.781119
482.000764	469.237063
484.399412	475.704196
486.793341	484.987413
489.186644	502.542657
491.579322	520.597902
493.971373	546.755245
496.364844	585.216783
498.753602	661.533566
501.139694	822.976224
503.527206	1153.516783
505.914095	1728.455245
508.298319	2517.547552
510.683963	3409.407692
513.066945	4258.067133
515.447265	4952.949650
517.829006	5398.420979
520.208087	5548.462937
522.588586	5383.312587
524.966429	4929.155245
527.341615	4273.755245
529.716184	3546.295105
532.092172	2895.924476
534.465507	2411.893706
536.840259	2086.199301
539.210325	1858.669231
541.579777	1685.808392
543.950646	1551.534266
546.316834	1436.072028
548.684441	1341.483916
551.049402	1259.425874
553.413751	1190.669930
555.777486	1136.507692
558.142639	1091.078322
560.503120	1050.577622
562.865018	1010.795804
565.224277	977.344056
567.580897	944.329371
569.940963	919.627972
572.294337	894.393007
574.651156	864.211189
577.005340	842.233566
579.358915	821.743357
581.711883	803.757343
584.062218	785.990909
586.413971	768.952448
588.759047	749.250350
591.109586	732.112587
593.453453	711.197902
595.802781	691.803497
598.147460	680.379720
600.489515	668.096503
602.832987	661.311888
605.173836	671.916783
607.514082	684.913986
609.851708	703.186713
612.192769	719.497203
614.529193	734.363636
616.867033	742.897203
619.202256	743.165734
621.534862	726.046853
623.868886	704.879720
626.200295	681.734266
628.531106	660.398601
630.861319	642.302098
633.190935	634.737762
635.515927	624.682517
637.846361	619.902797
640.172174	620.388811
642.495379	616.932867
644.820001	613.924476
647.142017	605.589510
649.463439	595.783916
651.782258	586.708392
654.102494	577.462937
656.422135	572.029371
658.739177	564.928671
661.055626	563.319580
663.369477	559.993706
665.684744	561.781119
667.997414	566.494406
670.311499	566.876923
672.620984	568.559441
674.931885	568.136364
677.240192	566.636364
679.547912	560.775524
681.857047	554.723776
684.161589	547.789510
686.465545	533.508392
688.768914	521.830070
691.073699	510.774825
693.373896	499.244755
695.675509	486.716084
697.976536	476.644056
700.272982	467.225175
702.570843	459.362937
704.868120	456.130070
707.164814	455.758741
709.456932	453.248951
711.752460	452.502797
714.043416	447.577622
716.335786	445.916783
718.625580	444.312587
720.914795	440.283217
723.203430	437.104895
725.489492	435.163636
727.776968	433.346154
730.061874	434.551748
732.346202	436.297203
734.627961	436.500000
736.911134	433.947552
739.193730	432.380420
741.471770	431.804196
743.751224	430.751748
746.030103	428.639161
748.308407	428.066434
750.582160	424.220280
752.857328	423.888811
755.131922	427.623776
757.403957	429.691608
759.677405	427.074126
761.948295	425.374126
764.216629	420.819580
766.486376	419.525175
768.753568	417.199301
771.020191	415.231469
773.286243	409.861538
775.549744	406.279021
777.814657	402.941958
780.079002	407.246853
782.338816	410.110490
784.600044	412.741259
786.860704	415.501399
789.118818	426.066434
791.374387	428.969231
793.633346	433.746853
795.885807	434.421678
798.143635	435.590909
800.396944	440.315385
802.647712	442.351748
804.899894	443.787413
807.149536	438.763636
809.400590	435.664336
811.647133	436.214685
813.895089	437.220979
816.140509	437.368531
818.387342	427.943357
820.633612	420.593706
822.875379	413.801399
825.120528	409.026573
827.359206	408.891608
829.601265	404.954545
831.838826	404.402797
834.077799	402.536364
836.314245	400.220280
838.552102	398.465035
840.787434	398.529371
843.020242	397.049650
845.254462	390.273427
847.486160	389.495804
849.717303	391.300699
851.947891	390.542657
854.177925	391.485315
856.407404	395.153147
858.632403	400.970629
860.860775	408.098601
863.084669	398.344755
865.309974	397.126573
867.530803	392.712587
869.755004	382.746154
871.974732	373.744056
874.195870	376.332168
876.416458	377.244056
878.634537	375.858042
880.854025	381.083217
883.069047	382.827972
885.283521	389.814685
887.497448	397.537762
889.710827	395.143357
891.923660	395.979021
894.135945	390.346154
896.345729	382.248951
898.554967	380.970629
900.763660	383.144755
902.969853	381.181818
905.177456	384.003497
907.382562	389.181119
909.587124	398.630070
911.789191	410.167133
913.992667	419.490210
916.193649	436.148951
918.394089	446.436364
920.595938	458.440559
922.791396	476.339860
924.990212	507.879021
927.184591	553.086014
929.382327	613.727972
931.575627	690.964336
933.770336	760.038462
935.962558	831.874126
938.154243	882.805594
940.345390	925.751748
942.534054	960.930769
944.722181	973.495804
946.907828	966.484615
949.096828	954.869930
951.281403	940.532168
953.465444	940.807692
955.652836	938.967133
957.831923	943.954545
960.014361	937.028671
962.196264	939.967832
964.375694	945.462238
966.552651	960.534965
968.731016	977.951049
970.910788	995.479021
973.084210	1005.559441
975.260980	1001.214685
977.433342	993.187413
979.607112	971.932867
981.776478	929.918182
983.949188	893.009091
986.119433	849.613986
988.289148	803.990210
990.458335	757.773427
992.623125	709.053846
994.791257	654.231469
996.954993	618.319580
999.120137	590.641259
1001.282821	556.830769
1003.444980	549.560839
1005.604682	523.844755
1007.763859	516.118182
1009.924443	503.939161
1012.082572	505.814685
1014.240178	502.541259
1016.397259	489.515385
1018.553818	469.935664
1020.705997	437.282517
1022.859583	428.017483
1025.012647	422.914685
1027.163262	406.236364
1029.315283	411.651049
1031.462932	397.873427
1033.613912	391.041259
1035.760521	375.698601
1037.906611	382.695105
1040.052183	376.953147
1042.199160	368.640559
1044.339848	349.527972
1046.483865	353.435664
1048.625443	355.990909
1050.766503	380.630769
1052.908969	388.462238
1055.045154	398.560839
1057.184666	414.165734
1059.319822	422.927273
1061.458303	426.586713
1063.592431	422.348951
1065.726045	402.751748
1067.861063	390.621678
1069.991732	379.405594
1072.123807	381.796503
1074.253451	376.004196
1076.382584	395.350350
1078.511206	388.799301
1080.639316	385.541259
1082.765000	389.314685
1084.890174	365.732867
1087.016752	338.485315
1089.138992	299.820979
1091.262637	276.554545
1093.381947	271.290210
1095.506486	268.160140
1097.624781	281.836364
1099.744479	294.704895
1101.861760	321.475524
1103.978533	333.667832
1106.094800	337.979021
1108.208652	325.165734
1110.323907	306.375524
1112.434840	296.074825
1114.549085	277.779720
1116.659009	267.312587
1118.770336	266.902797
1120.881160	273.225874
1122.987667	293.763636
1125.097483	291.545455
1127.202985	311.049650
1129.309891	318.031469
1131.410581	303.813986
1133.516483	290.258741
1135.618076	300.936364
1137.721071	304.550350
1139.823567	301.928671
1141.919855	293.706993
1144.021350	289.650350
1146.118543	292.887413
1148.215237	298.183217
1150.311434	294.418881
1152.407132	304.350350
1154.502333	305.755944
1156.595137	294.035664
1158.689343	294.809091
1160.777358	304.027273
1162.870571	301.720280
1164.957596	301.327972
1167.047921	296.613986
1169.133957	295.595804
1171.223291	299.901399
1173.306444	307.860839
1175.391000	301.109790
1177.476957	304.862238
1179.558632	304.768531
1181.641708	304.660839
1183.722399	303.555944
1185.802599	297.887413
1187.882307	292.448951
1189.961524	282.409790
1192.038358	282.501399
1194.112812	282.882517
1196.190558	277.392308
1198.264033	274.000699
1200.338910	268.881818
1202.409519	269.053846
1204.481529	269.952448
1206.551163	277.818881
1208.622198	285.070629
1210.692745	288.799301
1212.759032	284.930769
1214.826719	284.230070
1216.892033	291.381818
1218.958748	290.186014
1221.021207	290.350350
1223.086952	287.557343
1225.148442	280.297902
1227.211332	272.862238
1229.271855	265.745455
1231.331895	267.865035
1233.391451	265.831469
1235.448643	266.907692
1237.505352	267.144056
1239.559699	273.852448
1241.617326	281.730769
1243.672591	283.111189
1245.723615	290.453846
1247.776040	298.933566
1249.827984	293.120979
1251.877570	295.101399
1253.926677	292.036364
1255.975305	294.083916
1258.023455	298.956643
1260.071127	302.073427
1262.114568	296.865035
1264.161285	296.897902
1266.205648	300.746853
1268.249534	289.914685
1270.291070	293.020979
1272.330256	299.508392
1274.372715	295.602098
1276.410951	306.037762
1278.450586	304.481119
1280.489745	311.402098
1282.524687	316.311189
1284.561027	304.376923
1286.595022	286.883217
1288.630416	284.369231
1290.661596	285.476923
1292.694175	283.652448
1294.726282	285.752448
1296.756048	287.677622
1298.787211	287.941958
1300.814167	304.408392
1302.842522	309.090210
1304.866671	321.004196
1306.894086	318.206294
1308.917298	310.371329
1310.941908	307.256643
1312.964183	311.405594
1314.987856	306.685315
1317.009196	302.917483
1319.030069	294.830070
1321.050474	291.501399
1323.066686	287.193706
1325.084295	290.034266
1327.099576	289.491608
1329.118116	293.427972
1331.132466	288.506294
1333.144491	289.883916
1335.159774	290.315385
1337.170871	291.500000
1339.183364	290.387413
1341.191675	300.655944
1343.203242	302.882517
1345.208770	297.130769
1347.217553	294.960839
1349.222158	293.051748
1351.230017	295.632867
1353.237414	296.894406
1355.238780	291.007692
1357.241542	288.232168
1359.243845	286.106993
1361.245688	290.321678
1363.247071	293.431469
1365.246140	290.088112
1367.244751	279.982517
1369.242904	272.339161
1371.240599	269.787413
1373.234131	267.240559
1375.229058	267.168531
1377.223529	268.541259
1379.217543	266.757343
1381.209250	259.818182
1383.200501	258.001399
1385.189447	257.830769
1387.179788	252.985315
1389.169675	246.820979
1391.157257	245.611189
1393.144386	244.323776
1395.129213	243.945455
1397.115435	248.416783
1399.099356	253.518182
1401.082825	259.359441
1403.065842	260.744056
1405.046561	251.867133
1407.028674	254.958741
1409.008490	257.135664
1410.987856	258.020280
1412.963083	255.909790
1414.941548	250.397203
1416.917720	250.507692
1418.893442	253.441958
1420.868715	254.258042
1422.841698	253.488811
1424.814232	256.478322
1426.786318	255.325874
1428.757957	248.355245
1430.725467	253.381119
1432.698051	257.316783
1434.662829	258.370629
1436.632680	260.930769
1438.598406	259.581818
1440.565526	268.204895
1442.530362	273.041958
1444.491078	269.729371
1446.456862	267.254545
1448.416691	268.373427
1450.377914	266.255245
1452.340528	260.600699
1454.299028	256.863636
1456.257086	258.267832
1458.214701	254.248951
1460.171875	252.721678
1462.126773	252.086014
1464.083064	256.377622
1466.037080	259.365734
1467.990655	255.814685
1469.941958	254.337762
1471.894653	247.419580
1473.845077	231.350350
1475.795062	223.911888
1477.744608	217.949650
1479.691885	224.449650
1481.636894	220.055245
1483.583296	220.879720
1485.529260	227.214685
1487.474787	230.338462
1489.418048	238.500000
1491.360873	242.835664
1493.301435	240.604196
1495.243389	239.572028
1497.183080	236.855245
1499.122336	248.003497
1501.061158	249.525175
1502.997720	263.813986
1504.935673	261.383217
1506.871367	267.557343
1508.806628	266.210490
1510.739632	261.221678
1512.672204	258.806294
1514.604344	255.958042
1516.536052	247.697902
1518.465507	243.994406
1520.396352	240.706294
1522.326765	241.140559
1524.253106	244.655245
1526.180837	251.744755
1528.106319	258.479720
1530.031371	273.276923
1531.955993	288.599301
1533.880187	290.663636
1535.802134	296.373427
1537.725471	296.897902
1539.646561	290.874126
1541.565407	295.858741
1543.485643	301.214685
1545.403635	312.411189
1547.321201	319.638462
1549.236526	334.705594
1551.153240	359.086014
1553.065898	374.769231
1554.981761	395.525874
1556.895385	398.953846
1558.806770	419.600699
1560.719545	447.104895
1562.628270	491.893706
1564.538384	556.942657
1566.448075	635.806294
1568.357343	740.004196
1570.264376	850.295804
1572.169177	986.339860
1574.075367	1112.440559
1575.979326	1208.467133
1577.882863	1274.664336
1579.785980	1286.839161
1581.686867	1275.112587
1583.589143	1217.355944
1585.489190	1131.372727
1587.390626	1006.452448
1589.288027	872.260839
1591.185011	748.934965
1593.081576	639.120979
1594.979528	551.499301
1596.871646	482.860839
1598.766958	428.595804
1600.661851	403.413287
1602.554524	381.940559
1604.446779	389.931469
1606.336815	400.159441
1608.226435	412.487413
1610.115640	408.997902
1612.004429	414.993706
1613.891002	422.344056
1615.778962	428.306294
1617.662905	423.924476
1619.548235	412.082517
1621.433152	395.830070
1623.315855	384.375524
1625.199945	352.338462
1627.080023	329.744755
1628.961488	301.529371
1630.840743	281.121678
1632.721385	265.800699
1634.596222	257.037762
1636.476040	248.137063
1638.351853	266.090909
1640.227257	268.142657
1642.104046	269.581119
1643.975038	267.809091
1645.849213	280.818182
1647.719388	266.430769
1649.592744	257.883916
1651.463897	241.177622
1653.332848	240.890210
1655.203185	228.275524
1657.069528	215.986713
1658.937258	215.759441
1660.802788	230.104895
1662.669704	234.962238
1664.532630	241.221678
1666.396943	256.900000
1668.259059	264.243357
1670.120770	246.093007
1671.983866	249.040559
1673.844768	234.662238
1675.703477	209.972727
1677.561782	181.781119
1679.421471	160.186713
1681.275394	158.279021
1683.132490	160.849650
1684.989182	167.882517
1686.841899	164.067133
1688.697787	180.917483
1690.549701	182.614685
1692.401214	191.140559
1694.252326	207.086014
1696.103037	191.823077
1697.953348	175.638462
1699.801475	170.686713
1701.650986	170.630769
1703.494747	183.827972
1705.343459	193.312587
1707.186424	199.511888
1709.032555	193.225175
1710.874725	194.367133
1712.720059	198.913986
1714.559653	192.489510
1716.400632	194.215385
1718.242993	181.246154
1720.081397	187.197203
1721.921185	195.834266
1723.758798	212.601399
1725.596016	222.152448
1727.431060	237.157343
1729.267487	241.924476
1731.101741	228.235664
1732.935602	222.688112
1734.769068	211.143357
1736.598588	200.465035
1738.431267	199.998601
1740.260002	187.033566
1742.091895	194.115385
1743.919845	187.548252
1745.747403	171.891608
1747.574570	169.880420
1749.401345	162.604196
1751.227728	142.881818
1753.050175	139.655245
1754.875777	144.965734
1756.697443	158.097203
1758.520492	188.861538
1760.341380	199.597203
1762.161878	201.169231
1763.983758	217.341259
1765.799938	213.620280
1767.619270	199.885315
1769.434675	203.204895
1771.253231	187.340559
1773.067861	165.156643
1774.882104	171.259441
1776.695961	181.144755
1778.509431	191.830769
1780.320747	191.323077
1782.133445	192.876923
1783.945756	191.607692
1785.754150	204.512587
1787.563925	203.035664
1789.369784	191.018182
1791.178790	198.367133
1792.983882	196.103497
1794.790355	182.651748
1796.596443	192.065734
1798.398622	193.846154
1800.203944	199.541958
1802.005358	205.886713
1803.808153	209.808392
1805.607041	207.850350
1807.407310	210.530070
1809.207197	203.048951
1811.004942	204.307692
1812.802307	207.487413
1814.599291	198.972028
1816.395895	194.632867
1818.190360	194.492308
1819.986205	191.475524
1821.776394	204.266434
1823.571480	191.046154
1825.360913	171.448252
1827.153484	172.398601
1828.943919	173.544755
1830.732219	169.322378
1832.523655	171.788112
1834.309446	164.020280
1836.096615	159.126573
1837.881654	161.757343
1839.669825	158.070629
1841.454111	164.523776
1843.236268	176.727273
1845.019804	179.197203
1846.801211	178.393007
1848.583996	183.055245
1850.362902	187.367832
1852.143186	186.246154
1853.921345	183.584615
1855.700881	182.413986
1857.478293	173.848252
1859.253582	185.646853
1861.030248	187.555245
1862.804792	192.009091
1864.580713	192.870629
1866.351015	190.012587
1868.124444	187.746154
1869.895753	187.097203
1871.666691	192.867832
1873.439007	194.958741
1875.205709	192.956643
1876.975536	193.600699
1878.741500	191.137063
1880.510588	198.101399
1882.275814	206.371329
1884.040672	196.827972
1885.806906	190.238462
1887.569282	182.735664
1889.331291	178.731469
1891.092933	167.100000
1892.854207	161.929371
1894.615115	159.242657
1896.375655	157.213287
1898.134087	151.158042
1899.892152	154.134266
1901.648110	157.126573
1903.405444	161.237762
1905.162413	149.709790
1906.917275	159.730070
1908.670032	159.042657
1910.422426	165.137762
1912.176196	160.182517
1913.927862	155.923776
1915.677425	165.926573
1917.428365	173.045455
1919.178941	171.909091
1920.925679	183.420979
1922.673792	186.487413
1924.419806	174.916084
1926.167196	172.151049
1927.912487	177.344056
1929.655681	178.912587
1931.400251	186.434266
1933.142724	177.648951
1934.884837	169.668531
1936.626591	175.031469
1938.367984	178.862238
1940.107284	184.928671
1941.846225	195.819580
1943.584807	202.115385
1945.321298	199.568531
1947.057430	195.497203
1948.794938	191.939860
1950.528623	196.147552
1952.263683	194.874126
1953.996654	180.047552
1955.729269	162.681119
1957.461527	157.076224
1959.193429	156.792308
1960.923246	159.427273
1962.650977	164.202797
1964.380083	171.395105
1966.108833	178.790909
1967.835500	180.317483
1969.561813	184.741958
1971.289500	193.684615
1973.011650	197.403497
1974.736901	189.039161
1976.458345	185.996503
1978.182889	179.379021
1979.905354	174.721678
1981.624015	173.453147
1983.345775	172.688112
1985.063733	168.188112
1986.783065	165.174825
1988.498597	160.247552
1990.218949	153.331469
1991.935503	158.517483
1993.648260	163.886713
1995.364113	164.520979
1997.077894	164.386014
1998.791325	162.883916
2000.502685	165.451748
2002.215417	164.456643
2003.924358	163.159441
2005.636393	161.691608
2007.342918	155.209790
2009.052536	152.828671
2010.760086	148.925175
2012.467289	151.338462
2014.172426	157.058741
2015.877216	161.640559
2017.583379	166.037762
2019.285758	174.938462
2020.989510	179.710490
2022.691199	176.704895
2024.392542	173.223776
2026.093541	166.094406
2027.792478	156.495804
2029.492787	148.602098
2031.189320	148.906294
2032.887225	137.179021
2034.583072	133.237762
2036.282004	131.065035
2037.975450	132.073427
2039.670267	134.095105
2041.364741	141.503497
2043.055448	140.370629
2044.749237	137.634266
2046.439261	144.995804
2048.130654	150.043357
2049.819995	151.723776
2051.510707	152.986713
2053.197655	145.142657
2054.884263	137.457343
2056.572242	137.333566
2058.256461	137.602797
2059.942050	137.164336
2061.627300	137.165035
2063.310502	137.069930
2064.995074	137.404895
2066.674182	147.534266
2068.358077	147.953147
2070.036510	145.320280
2071.718021	148.625874
2073.395780	148.735664
2075.073203	144.462238
2076.751995	153.224476
2078.428744	155.063636
2080.103452	154.081119
2081.779530	151.413287
2083.453566	151.231469
2085.127267	150.528671
2086.800634	151.495804
2088.471961	146.069231
2090.142954	142.010490
2091.813613	148.965734
2093.483938	146.318182
2095.153929	151.036364
2096.821883	155.180420
2098.489505	159.302797
2100.155093	158.406294
2101.822049	165.973427
2103.486972	169.179720
2105.151563	167.259441
2106.814122	158.916084
2108.478049	146.161538
2110.139945	139.236364
2111.801510	132.532168
2113.462745	128.866434
2115.121950	128.688811
2116.780826	133.039161
2118.439371	144.502098
2120.097587	149.353147
2121.752080	164.801399
2123.409637	164.795105
2125.066864	158.773427
2126.720371	151.234965
2128.375245	144.521678
2130.026400	142.402098
2131.680618	133.544755
2133.331118	131.696503
2134.982986	135.100699
2136.629445	138.563636
2138.280658	136.853147
2139.928159	137.168531
2141.577026	141.318881
2143.223874	140.543357
2144.870397	136.605594
2146.516594	142.440559
2148.159082	152.059441
2149.804629	158.204895
2151.446469	164.670629
2153.091366	165.419580
2154.732558	163.367133
2156.373426	155.224476
2158.013971	146.734266
2159.652503	150.875524
2161.292401	152.911189
2162.928599	148.729371
2164.566163	145.713986
2166.203405	152.420979
2167.838637	160.990909
2169.473547	159.116783
2171.108136	163.095804
2172.742404	158.499301
2174.372978	153.850350
2176.006604	150.272727
2177.636537	141.653147
2179.267837	148.646154
2180.897131	148.913986
2182.526106	145.480420
2184.154761	149.169231
2185.783097	147.951049
2187.409430	151.379720
2189.035445	150.093706
2190.659459	149.686713
2192.284838	146.985315
2193.908216	146.780420
2195.532959	140.802797
2197.154021	136.970629
2198.774766	145.289510
2200.396875	144.940559
2202.016987	144.839161
2203.635103	147.172028
2205.252903	141.393706
2206.870387	147.811888
2208.487556	144.910490
2210.104410	136.806294
2211.720949	132.153846
2213.335494	134.741259
2214.948048	134.713986
2216.561965	141.150350
2218.173891	136.998601
2219.787180	138.460140
2221.398478	137.279720
2223.007788	133.744056
2224.618460	136.755944
2226.227144	139.096503
2227.835516	134.933566
2229.441901	135.337063
2231.049648	135.704196
2232.655410	141.140559
2234.260860	144.115385
2235.864325	145.802098
2237.469153	139.951748
2239.071997	143.493706
2240.672858	142.098601
2242.275082	145.669231
2243.875324	150.543357
2245.476928	149.451748
2247.074879	148.724476
2248.674193	150.945455
2250.271527	146.357343
2251.868553	147.596503
2253.466940	153.718182
2255.061680	155.985315
2256.654442	156.994406
2258.248567	158.569231
2259.844053	153.541259
2261.435894	150.460140
2263.027429	152.518881
2264.620325	146.702797
2266.207912	139.467133
2267.800196	141.448951
2269.387172	150.320280
2270.977177	158.307692
2272.561877	153.688811
2274.151271	153.530769
2275.735362	148.975524
2277.320815	148.025175
2278.904299	136.774825
2280.490808	140.768531
2282.073684	142.065734
2283.656257	140.773427
2285.238526	151.356643
2286.817165	161.820979
2288.398829	170.425175
2289.976864	169.638462
2291.557922	158.675524
2293.135353	166.565035
2294.710821	159.653147
2296.289311	157.948951
2297.864177	146.554545
2299.438742	141.545455
2301.013006	133.572727
2302.586970	133.266434
2304.160634	126.758042
2305.733998	121.717483
2307.303742	134.686713
2308.873189	146.228671
2310.445653	148.307692
2312.012843	155.056643
2313.583050	146.521678
2315.149644	157.383217
2316.717596	154.023077
2318.283594	157.844056
2319.849294	165.065734
2321.414696	151.337762
2322.978145	152.338462
2324.542953	153.097902
2326.104152	164.861538
2327.668366	154.516783
2329.227319	142.358741
2330.789285	132.662937
2332.349301	113.574126
2333.909021	123.532168
2335.466792	111.475524
2337.024269	114.838462
2338.581451	123.903497
2340.136685	131.232867
2341.691625	162.332168
2343.246272	158.133566
2344.800625	158.506993
2346.354684	161.697203
2347.908450	178.854545
2349.460271	182.625175
2351.010149	179.530769
2352.563036	189.287413
2354.110679	166.890210
2355.661330	172.980420
2357.208391	169.759441
2358.756809	158.772028
2360.304935	140.634965
2361.849474	104.083217
2363.395370	91.338462
2364.939327	95.082517
2366.484642	106.274825
2368.026372	127.215385
2369.569460	145.860839
2371.110611	161.823776
2372.651473	159.629371
2374.192046	177.751748
2375.732330	170.790909
2377.272325	150.374126
2378.808741	131.530769
2380.348159	107.288112
2381.884000	113.276923
2383.421198	105.936364
2384.954820	117.950350
2386.491442	141.662238
2388.026134	155.383217
2389.558895	165.209091
2391.091371	171.774825
2392.621918	176.519580
2394.155463	183.655245
2395.683797	169.325175
2397.213487	155.832867
2398.742892	141.246154
2400.272012	141.583916
2401.800846	132.083916
2403.324476	147.534266
2404.852741	148.053846
2406.375803	162.195105
2407.903500	173.532867
2409.424357	169.598601
2410.949846	169.797902
2412.471776	166.957343
2413.995060	148.044056
2415.516424	156.644755
2417.035868	160.404196
2418.556667	163.546853
2420.075547	171.456643
2421.594146	194.282517
2423.110826	178.379021
2424.628862	181.892308
2426.146616	173.343357
2427.660818	166.148951
2429.174741	167.909790
2430.688383	151.021678
2432.203379	146.790909
2433.714828	160.333566
2435.227630	166.481818
2436.738520	169.258042
2438.249131	170.930070
2439.757830	187.779021
2441.269515	172.204196
2442.777657	184.125874
2444.285521	195.320280
2445.793106	207.020979
2447.297152	195.894406
2448.804182	193.707692
2450.309304	203.543357
2451.814149	200.903497
2453.317087	198.185315
2454.819748	189.744755
2456.322134	200.181818
2457.822613	216.075524
2459.324447	223.280420
2460.824375	237.600000
2462.324028	225.583916
2463.823406	209.673427
2465.320881	188.776224
2466.816454	185.776923
2468.315007	186.351049
2469.810032	169.179720
2471.306409	157.996503
2472.799260	158.138462
2474.293464	164.750350
2475.787394	184.025874
2477.277800	187.590210
2478.771184	181.238462
2480.262670	164.715385
2481.752259	161.523776
2483.241576	151.133566
2484.728997	154.170629
2486.219394	151.758741
2487.706273	150.326573
2489.194503	150.430769
2490.679216	165.341259
2492.163659	177.927273
2493.649454	190.890210
2495.133357	185.518182
2496.618610	185.056643
2498.098730	186.062937
2499.581822	169.388112
2501.063025	165.016084
2502.543958	155.404196
2504.023001	140.286713
2505.501777	135.102797
2506.980284	145.166434
2508.458522	161.618881
2509.936493	151.967832
2511.410958	151.581119
2512.888393	163.176224
2514.362323	160.903497
2515.837605	155.426573
2517.312619	145.460140
2518.784132	136.446154
2520.256996	119.686014
2521.727977	111.605594
2523.200308	118.815385
2524.667525	124.519580
2526.137709	128.397203
2527.606012	118.897203
2529.074049	132.681119
2530.541822	138.504196
2532.009330	126.663636
2533.476574	129.124476
2534.940325	132.425874
2536.405426	130.435664
2537.868650	142.027273
2539.333223	151.130070
2540.794308	168.553846
2542.256742	172.306993
2543.718913	186.376224
2545.177597	197.002098
2546.640854	197.684615
2548.099014	194.020280
2549.558523	182.067832
2551.012939	175.359441
2552.471925	173.130070
2553.929039	164.193007
2555.384281	158.863636
2556.839263	142.492308
2558.292375	139.990909
2559.746836	138.423077
2561.199428	149.124476
2562.651760	151.204895
2564.102224	146.518182
2565.555645	147.009790
2567.003983	138.602098
2568.455276	134.282517
2569.904703	131.931469
2571.350659	130.441259
2572.799569	126.883916
2574.245008	125.046154
2575.691796	147.343357
2577.136720	162.364336
2578.581387	176.890210
2580.027401	181.325175
2581.469948	193.108392
2582.913843	188.506993
2584.354273	176.006993
2585.796051	169.646853
2587.235969	146.843357
2588.677234	137.627972
2590.115037	130.113287
2591.555790	123.900699
2592.991481	135.319580
2594.430120	146.930070
2595.866903	158.551748
2597.301830	169.837762
2598.739704	180.879021
2600.172521	186.823077
2601.606685	190.223077
2603.038994	185.749650
2604.472651	170.781119
2605.904453	159.514685
2607.336003	169.253846
2608.767299	162.609091
2610.196744	175.194406
2611.625936	180.651748
2613.053277	177.120979
2614.481965	169.606993
2615.910400	179.453147
2617.335389	183.151049
2618.761723	189.896503
2620.186210	188.346853
2621.612041	185.969231
2623.034430	179.409790
2624.458163	200.630769
2625.880051	215.348252
2627.301688	224.132867
2628.721481	231.516783
2630.142619	238.100699
2631.563507	242.478322
2632.980956	253.495105
2634.401345	259.151748
2635.818297	271.837063
2637.235001	270.076224
2638.651456	262.569231
2640.067663	267.843357
2641.483622	271.844056
2642.897740	282.327972
2644.311610	286.793706
2645.723641	306.261538
2647.137017	309.522378
2648.546963	319.785315
2649.959845	333.232867
2651.369298	360.018182
2652.778505	388.540559
2654.185876	411.840559
2655.596181	427.439860
2657.004650	451.034965
2658.411284	485.421678
2659.817673	516.368531
2661.222229	538.691608
2662.628128	564.404196
2664.032193	575.911888
2665.436015	607.411888
2666.839592	632.840559
2668.241338	674.340559
2669.644427	699.930070
2671.044098	732.189510
2672.445113	751.372727
2673.842712	776.688811
2675.243240	807.534266
2676.640354	812.764336
2678.038811	821.055245
2679.435440	835.527273
2680.831828	843.297902
2682.227973	856.873427
2683.622292	847.705594
2685.017954	853.788112
2686.410207	839.176224
2687.803802	828.890210
2689.195573	805.054545
2690.588687	785.104895
2691.979976	751.023776
2693.369444	722.039860
2694.758671	692.664336
2696.147658	668.316084
2697.537988	640.579720
2698.923334	612.621678
2700.311603	566.770629
2701.698052	542.866434
2703.084262	510.823077
2704.470233	489.158741
2705.852806	466.468531
2707.236721	456.124476
2708.620397	436.290210
2710.003836	413.282517
2711.383879	403.025175
2712.765264	384.300699
2714.144833	368.805594
2715.525744	360.080420
2716.904840	327.609790
2718.282122	318.204196
2719.660745	315.542657
2721.037554	310.981818
2722.414128	290.360839
2723.790466	291.736364
2725.164992	284.308392
2726.540859	271.376224
2727.913339	270.003497
2729.288736	259.834266
2730.659172	265.553147
2732.030948	259.179021
2733.402491	236.130769
2734.772225	238.060839
2736.143299	229.627972
2737.512566	219.943357
2738.881599	206.041259
2740.248826	204.629371
2741.615819	197.023077
2742.982580	190.472028
2744.349108	186.276224
2745.713832	189.383916
2747.078323	181.486014
2748.442582	172.220979
2749.806610	153.117483
2751.170405	154.061538
2752.530828	154.511189
2753.894160	160.786713
2755.252550	163.563636
2756.613850	165.735664
2757.971780	166.048252
2759.332618	178.106294
2760.691656	181.548252
2762.047326	175.515385
2763.405905	162.767133
2764.761116	158.586014
2766.116098	149.031469
2767.469283	151.391608
2768.825375	152.260839
2770.178103	145.630769
2771.530602	144.613287
2772.882874	142.337063
2774.236483	136.118881
2775.586731	138.637762
2776.935186	138.006294
2778.286545	131.658042
2779.634545	130.826573
2780.983884	144.305594
2782.331430	146.780420
2783.678750	147.955944
2785.025842	143.562937
2786.371144	139.129371
2787.716220	134.993706
2789.061070	128.839161
2790.405694	114.943357
2791.746965	115.004196
2793.089575	122.974825
2794.431960	117.384615
2795.774119	124.330769
2797.112929	129.018881
2798.454639	119.495105
2799.793000	125.940559
2801.132699	111.977622
2802.470612	110.367133
2803.806741	109.079021
2805.142647	116.259441
2806.479889	110.627972
2807.815348	112.802098
2809.150584	121.645455
2810.484038	120.134266
2811.818828	127.408392
2813.150277	123.367133
2814.484622	136.534965
2815.814069	160.832867
2817.144853	161.641259
2818.475415	166.330769
2819.804198	162.490210
2821.134318	157.729371
2822.462659	144.220280
2823.790778	145.502797
2825.117121	140.241958
2826.444799	124.620280
2827.769145	108.888811
2829.094827	106.079720
2830.418733	111.678322
2831.742419	132.704196
2833.067441	129.597902
2834.389134	131.642657
2835.710608	127.883916
2837.031862	127.500699
2838.352898	140.818881
2839.672162	156.097902
2840.992761	159.825175
2842.311588	153.248951
2843.630197	146.481119
2844.947036	149.930769
2846.263657	141.480420
2847.580061	147.481119
2848.894695	139.100000
2850.210664	132.636364
2851.523314	116.396503
2852.837298	102.264336
2854.151066	102.751049
2855.464617	108.128671
2856.776402	119.315385
2858.086420	117.176224
2859.397773	124.639161
2860.705811	136.586014
2862.015183	135.345455
2863.324340	139.884615
2864.633282	137.188811
2865.940461	133.582517
2867.245876	119.785315
2868.552626	106.377622
2869.857614	103.932168
2871.162387	112.056643
2872.465400	114.437063
2873.771293	116.025874
2875.072332	120.625175
2876.374704	122.132867
2877.675318	120.453846
2878.977264	132.181119
2880.278998	134.795804
2881.577428	137.999301
2882.877191	145.602098
2884.175197	142.437063
2885.472991	133.756643
2886.769028	134.633566
2888.066399	124.079021
2889.362015	111.364336
2890.657419	98.743357
2891.952612	88.760140
2893.244508	70.926573
2894.539279	71.736364
2895.830755	76.901399
2897.123563	83.460140
2898.416161	119.330769
2899.705464	135.839161
2900.996101	139.962238
2902.284986	163.450350
2903.575203	170.311888
2904.862129	172.016084
2906.150387	163.196503
2907.436896	143.399301
2908.723196	113.025874
2910.009288	93.250350
2911.293632	70.813287
2912.580848	49.395105
2913.863237	52.553846
2915.146958	45.679021
2916.428932	41.136364
2917.710700	55.534965
2918.990722	60.013986
2920.273614	79.023776
2921.554761	85.112587
2922.832626	103.739860
2924.113360	110.520979
2925.390813	113.258042
2926.668061	121.154545
2927.943566	113.032867
2929.221939	108.937762
2930.495498	101.442657
2931.771924	90.913986
2933.046608	94.228671
2934.319553	97.036364
2935.593829	102.656643
2936.866364	106.446853
2938.138696	116.360140
2939.407755	130.693007
2940.679679	132.209790
2941.949865	137.000699
2943.219847	122.172028
2944.489626	129.571329
2945.757668	128.968531
2947.023975	119.511888
2948.290079	130.209091
2949.557514	112.823077
2950.823213	95.082517
2952.088710	92.204196
2953.354006	85.016783
2954.616036	84.307692
2955.879396	72.816783
2957.142555	75.603497
2958.403981	90.744056
2959.666738	100.126573
2960.927762	112.476923
2962.187056	119.281119
2963.446149	124.776224
2964.705042	120.680420
2965.963735	121.792308
2967.222228	126.644056
2968.478992	108.680420
2969.735557	101.985315
2970.990393	100.550350
2972.246559	100.244755
2973.499470	96.657343
2974.753709	82.809091
2976.007750	86.907692
2977.260065	87.846853
2978.512182	89.483916
2979.762574	97.809790
2981.015821	93.989510
2982.264291	101.217483
2983.515616	90.041958
2984.763691	97.106294
2986.011569	94.179021
2987.259251	102.200000
2988.506735	99.551748
2989.752498	99.697203
2990.998064	99.369930
2992.244959	114.584615
2993.488609	111.574126
2994.733586	110.858741
2995.975321	104.600000
2997.219907	108.171329
2998.462774	107.601399
2999.702400	110.402797
3000.944876	116.290210
3002.184112	128.297203
3003.424676	135.960839
3004.663523	124.958042
3005.902176	134.049650
3007.139113	140.672028
3008.377378	130.697902
3009.613927	132.725874
3010.850283	133.720280
3012.086445	129.942657
3013.320893	126.388112
3014.555148	119.873427
3015.789210	115.329371
3017.021560	109.208392
3018.252198	105.936364
3019.485682	91.155245
3020.717455	93.590210
3021.947516	88.646154
3023.177386	93.864336
3024.405546	95.532168
3025.635033	103.390210
3026.862810	95.588112
3028.090396	89.502098
3029.319308	100.121678
3030.543478	102.839161
3031.770491	99.148252
3032.994281	97.377622
3034.219396	90.507692
3035.442806	83.843357
3036.666025	81.840559
3037.887539	88.295804
3039.111894	85.065035
3040.331514	91.269231
3041.552460	83.874126
3042.773216	77.775524
3043.992270	82.181818
3045.212648	78.107692
3046.429810	58.008392
3047.648297	57.194406
3048.865083	58.289510
3050.081680	53.741259
3051.298090	51.774825
3052.511286	68.286713
3053.727320	65.542657
3054.940142	69.140559
3056.155801	64.393706
3057.366737	69.610490
3058.578999	79.134965
3059.791073	87.791608
3061.002961	85.557343
3062.213152	99.099301
3063.423156	109.641259
3064.632974	113.982517
3065.841096	111.130070
3067.049033	120.295804
3068.255274	100.574825
3069.462840	103.208392
3070.668711	100.904895
3071.874397	109.223776
3073.079899	102.260140
3074.283707	92.864336
3075.488839	84.604895
3076.692278	85.728671
3077.894025	90.887413
3079.095589	93.104895
3080.296969	88.347552
3081.498165	99.946154
3082.697671	102.180420
3083.896994	110.937762
3085.097640	109.014685
3086.296596	103.722378
3087.492357	92.399301
3088.690948	91.256643
3089.886345	93.472727
3091.083066	86.241958
3092.276594	77.400699
3093.472950	65.751049
3094.667619	68.226573
3095.859098	84.109091
3097.054908	89.772028
3098.246025	87.748252
3099.438465	85.113986
3100.627716	83.734266
3101.819794	85.563636
3103.010188	93.020979
3104.197396	95.618182
3105.385926	89.118182
3106.575779	92.493706
3107.762447	82.780420
3108.948936	90.090210
3110.135246	99.632168
3111.322877	98.740559
3112.507326	88.220280
3113.690096	72.741958
3114.875688	68.613986
3116.059601	74.948252
3117.241834	78.326573
3118.423890	85.877622
3119.605767	93.531469
3120.787466	104.874825
3121.967488	106.876224
3123.145833	119.527972
3124.326998	117.419580
3125.504988	100.861538
3126.682801	79.853147
3127.860437	71.596503
3129.036398	66.234266
3130.212183	61.818881
3131.389288	57.416084
3132.564720	65.831469
3133.738478	69.142657
3134.910563	76.997902
3136.083969	86.057343
3137.257200	90.953846
3138.428759	86.938462
3139.601638	83.658741
3140.771350	89.011888
3141.942383	88.275524
3143.111745	83.027972
3144.279438	75.248951
3145.449946	75.703497
3146.615795	77.712587
3147.785954	76.932867
3148.951455	78.418182
3150.116783	75.893007
3151.281937	67.395804
3152.446918	72.937762
3153.613218	68.383217
3154.774865	74.518182
3155.937833	75.627972
3157.100628	74.553846
3158.263249	70.641259
3159.424206	72.269231
3160.584991	88.313986
3161.745603	94.497203
3162.904551	99.375524
3164.063327	90.302797
3165.221932	80.607692
3166.380365	91.148951
3167.538626	92.623077
3168.695226	99.064336
3169.850164	102.927273
3171.006421	90.850350
3172.161017	91.834965
3173.315443	94.942657
3174.468208	107.667832
3175.620804	103.709091
3176.773230	98.700000
3177.925485	84.357343
3179.077571	83.331469
3180.226510	84.406294
3181.378256	83.300699
3182.528345	78.262937
3183.676776	74.104196
3184.825039	62.655245
3185.973133	65.090909
3187.121058	67.998601
3188.267327	80.681818
3189.413428	83.030769
3190.557875	84.439860
3191.702153	82.609790
3192.846264	88.252448
3193.991693	83.974126
3195.133983	82.026573
3196.276105	90.999301
3197.418061	95.348951
3198.559849	95.025175
3199.701470	96.107692
3200.839956	97.555245
3201.979759	93.671329
3203.120879	84.820979
3204.258866	77.038462
3205.395202	68.332867
3206.531374	66.528671
3207.668862	67.577622
3208.804702	70.402098
3209.941859	76.399301
3211.074403	89.181119
3212.211228	98.337762
3213.343443	97.045455
3214.476974	97.605594
3215.610340	97.657343
3216.740580	101.049650
3217.873617	89.906294
3219.003527	83.499301
3220.134755	78.849650
3221.262857	69.731469
3222.393757	58.723776
3223.523012	45.587413
3224.650624	54.787413
3225.775113	65.610490
3226.903878	63.102797
3228.029521	90.462937
3229.155001	113.223776
3230.278840	123.794406
3231.405474	127.736364
3232.527510	137.300000
3233.650862	135.222378
3234.774051	127.550350
3235.897079	120.173427
3237.018467	114.264336
3238.139694	112.835664
3239.259282	113.704196
3240.378709	104.448951
3241.496499	113.744056
3242.617080	113.830070
3243.734548	104.906294
3244.851855	108.697203
3245.969002	112.271329
3247.084512	102.711888
3248.201338	98.395105
3249.315053	96.355944
3250.431559	106.511888
3251.546429	107.362238
3252.658191	109.314685
3253.769794	112.566434
3254.882712	107.509790
3255.995470	109.316084
3257.105122	93.932168
3258.216089	93.234266
3259.326897	77.048951
3260.436073	54.216783
3261.543618	47.244755
3262.652478	45.210490
3263.761179	50.048252
3264.866778	56.452448
3265.973692	65.553147
3267.078976	75.421678
3268.185574	81.658741
3269.289072	83.472727
3270.393884	81.884615
3271.498539	78.116783
3272.600096	80.758042
3273.701496	84.267133
3274.804210	88.307692
3275.906768	91.984615
3277.006229	90.172727
3278.108474	95.386713
3279.207623	90.231469
3280.305147	83.851049
3281.402517	84.037063
3282.502668	74.451049
3283.599727	68.539860
3284.696630	67.448951
3285.793378	80.211888
3286.885567	70.587413
3287.982006	73.083217
3289.076822	70.032168
3290.171483	66.461538
3291.264523	65.444056
3292.357409	68.375524
3293.448674	65.629371
3294.541252	72.337063
3295.632210	72.744056
3296.721548	69.886713
3297.810733	70.467133
3298.901230	66.648252
3299.988643	69.534965
3301.075904	84.505594
3302.164477	88.538462
3303.252897	92.455245
3304.336771	78.165734
3305.424885	76.932867
3306.509919	60.669231
3307.593337	60.583916
3308.678067	57.451748
3309.761181	50.703497
3310.845607	49.694406
3311.926956	48.996503
3313.009616	61.784615
3314.090661	82.114685
3315.171556	93.670629
3316.250838	85.881818
3317.329969	63.185315
3318.410412	55.649650
3319.487780	52.650350
3320.566460	51.250350
3321.643528	52.474825
3322.720446	48.536364
3323.795754	55.574825
3324.870912	48.372727
3325.947381	59.590210
3327.020780	69.586014
3328.094029	75.656643
3329.168590	76.489510
3330.241542	63.877622
3331.312885	59.213986
3332.385539	69.981119
3333.455126	62.334965
3334.526024	61.312587
3335.595316	63.673427
3336.665917	64.034266
3337.734912	64.697203
3338.802302	71.360140
3339.868086	72.393706
3340.938096	86.044755
3342.005042	91.953846
3343.068928	90.713287
3344.135580	85.230070
3345.200629	85.139161
3346.264074	75.004895
3347.327373	72.761538
3348.390525	71.413986
3349.453531	67.272727
3350.516391	63.760839
3351.577648	53.158741
3352.635849	48.820979
3353.698271	53.570629
3354.757637	56.951748
3355.816857	60.057343
3356.877386	58.600000
3357.933407	63.643357
3358.992191	69.358042
3360.046468	73.948951
3361.103509	67.668531
3362.158951	69.369930
3363.215702	64.090909
3364.270856	65.516084
3365.324412	69.571329
3366.376371	67.665734
3367.431093	62.932168
3368.482765	69.288112
3369.534293	72.816084
3370.587131	78.948951
3371.636921	74.512587
3372.688020	79.482517
3373.736072	77.132168
3374.786885	79.255944
3375.834652	84.027972
3376.882277	87.948951
3377.929760	79.625175
3378.975650	68.242657
3380.022848	56.944056
3381.067003	56.444755
3382.113917	50.802797
3383.159240	52.475524
3384.201521	54.535664
3385.243661	62.441958
3386.287110	51.603497
3387.330417	47.258042
3388.372134	51.829371
3389.413711	51.504196
3390.455146	45.995105
3391.494993	54.344056
3392.533251	40.374126
3393.572817	35.825874
3394.612243	36.716783
3395.650081	38.337063
3396.686332	35.602797
3397.722443	30.881119
3398.759862	30.606993
3399.794248	25.160140
3400.829942	37.004196
3401.865496	45.745455
3402.898018	43.213287
3403.933294	52.435664
3404.965540	54.680420
3405.997646	59.157343
3407.028170	65.225175
3408.060000	66.139161
3409.091692	55.315385
3410.120356	59.069930
3411.148883	58.303497
3412.178716	43.469231
3413.208412	50.377622
3414.235082	45.058042
3415.263058	29.353846
3416.288010	28.413287
3417.315713	29.515385
3418.340391	24.183217
3419.366376	29.147552
3420.390782	32.682517
3421.415051	25.404196
3422.437741	41.804196
3423.460295	54.149650
3424.484155	60.950350
3425.504995	72.644755
3426.525699	75.491508
3427.547709	76.124326
3428.566701	74.909291
3429.585558	72.212488
3430.605721	68.400000
3431.622867	63.837912
