-117.633747	12.920604
-114.964146	6.900000
-112.297481	3.151299
-109.631568	1.331668
-106.968588	1.098277
-104.304177	2.108292
-101.642697	4.018881
-98.979788	6.339860
-96.321985	9.317483
-93.662753	11.667133
-91.004269	12.647552
-88.348710	13.158741
-85.691721	12.281818
-83.039831	12.545455
-80.386511	11.585315
-77.736110	7.200699
-75.084281	10.687413
-72.437542	9.228671
-69.789373	7.817483
-67.141947	7.783217
-64.497436	10.894406
-61.851495	10.274825
-59.210636	10.119580
-56.568348	11.332867
-53.928969	13.887413
-51.288161	16.190909
-48.648092	16.950350
-46.013097	18.304196
-43.376672	21.618182
-40.743150	22.148951
-38.108200	25.386014
-35.478316	28.145455
-32.844838	32.416084
-30.216423	32.724476
-27.588742	31.560839
-24.959632	23.753147
-22.335580	-15.488811
-19.707937	-144.446853
-17.085349	-596.427972
-14.463491	-1055.209091
-11.842364	604.193706
-9.221968	2974.193007
-6.604459	4877.684615
-3.985522	6199.141958
-1.369471	6937.844755
1.245853	7085.503497
3.860448	6648.902797
6.472162	5635.115385
9.085303	4069.426573
11.693412	2057.249650
14.305101	-101.949650
16.911760	-1358.585315
19.519848	-565.518881
22.127210	-17.020280
24.729548	29.926573
27.335464	27.049650
29.936359	28.719580
32.538681	23.417483
35.135985	23.695105
37.736866	21.569231
40.332731	17.317483
42.930024	16.041259
45.526598	15.079021
48.118163	13.806294
50.711157	12.635664
53.301289	12.344755
55.892848	10.797902
58.481549	6.980420
61.071676	9.723776
63.656804	7.714685
66.243360	11.877622
68.829201	9.698601
71.412189	11.486713
73.996604	15.622378
76.573889	16.106294
79.154741	10.622378
81.732744	8.855245
84.310037	5.222378
86.888757	4.947552
89.462494	3.874825
92.037658	5.784615
94.609979	4.604196
97.181593	7.016783
99.750366	8.401399
102.320566	12.804196
104.887927	17.209790
107.456715	14.700000
110.022666	13.741958
112.585782	16.430070
115.152454	17.293706
117.709904	22.375524
120.273040	28.057343
122.831217	37.318881
125.392948	55.102797
127.949722	88.533566
130.507922	131.854545
133.061170	191.243357
135.613720	265.929371
138.169820	345.227972
140.720972	427.943357
143.271427	510.876923
145.821184	582.362937
148.368122	640.237063
150.914365	682.132867
153.462033	705.166434
156.009005	716.781119
158.551041	714.516783
161.092385	704.730769
163.633035	699.830769
166.175110	691.262937
168.714375	681.406993
171.250830	675.972028
173.786595	675.157343
176.323785	672.801399
178.860284	674.076224
181.393977	676.155944
183.924866	673.833566
186.455067	676.732168
188.986694	675.650350
191.515519	676.241259
194.041545	679.084615
196.566885	674.756643
199.093650	671.718881
201.617619	668.388811
204.140902	666.104196
206.663501	665.106993
209.183307	663.906294
211.702430	665.722378
214.220870	669.955245
216.740735	682.279720
219.253597	692.709091
221.769991	705.408392
224.285704	718.625175
226.796526	726.760140
229.308773	734.851748
231.818237	742.346154
234.327023	746.848951
236.835131	748.080420
239.344663	748.393706
241.849314	748.929371
244.353289	751.812587
246.858688	752.606993
249.359212	752.827273
251.863259	752.214685
254.360336	750.313287
256.860935	742.843357
259.358763	742.220979
261.855918	741.486713
264.352401	738.883217
266.844020	738.253846
269.339159	738.076923
271.831531	737.287413
274.323233	742.865734
276.812172	747.437063
279.302534	750.428671
281.790135	753.061538
284.274976	757.367133
286.763332	762.111888
289.244748	777.064336
291.729678	795.548252
294.209762	814.740559
296.693359	830.299301
299.172114	839.609790
301.652291	844.970629
304.129717	846.466434
306.606479	840.276923
309.082577	834.009091
311.555927	829.686713
314.028616	826.744056
316.500643	826.241259
318.972008	824.386014
321.440630	822.889510
323.908592	817.400699
326.377977	807.505594
328.842539	788.858741
331.310605	769.022378
333.773850	745.272028
336.236439	719.232867
338.698371	704.548951
341.159646	691.124476
343.618186	684.202098
346.078149	678.387413
348.535380	667.819580
350.991956	662.978322
353.447878	657.354545
355.901070	654.895105
358.355685	652.604196
360.805498	652.701399
363.258807	646.563636
365.707317	637.485315
368.155177	633.686014
370.604459	626.964336
373.048946	619.504196
375.494856	610.776923
377.940117	600.741958
380.382659	593.716084
382.824553	586.389510
385.265799	584.488112
387.704331	586.979720
390.144283	588.268531
392.581522	584.895105
395.016049	581.530070
397.454064	583.126573
399.887303	580.895105
402.321962	575.148951
404.751849	569.968531
407.185221	565.397203
409.613823	562.683217
412.041783	559.137063
414.471164	554.582517
416.895781	554.009091
419.321818	551.663636
421.747216	547.035664
424.171973	543.815385
426.591971	545.160839
429.013391	543.652448
431.432114	540.093007
433.852258	537.479720
436.269707	532.357343
438.688577	526.255944
441.104752	516.054545
443.516181	506.216783
445.931086	495.807692
448.343301	484.328671
450.754882	471.988811
453.165830	464.617483
455.574090	456.334266
457.981719	451.077622
460.388715	446.341958
462.795080	442.174126
465.198762	437.586014
467.601814	438.465734
470.004236	438.495804
472.406028	440.506294
474.805142	441.716783
477.205676	445.137063
479.605581	448.509091
482.000764	455.477622
484.399412	462.850350
486.793341	474.255245
489.186644	485.704196
491.579322	504.187413
493.971373	524.041259
496.364844	556.640559
498.753602	608.784615
501.139694	724.852448
503.527206	973.024476
505.914095	1435.185315
508.298319	2089.340559
510.683963	2861.633566
513.066945	3619.547552
515.447265	4248.226573
517.829006	4661.453147
520.208087	4824.320280
522.588586	4701.740559
524.966429	4333.554545
527.341615	3770.367832
529.716184	3131.878322
532.092172	2543.411888
534.465507	2105.288811
536.840259	1806.971329
539.210325	1613.569231
541.579777	1468.462238
543.950646	1350.441259
546.316834	1246.534965
548.684441	1161.159441
551.049402	1086.590909
553.413751	1026.562937
555.777486	979.454545
558.142639	943.696503
560.503120	906.333566
562.865018	873.419580
565.224277	844.923776
567.580897	817.977622
569.940963	798.925175
572.294337	777.930070
574.651156	757.941259
577.005340	737.420979
579.358915	722.329371
581.711883	702.911888
584.062218	686.113986
586.413971	665.253147
588.759047	641.213986
591.109586	619.271329
593.453453	603.065035
595.802781	591.232867
598.147460	586.923077
600.489515	580.206993
602.832987	582.094406
605.173836	589.817483
607.514082	606.286014
609.851708	625.360839
612.192769	637.480420
614.529193	646.211888
616.867033	650.657343
619.202256	648.232168
621.534862	639.655944
623.868886	628.826573
626.200295	614.279021
628.531106	595.779021
630.861319	580.036364
633.190935	567.344755
635.515927	560.234965
637.846361	553.639161
640.172174	542.746154
642.495379	533.331469
644.820001	528.847552
647.142017	518.721678
649.463439	509.125175
651.782258	502.951049
654.102494	497.060839
656.422135	494.132867
658.739177	492.420979
661.055626	493.411189
663.369477	495.609091
665.684744	496.383916
667.997414	498.376923
670.311499	500.962238
672.620984	502.222378
674.931885	497.996503
677.240192	497.187413
679.547912	490.704196
681.857047	483.659441
684.161589	477.533566
686.465545	470.059441
688.768914	460.175524
691.073699	449.596503
693.373896	439.898601
695.675509	433.083217
697.976536	424.180420
700.272982	417.314685
702.570843	410.702797
704.868120	407.934266
707.164814	401.248951
709.456932	398.831469
711.752460	396.159441
714.043416	394.867133
716.335786	393.377622
718.625580	390.896503
720.914795	389.584615
723.203430	392.542657
725.489492	392.718182
727.776968	394.134965
730.061874	387.188811
732.346202	384.700000
734.627961	381.117483
736.911134	377.011888
739.193730	378.824476
741.471770	377.266434
743.751224	378.392308
746.030103	379.234266
748.308407	379.013986
750.582160	384.871329
752.857328	387.003497
755.131922	387.228671
757.403957	384.368531
759.677405	384.256643
761.948295	377.779720
764.216629	370.350350
766.486376	369.198601
768.753568	362.957343
771.020191	367.196503
773.286243	367.730769
775.549744	368.206993
777.814657	369.777622
780.079002	368.644056
782.338816	366.583916
784.600044	364.388811
786.860704	361.117483
789.118818	363.011888
791.374387	361.455944
793.633346	360.361538
795.885807	364.091608
798.143635	376.481119
800.396944	380.941259
802.647712	390.705594
804.899894	397.735664
807.149536	400.756643
809.400590	398.701399
811.647133	396.448252
813.895089	388.274825
816.140509	388.339860
818.387342	383.670629
820.633612	377.915385
822.875379	376.509091
825.120528	370.668531
827.359206	364.113287
829.601265	366.438462
831.838826	370.110490
834.077799	370.332168
836.314245	366.054545
838.552102	368.231469
840.787434	369.164336
843.020242	368.696503
845.254462	373.964336
847.486160	373.751748
849.717303	367.103497
851.947891	359.176923
854.177925	351.694406
856.407404	352.305594
858.632403	353.325175
860.860775	349.457343
863.084669	346.234965
865.309974	347.381818
867.530803	351.451049
869.755004	349.093007
871.974732	348.908392
874.195870	348.548252
876.416458	348.384615
878.634537	354.959441
880.854025	352.933566
883.069047	355.833566
885.283521	363.061538
887.497448	357.427972
889.710827	358.055245
891.923660	356.832867
894.135945	354.308392
896.345729	345.533566
898.554967	332.034266
900.763660	331.965734
902.969853	332.609091
905.177456	341.211189
907.382562	330.919580
909.587124	338.331469
911.789191	357.019580
913.992667	368.523077
916.193649	385.939860
918.394089	407.965035
920.595938	416.653147
922.791396	435.878322
924.990212	465.352448
927.184591	516.983217
929.382327	566.853147
931.575627	629.273427
933.770336	670.715385
935.962558	728.815385
938.154243	770.953846
940.345390	820.051748
942.534054	844.158042
944.722181	851.867832
946.907828	845.406294
949.096828	842.003497
951.281403	839.922378
953.465444	839.549650
955.652836	835.037063
957.831923	826.802797
960.014361	832.567133
962.196264	839.979021
964.375694	847.322378
966.552651	866.744755
968.731016	866.762937
970.910788	872.259441
973.084210	871.076224
975.260980	865.526573
977.433342	870.003497
979.607112	852.504895
981.776478	817.770629
983.949188	784.915385
986.119433	756.289510
988.289148	719.681119
990.458335	674.506993
992.623125	629.620979
994.791257	591.397203
996.954993	558.837762
999.120137	512.262238
1001.282821	485.499301
1003.444980	465.417483
1005.604682	440.125874
1007.763859	420.650350
1009.924443	416.190210
1012.082572	385.213986
1014.240178	397.744755
1016.397259	379.262937
1018.553818	381.616084
1020.705997	352.392308
1022.859583	371.318182
1025.012647	355.413287
1027.163262	362.927273
1029.315283	367.502098
1031.462932	371.041259
1033.613912	376.660839
1035.760521	381.396503
1037.906611	377.500000
1040.052183	394.165734
1042.199160	385.364336
1044.339848	388.278322
1046.483865	381.278322
1048.625443	423.030070
1050.766503	421.281119
1052.908969	420.580420
1055.045154	411.130769
1057.184666	395.218182
1059.319822	368.704196
1061.458303	369.784615
1063.592431	352.946154
1065.726045	324.853147
1067.861063	314.820280
1069.991732	313.439161
1072.123807	338.148951
1074.253451	338.046154
1076.382584	348.142657
1078.511206	348.237063
1080.639316	342.124476
1082.765000	353.033566
1084.890174	344.073427
1087.016752	353.814685
1089.138992	346.361538
1091.262637	320.738462
1093.381947	327.805594
1095.506486	336.452448
1097.624781	351.948951
1099.744479	344.301399
1101.861760	349.737762
1103.978533	361.653846
1106.094800	353.299301
1108.208652	364.205594
1110.323907	348.797203
1112.434840	344.941259
1114.549085	346.474126
1116.659009	334.233566
1118.770336	337.648951
1120.881160	336.324476
1122.987667	332.438462
1125.097483	317.122378
1127.202985	310.585315
1129.309891	307.411888
1131.410581	297.720979
1133.516483	291.065734
1135.618076	283.432168
1137.721071	282.448951
1139.823567	279.890909
1141.919855	280.207692
1144.021350	266.397203
1146.118543	269.725874
1148.215237	265.176923
1150.311434	259.539161
1152.407132	273.836364
1154.502333	275.089510
1156.595137	278.661538
1158.689343	289.820280
1160.777358	301.835664
1162.870571	305.779720
1164.957596	308.300000
1167.047921	309.905594
1169.133957	302.604196
1171.223291	299.026573
1173.306444	289.011189
1175.391000	285.309790
1177.476957	289.755944
1179.558632	294.381818
1181.641708	293.285315
1183.722399	304.405594
1185.802599	309.046853
1187.882307	309.756643
1189.961524	306.688811
1192.038358	312.070629
1194.112812	306.937762
1196.190558	306.826573
1198.264033	302.044056
1200.338910	297.095105
1202.409519	299.800000
1204.481529	303.551049
1206.551163	304.335664
1208.622198	298.801399
1210.692745	289.606294
1212.759032	286.076224
1214.826719	269.573427
1216.892033	271.601399
1218.958748	265.229371
1221.021207	267.874126
1223.086952	262.944056
1225.148442	255.789510
1227.211332	262.956643
1229.271855	260.783217
1231.331895	262.226573
1233.391451	257.211888
1235.448643	264.647552
1237.505352	273.755944
1239.559699	272.365035
1241.617326	292.406993
1243.672591	307.523776
1245.723615	316.910490
1247.776040	323.962937
1249.827984	327.332867
1251.877570	334.143357
1253.926677	327.343357
1255.975305	310.604196
1258.023455	305.218182
1260.071127	314.073427
1262.114568	309.706294
1264.161285	301.837762
1266.205648	298.385315
1268.249534	300.322378
1270.291070	300.335664
1272.330256	301.350350
1274.372715	310.965734
1276.410951	311.739860
1278.450586	312.457343
1280.489745	309.484615
1282.524687	315.665734
1284.561027	321.612587
1286.595022	309.543357
1288.630416	303.404895
1290.661596	293.530769
1292.694175	285.911888
1294.726282	291.745455
1296.756048	289.468531
1298.787211	292.444056
1300.814167	300.469231
1302.842522	312.457343
1304.866671	310.395105
1306.894086	313.269231
1308.917298	318.581119
1310.941908	311.416084
1312.964183	314.055944
1314.987856	308.516783
1317.009196	301.677622
1319.030069	308.357343
1321.050474	303.519580
1323.066686	302.131469
1325.084295	304.969930
1327.099576	307.736364
1329.118116	310.049650
1331.132466	316.182517
1333.144491	319.616783
1335.159774	313.899301
1337.170871	320.619580
1339.183364	323.552448
1341.191675	319.465734
1343.203242	319.120280
1345.208770	313.854545
1347.217553	308.616084
1349.222158	308.754545
1351.230017	312.144755
1353.237414	318.815385
1355.238780	320.273427
1357.241542	324.647552
1359.243845	321.480420
1361.245688	323.025874
1363.247071	320.488112
1365.246140	312.427273
1367.244751	308.630769
1369.242904	306.206294
1371.240599	302.767133
1373.234131	301.212587
1375.229058	304.151748
1377.223529	305.653147
1379.217543	312.588811
1381.209250	311.181818
1383.200501	301.448252
1385.189447	294.284615
1387.179788	290.855245
1389.169675	283.224476
1391.157257	283.124476
1393.144386	282.344056
1395.129213	277.513287
1397.115435	282.451748
1399.099356	288.993706
1401.082825	292.686713
1403.065842	299.138462
1405.046561	296.224476
1407.028674	294.193706
1409.008490	294.048252
1410.987856	302.283916
1412.963083	293.527273
1414.941548	298.895804
1416.917720	297.768531
1418.893442	297.034266
1420.868715	309.281119
1422.841698	315.368531
1424.814232	315.313287
1426.786318	313.306294
1428.757957	307.381818
1430.725467	302.780420
1432.698051	299.188112
1434.662829	293.662937
1436.632680	280.804196
1438.598406	278.476923
1440.565526	276.508392
1442.530362	279.297902
1444.491078	290.111189
1446.456862	301.691608
1448.416691	301.195105
1450.377914	303.086713
1452.340528	305.451748
1454.299028	306.209790
1456.257086	306.780420
1458.214701	303.252448
1460.171875	301.288112
1462.126773	296.731469
1464.083064	300.271329
1466.037080	296.527972
1467.990655	302.697902
1469.941958	305.079021
1471.894653	301.335664
1473.845077	289.123776
1475.795062	288.181818
1477.744608	288.729371
1479.691885	292.100000
1481.636894	291.823776
1483.583296	288.636364
1485.529260	292.374126
1487.474787	289.962238
1489.418048	282.413287
1491.360873	283.127273
1493.301435	272.573427
1495.243389	266.827972
1497.183080	255.772028
1499.122336	255.311189
1501.061158	259.095105
1502.997720	257.948951
1504.935673	251.558741
1506.871367	249.180420
1508.806628	254.655944
1510.739632	261.876224
1512.672204	271.288112
1514.604344	288.138462
1516.536052	299.751049
1518.465507	311.219580
1520.396352	318.125874
1522.326765	328.231469
1524.253106	336.115385
1526.180837	325.681119
1528.106319	315.888811
1530.031371	309.592308
1531.955993	309.321678
1533.880187	310.546853
1535.802134	311.837063
1537.725471	323.462937
1539.646561	315.876224
1541.565407	325.429371
1543.485643	334.641259
1545.403635	349.895105
1547.321201	366.155944
1549.236526	363.824476
1551.153240	374.707692
1553.065898	390.010490
1554.981761	399.493007
1556.895385	403.097203
1558.806770	416.099301
1560.719545	424.390909
1562.628270	426.886014
1564.538384	450.920280
1566.448075	474.949650
1568.357343	510.055245
1570.264376	558.491608
1572.169177	610.939161
1574.075367	684.444056
1575.979326	772.558042
1577.882863	848.992308
1579.785980	931.395105
1581.686867	1002.813986
1583.589143	1072.523077
1585.489190	1128.693706
1587.390626	1168.219580
1589.288027	1180.117483
1591.185011	1163.635664
1593.081576	1113.628671
1594.979528	1054.817483
1596.871646	973.673427
1598.766958	872.173427
1600.661851	761.563636
1602.554524	663.151748
1604.446779	566.351748
1606.336815	505.838462
1608.226435	449.751049
1610.115640	415.679021
1612.004429	386.727273
1613.891002	369.149650
1615.778962	360.060839
1617.662905	356.980420
1619.548235	358.981119
1621.433152	347.543357
1623.315855	337.197902
1625.199945	336.914685
1627.080023	332.379021
1628.961488	332.202098
1630.840743	308.665035
1632.721385	302.606993
1634.596222	281.335664
1636.476040	281.532867
1638.351853	268.313986
1640.227257	253.633566
1642.104046	249.534266
1643.975038	228.645455
1645.849213	215.213986
1647.719388	219.760839
1649.592744	211.507692
1651.463897	206.046853
1653.332848	190.215385
1655.203185	191.420280
1657.069528	194.644056
1658.937258	197.831469
1660.802788	199.878322
1662.669704	210.797902
1664.532630	221.600000
1666.396943	240.169231
1668.259059	256.427972
1670.120770	260.246853
1671.983866	239.405594
1673.844768	240.842657
1675.703477	232.190210
1677.561782	219.678322
1679.421471	219.422378
1681.275394	199.195105
1683.132490	208.465035
1684.989182	198.258042
1686.841899	212.788112
1688.697787	232.381119
1690.549701	226.924476
1692.401214	200.685315
1694.252326	175.390909
1696.103037	186.783217
1697.953348	174.360140
1699.801475	162.295105
1701.650986	157.521678
1703.494747	153.269231
1705.343459	156.528671
1707.186424	152.651049
1709.032555	175.360839
1710.874725	183.888112
1712.720059	182.372727
1714.559653	192.783217
1716.400632	210.910490
1718.242993	225.962937
1720.081397	219.215385
1721.921185	228.913287
1723.758798	216.844755
1725.596016	215.570629
1727.431060	201.730769
1729.267487	185.300000
1731.101741	177.990210
1732.935602	156.335664
1734.769068	155.796503
1736.598588	174.653846
1738.431267	184.704895
1740.260002	187.794406
1742.091895	202.340559
1743.919845	213.155944
1745.747403	206.230070
1747.574570	208.486713
1749.401345	201.984615
1751.227728	199.295804
1753.050175	186.386713
1754.875777	165.169930
1756.697443	171.520979
1758.520492	186.227273
1760.341380	196.272028
1762.161878	199.409091
1763.983758	211.068531
1765.799938	199.898601
1767.619270	212.593007
1769.434675	210.672727
1771.253231	210.112587
1773.067861	198.497902
1774.882104	181.388112
1776.695961	189.468531
1778.509431	182.974126
1780.320747	173.723077
1782.133445	180.423077
1783.945756	172.124476
1785.754150	170.935664
1787.563925	170.275524
1789.369784	167.711888
1791.178790	153.472028
1792.983882	153.247552
1794.790355	148.558042
1796.596443	146.423077
1798.398622	156.625874
1800.203944	147.596503
1802.005358	153.842657
1803.808153	178.369231
1805.607041	186.669231
1807.407310	185.151049
1809.207197	185.923776
1811.004942	167.497203
1812.802307	173.624476
1814.599291	182.725874
1816.395895	189.187413
1818.190360	190.418182
1819.986205	195.560839
1821.776394	194.593007
1823.571480	198.476923
1825.360913	207.827273
1827.153484	196.530070
1828.943919	180.413287
1830.732219	181.240559
1832.523655	177.118182
1834.309446	184.136364
1836.096615	197.423077
1837.881654	193.548252
1839.669825	192.282517
1841.454111	193.397902
1843.236268	178.692308
1845.019804	179.007692
1846.801211	182.562238
1848.583996	178.411189
1850.362902	189.383916
1852.143186	199.369231
1853.921345	196.156643
1855.700881	193.071329
1857.478293	202.756643
1859.253582	186.845455
1861.030248	189.582517
1862.804792	190.550350
1864.580713	170.465734
1866.351015	175.690210
1868.124444	173.173427
1869.895753	171.888112
1871.666691	177.109091
1873.439007	178.610490
1875.205709	167.953846
1876.975536	168.306294
1878.741500	176.904895
1880.510588	177.196503
1882.275814	182.272028
1884.040672	184.412587
1885.806906	186.655944
1887.569282	187.726573
1889.331291	183.637063
1891.092933	186.232867
1892.854207	188.674825
1894.615115	189.730070
1896.375655	185.722378
1898.134087	190.867133
1899.892152	176.690909
1901.648110	171.141259
1903.405444	158.257343
1905.162413	151.701399
1906.917275	153.429371
1908.670032	140.684615
1910.422426	128.471329
1912.176196	118.032168
1913.927862	121.697203
1915.677425	131.315385
1917.428365	143.746853
1919.178941	156.367832
1920.925679	160.433566
1922.673792	179.567133
1924.419806	189.211189
1926.167196	204.455245
1927.912487	213.163636
1929.655681	202.580420
1931.400251	191.497203
1933.142724	192.711888
1934.884837	200.438462
1936.626591	196.734266
1938.367984	194.232867
1940.107284	187.565035
1941.846225	182.530769
1943.584807	186.145455
1945.321298	183.143357
1947.057430	178.577622
1948.794938	177.661538
1950.528623	173.137762
1952.263683	168.340559
1953.996654	174.387413
1955.729269	173.193706
1957.461527	166.751049
1959.193429	156.114685
1960.923246	154.324476
1962.650977	152.403497
1964.380083	155.127273
1966.108833	149.626573
1967.835500	144.143357
1969.561813	149.620280
1971.289500	156.084615
1973.011650	159.436364
1974.736901	171.039161
1976.458345	176.320280
1978.182889	174.984615
1979.905354	177.499301
1981.624015	184.032168
1983.345775	175.502098
1985.063733	171.956643
1986.783065	163.691608
1988.498597	149.846853
1990.218949	146.332867
1991.935503	146.651049
1993.648260	149.322378
1995.364113	154.907692
1997.077894	153.506993
1998.791325	154.008392
2000.502685	162.745455
2002.215417	168.365734
2003.924358	163.702797
2005.636393	166.286014
2007.342918	168.897902
2009.052536	167.177622
2010.760086	166.783217
2012.467289	164.825175
2014.172426	166.723077
2015.877216	162.645455
2017.583379	160.837063
2019.285758	169.231469
2020.989510	168.816084
2022.691199	168.646853
2024.392542	167.502098
2026.093541	161.030769
2027.792478	163.116783
2029.492787	166.304196
2031.189320	167.403497
2032.887225	164.502797
2034.583072	152.389510
2036.282004	143.041958
2037.975450	141.908392
2039.670267	143.831469
2041.364741	142.090909
2043.055448	144.717483
2044.749237	151.927273
2046.439261	149.390210
2048.130654	160.222378
2049.819995	173.045455
2051.510707	181.589510
2053.197655	178.765035
2054.884263	171.267133
2056.572242	170.524476
2058.256461	168.817483
2059.942050	168.306993
2061.627300	171.386014
2063.310502	161.560839
2064.995074	163.734965
2066.674182	165.530070
2068.358077	167.766434
2070.036510	165.895804
2071.718021	164.406294
2073.395780	165.686713
2075.073203	165.487413
2076.751995	169.395105
2078.428744	174.765734
2080.103452	179.931469
2081.779530	183.236364
2083.453566	170.768531
2085.127267	171.529371
2086.800634	156.923077
2088.471961	139.281119
2090.142954	138.235664
2091.813613	134.881119
2093.483938	132.921678
2095.153929	135.117483
2096.821883	146.567832
2098.489505	155.353147
2100.155093	168.970629
2101.822049	171.989510
2103.486972	165.582517
2105.151563	154.781119
2106.814122	143.446853
2108.478049	137.613986
2110.139945	141.502797
2111.801510	132.985315
2113.462745	133.849650
2115.121950	139.229371
2116.780826	141.588811
2118.439371	145.890909
2120.097587	154.774126
2121.752080	152.843357
2123.409637	153.834266
2125.066864	154.692308
2126.720371	160.010490
2128.375245	157.065035
2130.026400	157.211888
2131.680618	165.412587
2133.331118	165.171329
2134.982986	161.900699
2136.629445	157.146154
2138.280658	160.131469
2139.928159	154.613287
2141.577026	159.246154
2143.223874	155.655245
2144.870397	154.040559
2146.516594	150.869231
2148.159082	147.154545
2149.804629	154.967832
2151.446469	162.823776
2153.091366	165.193007
2154.732558	165.633566
2156.373426	166.591608
2158.013971	170.291608
2159.652503	159.619580
2161.292401	161.819580
2162.928599	145.275524
2164.566163	138.919580
2166.203405	133.394406
2167.838637	135.723077
2169.473547	138.909790
2171.108136	147.774825
2172.742404	150.991608
2174.372978	151.797203
2176.006604	156.662937
2177.636537	160.998601
2179.267837	155.730070
2180.897131	153.167832
2182.526106	141.679720
2184.154761	140.639860
2185.783097	143.807692
2187.409430	142.851748
2189.035445	141.689510
2190.659459	144.179720
2192.284838	137.537762
2193.908216	147.653147
2195.532959	154.730769
2197.154021	155.606294
2198.774766	160.890909
2200.396875	159.179021
2202.016987	161.002098
2203.635103	170.439860
2205.252903	172.358741
2206.870387	166.253846
2208.487556	163.413287
2210.104410	150.573427
2211.720949	142.048252
2213.335494	140.948951
2214.948048	135.442657
2216.561965	136.234266
2218.173891	142.561538
2219.787180	145.169231
2221.398478	150.233566
2223.007788	157.161538
2224.618460	163.004196
2226.227144	162.073427
2227.835516	161.720280
2229.441901	163.855245
2231.049648	159.718182
2232.655410	162.479021
2234.260860	163.838462
2235.864325	167.711888
2237.469153	162.365734
2239.071997	162.170629
2240.672858	155.198601
2242.275082	147.760140
2243.875324	138.120979
2245.476928	137.048951
2247.074879	132.246853
2248.674193	137.053846
2250.271527	132.394406
2251.868553	145.953147
2253.466940	145.916783
2255.061680	148.532867
2256.654442	158.552448
2258.248567	161.214685
2259.844053	162.306993
2261.435894	157.128671
2263.027429	151.658741
2264.620325	162.576224
2266.207912	155.196503
2267.800196	161.439161
2269.387172	164.306993
2270.977177	159.695105
2272.561877	156.139161
2274.151271	144.134266
2275.735362	147.207692
2277.320815	139.698601
2278.904299	131.170629
2280.490808	130.534965
2282.073684	129.746154
2283.656257	136.410839
2285.238526	137.462238
2286.817165	144.921329
2288.398829	164.313986
2289.976864	168.415035
2291.557922	182.945455
2293.135353	170.724126
2294.710821	176.567832
2296.289311	171.063986
2297.864177	160.346853
2299.438742	158.301049
2301.013006	147.055944
2302.586970	138.498951
2304.160634	131.313287
2305.733998	124.924476
2307.303742	137.408392
2308.873189	133.051748
2310.445653	142.384615
2312.012843	139.880420
2313.583050	137.109790
2315.149644	144.058042
2316.717596	144.947552
2318.283594	140.977622
2319.849294	141.582517
2321.414696	144.572727
2322.978145	144.827273
2324.542953	146.895804
2326.104152	161.855944
2327.668366	163.748951
2329.227319	176.116084
2330.789285	174.984615
2332.349301	169.250350
2333.909021	170.558741
2335.466792	155.660140
2337.024269	135.426573
2338.581451	119.418881
2340.136685	106.599301
2341.691625	103.054545
2343.246272	110.109790
2344.800625	125.365734
2346.354684	133.499301
2347.908450	144.170629
2349.460271	153.408392
2351.010149	162.211888
2352.563036	166.748252
2354.110679	170.607692
2355.661330	163.176923
2357.208391	155.588811
2358.756809	151.856643
2360.304935	146.598601
2361.849474	149.909790
2363.395370	155.907692
2364.939327	156.739161
2366.484642	146.986014
2368.026372	150.220979
2369.569460	157.958741
2371.110611	156.182517
2372.651473	158.835664
2374.192046	158.309091
2375.732330	158.269231
2377.272325	146.449650
2378.808741	124.905594
2380.348159	122.133566
2381.884000	131.142657
2383.421198	129.934266
2384.954820	122.352448
2386.491442	133.439860
2388.026134	146.983217
2389.558895	149.479021
2391.091371	159.431469
2392.621918	163.638462
2394.155463	166.313287
2395.683797	154.206993
2397.213487	142.577622
2398.742892	139.969231
2400.272012	145.219580
2401.800846	129.481818
2403.324476	138.020280
2404.852741	151.742657
2406.375803	157.135664
2407.903500	166.292308
2409.424357	171.034266
2410.949846	172.390909
2412.471776	167.590210
2413.995060	163.852448
2415.516424	160.132867
2417.035868	149.349650
2418.556667	150.206993
2420.075547	155.576224
2421.594146	178.414685
2423.110826	179.683916
2424.628862	191.800699
2426.146616	209.697902
2427.660818	201.409790
2429.174741	203.503497
2430.688383	198.110490
2432.203379	207.265035
2433.714828	202.858042
2435.227630	190.251748
2436.738520	203.725874
2438.249131	211.741958
2439.757830	212.348252
2441.269515	208.503497
2442.777657	223.388811
2444.285521	212.412587
2445.793106	208.134965
2447.297152	217.130769
2448.804182	221.804196
2450.309304	225.217483
2451.814149	229.013986
2453.317087	229.976923
2454.819748	238.941259
2456.322134	231.894406
2457.822613	233.970629
2459.324447	234.846154
2460.824375	233.922378
2462.324028	229.804196
2463.823406	236.912587
2465.320881	232.279720
2466.816454	230.737063
2468.315007	223.104196
2469.810032	220.267133
2471.306409	203.472028
2472.799260	198.588112
2474.293464	199.185315
2475.787394	206.166434
2477.277800	196.002098
2478.771184	193.130070
2480.262670	191.654545
2481.752259	182.491608
2483.241576	180.604895
2484.728997	179.650350
2486.219394	164.068531
2487.706273	155.542657
2489.194503	139.931469
2490.679216	140.402797
2492.163659	140.353147
2493.649454	137.706993
2495.133357	133.711189
2496.618610	138.026573
2498.098730	132.013986
2499.581822	138.919580
2501.063025	155.059441
2502.543958	166.081818
2504.023001	170.875524
2505.501777	176.357343
2506.980284	163.027972
2508.458522	169.925874
2509.936493	169.188112
2511.410958	175.840559
2512.888393	173.817483
2514.362323	159.762937
2515.837605	151.232168
2517.312619	153.825874
2518.784132	151.587413
2520.256996	151.790210
2521.727977	155.176923
2523.200308	156.715385
2524.667525	157.714685
2526.137709	165.650350
2527.606012	164.160839
2529.074049	176.724476
2530.541822	179.033566
2532.009330	174.792308
2533.476574	173.742657
2534.940325	160.430769
2536.405426	156.528671
2537.868650	144.957343
2539.333223	140.732867
2540.794308	133.251049
2542.256742	127.055245
2543.718913	118.063636
2545.177597	122.576224
2546.640854	135.044056
2548.099014	150.056643
2549.558523	157.048252
2551.012939	164.665734
2552.471925	167.680420
2553.929039	178.265035
2555.384281	177.124476
2556.839263	172.196503
2558.292375	167.390210
2559.746836	166.015385
2561.199428	159.284615
2562.651760	159.466434
2564.102224	158.565035
2565.555645	162.904196
2567.003983	162.551748
2568.455276	170.848951
2569.904703	166.432168
2571.350659	155.603497
2572.799569	159.472727
2574.245008	146.565734
2575.691796	146.355245
2577.136720	152.310490
2578.581387	145.532168
2580.027401	143.995105
2581.469948	140.016783
2582.913843	139.078322
2584.354273	148.320979
2585.796051	158.039860
2587.235969	157.038462
2588.677234	158.393706
2590.115037	167.927273
2591.555790	167.066434
2592.991481	179.308392
2594.430120	189.074126
2595.866903	184.695804
2597.301830	171.392308
2598.739704	168.511189
2600.172521	173.490210
2601.606685	184.271329
2603.038994	185.465035
2604.472651	184.063636
2605.904453	178.881119
2607.336003	168.016783
2608.767299	171.090210
2610.196744	176.209091
2611.625936	172.879720
2613.053277	167.284615
2614.481965	156.634965
2615.910400	178.544755
2617.335389	196.001399
2618.761723	206.504895
2620.186210	221.996503
2621.612041	225.485315
2623.034430	227.620280
2624.458163	226.276224
2625.880051	228.673427
2627.301688	221.476224
2628.721481	213.555944
2630.142619	208.662937
2631.563507	209.344755
2632.980956	223.197203
2634.401345	233.957343
2635.818297	250.272028
2637.235001	273.445455
2638.651456	288.790210
2640.067663	310.165734
2641.483622	317.281119
2642.897740	327.624476
2644.311610	342.607692
2645.723641	361.380420
2647.137017	379.827972
2648.546963	391.816783
2649.959845	414.113986
2651.369298	442.796503
2652.778505	462.711189
2654.185876	478.212587
2655.596181	506.037063
2657.004650	535.854545
2658.411284	551.134965
2659.817673	578.520979
2661.222229	610.325874
2662.628128	645.978322
2664.032193	684.488112
2665.436015	717.275524
2666.839592	767.220280
2668.241338	810.311888
2669.644427	842.958042
2671.044098	871.382517
2672.445113	929.672727
2673.842712	982.226573
2675.243240	1019.320979
2676.640354	1050.020280
2678.038811	1083.281119
2679.435440	1117.086713
2680.831828	1143.450350
2682.227973	1169.658741
2683.622292	1182.597203
2685.017954	1191.419580
2686.410207	1183.782517
2687.803802	1172.819580
2689.195573	1165.661538
2690.588687	1154.258042
2691.979976	1129.713986
2693.369444	1109.044056
2694.758671	1086.524476
2696.147658	1075.385315
2697.537988	1045.571329
2698.923334	1022.824476
2700.311603	976.411888
2701.698052	941.844056
2703.084262	883.189510
2704.470233	835.024476
2705.852806	777.603497
2707.236721	730.574825
2708.620397	679.996503
2710.003836	645.534266
2711.383879	614.425175
2712.765264	590.918182
2714.144833	557.814685
2715.525744	528.231469
2716.904840	492.233566
2718.282122	467.239860
2719.660745	427.944755
2721.037554	406.122378
2722.414128	382.648951
2723.790466	360.913287
2725.164992	345.332867
2726.540859	335.241259
2727.913339	321.827273
2729.288736	302.034965
2730.659172	289.550350
2732.030948	270.101399
2733.402491	247.841259
2734.772225	238.946154
2736.143299	224.947552
2737.512566	223.208392
2738.881599	218.267832
2740.248826	224.146853
2741.615819	223.076224
2742.982580	221.823077
2744.349108	215.520280
2745.713832	208.269930
2747.078323	200.342657
2748.442582	198.943357
2749.806610	189.109790
2751.170405	191.549650
2752.530828	187.574825
2753.894160	190.986014
2755.252550	192.327273
2756.613850	188.046154
2757.971780	166.587413
2759.332618	158.814685
2760.691656	149.343357
2762.047326	146.825874
2763.405905	147.307692
2764.761116	149.010490
2766.116098	152.989510
2767.469283	156.813986
2768.825375	156.245455
2770.178103	161.963636
2771.530602	167.281119
2772.882874	151.104196
2774.236483	144.730769
2775.586731	150.076923
2776.935186	149.883916
2778.286545	154.267133
2779.634545	153.791608
2780.983884	150.886014
2782.331430	157.353846
2783.678750	154.020979
2785.025842	154.139161
2786.371144	148.565734
2787.716220	146.941958
2789.061070	139.146853
2790.405694	146.356643
2791.746965	152.718881
2793.089575	150.945455
2794.431960	152.870629
2795.774119	149.466434
2797.112929	152.281818
2798.454639	156.818881
2799.793000	160.671329
2801.132699	154.786713
2802.470612	147.811888
2803.806741	146.205594
2805.142647	140.151748
2806.479889	145.342657
2807.815348	143.871329
2809.150584	138.214685
2810.484038	145.612587
2811.818828	138.585315
2813.150277	143.230070
2814.484622	148.743357
2815.814069	141.937063
2817.144853	140.064336
2818.475415	146.365035
2819.804198	137.251748
2821.134318	124.806993
2822.462659	114.575524
2823.790778	113.707692
2825.117121	105.920280
2826.444799	113.899301
2827.769145	111.508392
2829.094827	112.337063
2830.418733	116.221678
2831.742419	115.016084
2833.067441	124.418881
2834.389134	122.111189
2835.710608	112.367832
2837.031862	107.645455
2838.352898	104.400699
2839.672162	118.967133
2840.992761	125.834965
2842.311588	135.525175
2843.630197	139.797203
2844.947036	141.165035
2846.263657	147.372028
2847.580061	159.744056
2848.894695	154.504196
2850.210664	149.017483
2851.523314	142.237762
2852.837298	143.569930
2854.151066	138.508392
2855.464617	129.657343
2856.776402	127.071329
2858.086420	114.706993
2859.397773	116.923077
2860.705811	112.911189
2862.015183	113.609790
2863.324340	111.579720
2864.633282	95.854545
2865.940461	105.923776
2867.245876	109.493007
2868.552626	115.706294
2869.857614	122.549650
2871.162387	121.030070
2872.465400	136.276923
2873.771293	140.343357
2875.072332	153.882517
2876.374704	148.123776
2877.675318	144.440559
2878.977264	129.517483
2880.278998	114.890210
2881.577428	117.526573
2882.877191	116.706993
2884.175197	126.168531
2885.472991	135.718881
2886.769028	133.318182
2888.066399	138.506993
2889.362015	128.707692
2890.657419	132.959441
2891.952612	126.125874
2893.244508	116.293706
2894.539279	105.381818
2895.830755	92.775524
2897.123563	90.722378
2898.416161	95.057343
2899.705464	110.200699
2900.996101	115.162937
2902.284986	115.040559
2903.575203	118.432168
2904.862129	122.689510
2906.150387	133.819580
2907.436896	143.736364
2908.723196	145.368531
2910.009288	148.574825
2911.293632	149.467133
2912.580848	135.176923
2913.863237	126.531469
2915.146958	129.576923
2916.428932	129.954545
2917.710700	129.603497
2918.990722	130.393007
2920.273614	128.448951
2921.554761	124.210490
2922.832626	127.066434
2924.113360	122.710490
2925.390813	123.461538
2926.668061	126.093007
2927.943566	117.093007
2929.221939	116.904196
2930.495498	126.023077
2931.771924	137.362238
2933.046608	150.430769
2934.319553	141.985315
2935.593829	131.784615
2936.866364	126.379021
2938.138696	120.031469
2939.407755	118.283916
2940.679679	112.562937
2941.949865	118.799301
2943.219847	123.700699
2944.489626	121.350350
2945.757668	130.067133
2947.023975	136.682517
2948.290079	146.834965
2949.557514	134.603497
2950.823213	125.037762
2952.088710	128.122378
2953.354006	126.706294
2954.616036	128.901399
2955.879396	125.044755
2957.142555	128.110490
2958.403981	127.116783
2959.666738	132.088112
2960.927762	139.026573
2962.187056	134.178322
2963.446149	133.553147
2964.705042	114.958741
2965.963735	103.757343
2967.222228	99.206294
2968.478992	100.590210
2969.735557	94.476224
2970.990393	86.140559
2972.246559	75.691608
2973.499470	75.226573
2974.753709	79.830070
2976.007750	77.411189
2977.260065	79.181818
2978.512182	85.842657
2979.762574	84.938462
2981.015821	90.860140
2982.264291	101.342657
2983.515616	113.867133
2984.763691	122.070629
2986.011569	113.320979
2987.259251	107.740559
2988.506735	99.400699
2989.752498	91.305594
2990.998064	80.492308
2992.244959	80.862937
2993.488609	82.453846
2994.733586	80.109790
2995.975321	85.756643
2997.219907	101.062238
2998.462774	100.555944
2999.702400	107.937063
3000.944876	111.213986
3002.184112	119.625874
3003.424676	119.780420
3004.663523	123.168531
3005.902176	118.270629
3007.139113	118.477622
3008.377378	118.302797
3009.613927	114.927273
3010.850283	107.550350
3012.086445	106.930070
3013.320893	99.184615
3014.555148	98.562238
3015.789210	108.764336
3017.021560	114.951748
3018.252198	126.742657
3019.485682	131.741259
3020.717455	123.069231
3021.947516	116.615385
3023.177386	112.374126
3024.405546	105.010490
3025.635033	91.258042
3026.862810	92.105594
3028.090396	94.492308
3029.319308	92.845455
3030.543478	104.023077
3031.770491	109.724476
3032.994281	112.512587
3034.219396	118.791608
3035.442806	109.575524
3036.666025	99.556643
3037.887539	93.333566
3039.111894	85.795804
3040.331514	79.445455
3041.552460	77.043357
3042.773216	78.875524
3043.992270	85.299301
3045.212648	95.076224
3046.429810	98.875524
3047.648297	98.481818
3048.865083	107.588112
3050.081680	98.254545
3051.298090	88.358741
3052.511286	87.232168
3053.727320	84.267832
3054.940142	77.967832
3056.155801	70.241259
3057.366737	70.674825
3058.578999	84.038462
3059.791073	81.432867
3061.002961	77.457343
3062.213152	70.092308
3063.423156	72.490559
3064.632974	75.881119
3065.841096	85.303147
3067.049033	96.716084
3068.255274	97.139510
3069.462840	93.361538
3070.668711	93.055594
3071.874397	107.650350
3073.079899	115.390559
3074.283707	100.472727
3075.488839	97.782168
3076.692278	95.273427
3077.894025	89.166783
3079.095589	92.299301
3080.296969	97.883916
3081.498165	92.544056
3082.697671	89.218182
3083.896994	83.253846
3085.097640	84.072727
3086.296596	93.842657
3087.492357	95.060140
3088.690948	100.738462
3089.886345	112.622378
3091.083066	105.613287
3092.276594	102.372727
3093.472950	102.767133
3094.667619	103.364336
3095.859098	99.095105
3097.054908	96.555944
3098.246025	88.814685
3099.438465	78.209091
3100.627716	78.851049
3101.819794	81.770629
3103.010188	82.074825
3104.197396	88.541259
3105.385926	77.373427
3106.575779	85.018182
3107.762447	90.107692
3108.948936	90.701399
3110.135246	88.711888
3111.322877	87.719580
3112.507326	85.360839
3113.690096	81.843357
3114.875688	87.639860
3116.059601	95.997203
3117.241834	92.648951
3118.423890	95.892308
3119.605767	95.209790
3120.787466	106.771329
3121.967488	105.816783
3123.145833	102.852448
3124.326998	100.251049
3125.504988	95.348252
3126.682801	92.665035
3127.860437	92.721678
3129.036398	95.769930
3130.212183	100.486713
3131.389288	92.511189
3132.564720	89.986014
3133.738478	94.399301
3134.910563	97.537063
3136.083969	97.900000
3137.257200	91.794406
3138.428759	84.276923
3139.601638	79.046853
3140.771350	77.877622
3141.942383	76.204895
3143.111745	80.490210
3144.279438	79.664336
3145.449946	76.165734
3146.615795	76.216783
3147.785954	90.495804
3148.951455	102.899301
3150.116783	102.986713
3151.281937	95.091608
3152.446918	91.537762
3153.613218	89.613986
3154.774865	90.048951
3155.937833	99.163636
3157.100628	91.826573
3158.263249	84.387413
3159.424206	82.443357
3160.584991	87.707692
3161.745603	103.262937
3162.904551	101.606993
3164.063327	94.620280
3165.221932	94.940559
3166.380365	85.987413
3167.538626	77.993007
3168.695226	75.971329
3169.850164	79.186014
3171.006421	70.347552
3172.161017	70.944056
3173.315443	68.674126
3174.468208	79.234965
3175.620804	85.246154
3176.773230	80.802098
3177.925485	86.023776
3179.077571	93.811189
3180.226510	86.314685
3181.378256	86.995804
3182.528345	91.609091
3183.676776	97.895804
3184.825039	97.569930
3185.973133	95.118182
3187.121058	93.765734
3188.267327	96.712587
3189.413428	93.064336
3190.557875	86.434965
3191.702153	95.911189
3192.846264	88.243357
3193.991693	80.175524
3195.133983	81.484615
3196.276105	73.916084
3197.418061	77.030769
3198.559849	74.925175
3199.701470	77.572028
3200.839956	82.106993
3201.979759	85.324476
3203.120879	88.042657
3204.258866	95.568531
3205.395202	103.911888
3206.531374	88.961538
3207.668862	85.783217
3208.804702	80.509091
3209.941859	74.793007
3211.074403	80.558741
3212.211228	73.625874
3213.343443	72.933566
3214.476974	68.781818
3215.610340	68.994406
3216.740580	59.720979
3217.873617	68.754545
3219.003527	76.959441
3220.134755	79.944755
3221.262857	95.737762
3222.393757	109.909091
3223.523012	122.374126
3224.650624	138.028671
3225.775113	144.549650
3226.903878	143.970629
3228.029521	139.274126
3229.155001	127.610490
3230.278840	113.006294
3231.405474	104.072028
3232.527510	96.959441
3233.650862	79.974126
3234.774051	74.004196
3235.897079	68.834965
3237.018467	68.990210
3238.139694	77.690909
3239.259282	87.935664
3240.378709	98.400000
3241.496499	112.807692
3242.617080	115.893706
3243.734548	115.197902
3244.851855	112.609091
3245.969002	109.912587
3247.084512	104.045455
3248.201338	97.396503
3249.315053	97.666434
3250.431559	102.007692
3251.546429	107.153846
3252.658191	106.148252
3253.769794	106.478322
3254.882712	107.264336
3255.995470	99.889510
3257.105122	94.345455
3258.216089	94.645455
3259.326897	92.661538
3260.436073	90.154545
3261.543618	89.100699
3262.652478	93.326573
3263.761179	92.051049
3264.866778	86.140559
3265.973692	76.486713
3267.078976	73.858042
3268.185574	72.636364
3269.289072	73.090210
3270.393884	77.545455
3271.498539	71.459441
3272.600096	76.579720
3273.701496	76.560140
3274.804210	80.439860
3275.906768	74.227972
3277.006229	65.187413
3278.108474	61.490909
3279.207623	65.070629
3280.305147	67.456643
3281.402517	65.838462
3282.502668	75.580420
3283.599727	81.709790
3284.696630	88.622378
3285.793378	106.937063
3286.885567	115.451748
3287.982006	120.904196
3289.076822	114.179021
3290.171483	105.567832
3291.264523	100.112587
3292.357409	93.124476
3293.448674	80.665734
3294.541252	72.932867
3295.632210	65.429371
3296.721548	67.915385
3297.810733	75.076923
3298.901230	72.354545
3299.988643	75.769231
3301.075904	72.425175
3302.164477	68.458741
3303.252897	69.457343
3304.336771	68.548252
3305.424885	69.594406
3306.509919	67.900699
3307.593337	65.560140
3308.678067	68.660140
3309.761181	69.967133
3310.845607	70.888112
3311.926956	61.398601
3313.009616	54.751748
3314.090661	48.700000
3315.171556	41.347552
3316.250838	47.192308
3317.329969	42.477622
3318.410412	43.878322
3319.487780	45.438462
3320.566460	45.148252
3321.643528	59.498601
3322.720446	57.654545
3323.795754	61.780420
3324.870912	66.999301
3325.947381	74.601399
3327.020780	81.079021
3328.094029	79.316783
3329.168590	85.101399
3330.241542	83.154545
3331.312885	80.180420
3332.385539	79.090210
3333.455126	74.545455
3334.526024	74.267133
3335.595316	67.300000
3336.665917	71.467832
3337.734912	78.942657
3338.802302	81.836364
3339.868086	74.002098
3340.938096	67.367133
3342.005042	70.229371
3343.068928	70.501399
3344.135580	66.643357
3345.200629	66.640559
3346.264074	68.774825
3347.327373	65.618881
3348.390525	62.681818
3349.453531	74.807692
3350.516391	72.616783
3351.577648	73.534965
3352.635849	65.109091
3353.698271	63.504196
3354.757637	71.366434
3355.816857	77.148951
3356.877386	81.416783
3357.933407	81.778322
3358.992191	85.351748
3360.046468	83.430769
3361.103509	73.172727
3362.158951	74.790210
3363.215702	65.611888
3364.270856	64.625175
3365.324412	51.018881
3366.376371	59.944755
3367.431093	60.665734
3368.482765	62.567133
3369.534293	65.801399
3370.587131	72.776224
3371.636921	80.732867
3372.688020	84.232168
3373.736072	73.586014
3374.786885	72.406294
3375.834652	65.693706
3376.882277	63.201399
3377.929760	60.201399
3378.975650	70.285315
3380.022848	57.117483
3381.067003	52.183217
3382.113917	61.877622
3383.159240	65.339161
3384.201521	67.369930
3385.243661	70.795804
3386.287110	65.153846
3387.330417	65.516084
3388.372134	61.223776
3389.413711	65.697203
3390.455146	66.866434
3391.494993	74.185315
3392.533251	74.559441
3393.572817	74.169930
3394.612243	72.342657
3395.650081	73.329371
3396.686332	66.509790
3397.722443	62.868531
3398.759862	59.238462
3399.794248	55.409091
3400.829942	52.236364
3401.865496	56.046853
3402.898018	49.157343
3403.933294	62.188112
3404.965540	69.788811
3405.997646	68.980420
3407.028170	62.613986
3408.060000	75.386014
3409.091692	69.257343
3410.120356	74.527273
3411.148883	82.511189
3412.178716	77.369231
3413.208412	76.095105
3414.235082	68.773427
3415.263058	68.212587
3416.288010	74.874825
3417.315713	74.046154
3418.340391	68.500699
3419.366376	69.248252
3420.390782	65.884615
3421.415051	66.320979
3422.437741	71.893007
3423.460295	60.469231
3424.484155	48.912587
3425.504995	45.158741
3426.525699	41.006094
3427.547709	39.244256
3428.566701	40.543856
3429.585558	45.575524
3430.605721	55.009890
3431.622867	69.517582
