-117.633747	4.822527
-114.964146	4.683516
-112.297481	4.493806
-109.631568	4.286613
-106.968588	4.095155
-104.304177	3.952647
-101.642697	3.892308
-98.979788	2.320280
-96.321985	2.809091
-93.662753	5.233566
-91.004269	7.409790
-88.348710	10.111189
-85.691721	12.562937
-83.039831	11.590210
-80.386511	8.959441
-77.736110	7.311189
-75.084281	9.697203
-72.437542	6.123077
-69.789373	4.060839
-67.141947	0.037063
-64.497436	2.185315
-61.851495	4.762937
-59.210636	9.811189
-56.568348	11.906294
-53.928969	14.383217
-51.288161	14.994406
-48.648092	16.179021
-46.013097	14.393706
-43.376672	13.076224
-40.743150	5.966434
-38.108200	3.455245
-35.478316	0.069930
-32.844838	1.925175
-30.216423	2.360839
-27.588742	4.236364
-24.959632	-1.588811
-22.335580	-32.475524
-19.707937	-153.213986
-17.085349	-351.907692
-14.463491	-298.765035
-11.842364	467.867832
-9.221968	1640.386014
-6.604459	2598.387413
-3.985522	3253.746853
-1.369471	3602.769231
1.245853	3641.430070
3.860448	3379.002797
6.472162	2816.244755
9.085303	1968.164336
11.693412	916.456643
14.305101	-67.930070
16.911760	-528.299301
19.519848	-319.381119
22.127210	-25.344755
24.729548	9.703497
27.335464	7.894406
29.936359	5.925175
32.538681	3.227273
35.135985	6.409091
37.736866	8.149650
40.332731	8.232867
42.930024	5.633566
45.526598	4.609790
48.118163	2.209790
50.711157	4.055245
53.301289	2.526573
55.892848	1.425874
58.481549	2.262238
61.071676	5.228671
63.656804	3.545455
66.243360	6.651049
68.829201	7.807692
71.412189	11.134965
73.996604	11.610490
76.573889	13.034266
79.154741	14.723776
81.732744	16.702797
84.310037	16.346853
86.888757	16.853846
89.462494	15.518182
92.037658	14.409091
94.609979	9.990909
97.181593	10.276224
99.750366	6.897203
102.320566	8.575524
104.887927	9.603497
107.456715	8.240559
110.022666	11.326573
112.585782	13.833566
115.152454	16.773427
117.709904	21.574126
120.273040	26.669231
122.831217	43.316783
125.392948	66.130070
127.949722	104.016783
130.507922	161.320280
133.061170	245.360140
135.613720	346.317483
138.169820	463.309790
140.720972	583.789510
143.271427	703.993706
145.821184	808.932867
148.368122	892.095105
150.914365	952.890909
153.462033	986.706993
156.009005	994.475524
158.551041	991.906993
161.092385	987.972028
163.633035	985.047552
166.175110	982.509091
168.714375	986.966434
171.250830	987.797203
173.786595	994.073427
176.323785	992.646853
178.860284	989.565035
181.393977	982.983916
183.924866	971.432168
186.455067	960.790909
188.986694	955.700699
191.515519	949.928671
194.041545	946.728671
196.566885	945.556643
199.093650	948.780420
201.617619	948.319580
204.140902	951.600000
206.663501	948.574126
209.183307	946.085315
211.702430	947.454545
214.220870	954.471329
216.740735	958.418881
219.253597	968.109790
221.769991	977.571329
224.285704	990.830070
226.796526	1007.567832
229.308773	1023.310490
231.818237	1034.395105
234.327023	1047.280420
236.835131	1050.646154
239.344663	1053.058741
241.849314	1050.094406
244.353289	1045.506294
246.858688	1033.942657
249.359212	1030.141259
251.863259	1021.234965
254.360336	1017.690210
256.860935	1016.446853
259.358763	1013.978322
261.855918	1012.076224
264.352401	1013.974825
266.844020	1013.251748
269.339159	1020.427972
271.831531	1023.539161
274.323233	1035.089510
276.812172	1042.334965
279.302534	1051.765734
281.790135	1056.375524
284.274976	1065.497902
286.763332	1076.159441
289.244748	1092.325874
291.729678	1114.302098
294.209762	1137.920280
296.693359	1160.290909
299.172114	1179.025874
301.652291	1181.595804
304.129717	1178.285315
306.606479	1166.015385
309.082577	1148.486713
311.555927	1126.971329
314.028616	1109.945455
316.500643	1093.990210
318.972008	1081.696503
321.440630	1073.407692
323.908592	1062.051748
326.377977	1048.013287
328.842539	1028.476224
331.310605	1001.539161
333.773850	972.607692
336.236439	948.304196
338.698371	928.976224
341.159646	913.273427
343.618186	902.903497
346.078149	891.370629
348.535380	884.816084
350.991956	876.949650
353.447878	872.544056
355.901070	867.605594
358.355685	860.495804
360.805498	850.115385
363.258807	838.760140
365.707317	826.634266
368.155177	820.209091
370.604459	813.774825
373.048946	804.560839
375.494856	797.101399
377.940117	790.872028
380.382659	783.816084
382.824553	778.880420
385.265799	769.953147
387.704331	763.534965
390.144283	756.317483
392.581522	751.888112
395.016049	743.184615
397.454064	742.176224
399.887303	738.194406
402.321962	731.188112
404.751849	723.651748
407.185221	719.267832
409.613823	716.276224
412.041783	709.991608
414.471164	704.508392
416.895781	703.546853
419.321818	697.667133
421.747216	693.800699
424.171973	688.553147
426.591971	686.846154
429.013391	678.006993
431.432114	666.676923
433.852258	657.888811
436.269707	650.000699
438.688577	638.064336
441.104752	625.548951
443.516181	610.665035
445.931086	596.131469
448.343301	581.547552
450.754882	568.253846
453.165830	558.981818
455.574090	549.212587
457.981719	538.560839
460.388715	530.580420
462.795080	527.672727
465.198762	525.213287
467.601814	522.980420
470.004236	524.440559
472.406028	523.090909
474.805142	524.140559
477.205676	531.381119
479.605581	539.137762
482.000764	550.823077
484.399412	565.257343
486.793341	583.185315
489.186644	611.555245
491.579322	644.241958
493.971373	686.925175
496.364844	747.345455
498.753602	865.397902
501.139694	1103.353846
503.527206	1571.818881
505.914095	2370.446154
508.298319	3449.008392
510.683963	4650.962937
513.066945	5791.548951
515.447265	6707.848951
517.829006	7294.503497
520.208087	7472.439161
522.588586	7223.982517
524.966429	6595.975524
527.341615	5717.358042
529.716184	4740.388112
532.092172	3873.539860
534.465507	3230.086713
536.840259	2790.868531
539.210325	2478.864336
541.579777	2244.847552
543.950646	2056.400000
546.316834	1905.965734
548.684441	1777.850350
551.049402	1671.314685
553.413751	1584.624476
555.777486	1520.019580
558.142639	1457.090210
560.503120	1403.439860
562.865018	1347.258741
565.224277	1304.174825
567.580897	1256.502098
569.940963	1215.089510
572.294337	1174.428671
574.651156	1136.881119
577.005340	1102.276224
579.358915	1074.224476
581.711883	1042.386014
584.062218	1013.911888
586.413971	985.510490
588.759047	959.325874
591.109586	935.749650
593.453453	915.869231
595.802781	892.637762
598.147460	874.791608
600.489515	861.124476
602.832987	861.920979
605.173836	873.202797
607.514082	895.849650
609.851708	915.472028
612.192769	939.516783
614.529193	957.787413
616.867033	973.159441
619.202256	973.837063
621.534862	958.810490
623.868886	934.990909
626.200295	903.697203
628.531106	873.957343
630.861319	852.087413
633.190935	832.611189
635.515927	826.538462
637.846361	816.258042
640.172174	812.891608
642.495379	805.475524
644.820001	800.822378
647.142017	788.504895
649.463439	772.527972
651.782258	761.249650
654.102494	749.916084
656.422135	744.511888
658.739177	739.595804
661.055626	735.658741
663.369477	737.323077
665.684744	737.702797
667.997414	739.395804
670.311499	734.289510
672.620984	731.137063
674.931885	722.248252
677.240192	713.101399
679.547912	706.289510
681.857047	699.713986
684.161589	690.304196
686.465545	679.858741
688.768914	669.488112
691.073699	658.083916
693.373896	648.011189
695.675509	637.640559
697.976536	626.021678
700.272982	615.548252
702.570843	605.269231
704.868120	600.155944
707.164814	593.511189
709.456932	590.377622
711.752460	584.447552
714.043416	581.990909
716.335786	580.518182
718.625580	578.723776
720.914795	576.724476
723.203430	580.061538
725.489492	577.884615
727.776968	574.320280
730.061874	567.181818
732.346202	565.185315
734.627961	553.493706
736.911134	549.011888
739.193730	544.108392
741.471770	544.239161
743.751224	548.153846
746.030103	549.975524
748.308407	551.102797
750.582160	559.409091
752.857328	554.617483
755.131922	552.480420
757.403957	547.901399
759.677405	548.387413
761.948295	540.760140
764.216629	540.613287
766.486376	538.774126
768.753568	540.441958
771.020191	541.900000
773.286243	541.419580
775.549744	541.815385
777.814657	545.368531
780.079002	541.075524
782.338816	542.530769
784.600044	542.949650
786.860704	545.683916
789.118818	549.703497
791.374387	553.662238
793.633346	555.087413
795.885807	557.353147
798.143635	559.304196
800.396944	558.586014
802.647712	556.979021
804.899894	559.031469
807.149536	560.434965
809.400590	559.737063
811.647133	557.072727
813.895089	558.111189
816.140509	557.360140
818.387342	555.502098
820.633612	551.186014
822.875379	550.130070
825.120528	544.836364
827.359206	538.072028
829.601265	533.524476
831.838826	527.693706
834.077799	527.750350
836.314245	530.367133
838.552102	534.009091
840.787434	536.194406
843.020242	535.066434
845.254462	534.471329
847.486160	532.538462
849.717303	537.103497
851.947891	533.785315
854.177925	530.148951
856.407404	524.137063
858.632403	514.890210
860.860775	506.904196
863.084669	505.646154
865.309974	505.181119
867.530803	502.693007
869.755004	503.063636
871.974732	504.944056
874.195870	513.041958
876.416458	516.444755
878.634537	516.829371
880.854025	514.386713
883.069047	505.086713
885.283521	501.632168
887.497448	491.915385
889.710827	497.618182
891.923660	494.847552
894.135945	494.566434
896.345729	493.653147
898.554967	494.559441
900.763660	503.063636
902.969853	503.608392
905.177456	508.990210
907.382562	509.733566
909.587124	512.539860
911.789191	531.862238
913.992667	542.903497
916.193649	563.967133
918.394089	571.484615
920.595938	593.289510
922.791396	621.981119
924.990212	665.254545
927.184591	725.570629
929.382327	797.264336
931.575627	874.341259
933.770336	955.858042
935.962558	1030.802797
938.154243	1105.834266
940.345390	1149.425175
942.534054	1182.029371
944.722181	1190.713287
946.907828	1194.604895
949.096828	1199.030070
951.281403	1205.378322
953.465444	1201.317483
955.652836	1203.961538
957.831923	1209.511888
960.014361	1223.158042
962.196264	1233.925175
964.375694	1246.349650
966.552651	1247.843357
968.731016	1255.251049
970.910788	1261.650350
973.084210	1277.572028
975.260980	1289.044755
977.433342	1280.022378
979.607112	1238.646154
981.776478	1187.521678
983.949188	1124.120280
986.119433	1054.363636
988.289148	981.541958
990.458335	905.237063
992.623125	844.320979
994.791257	779.650350
996.954993	737.311189
999.120137	715.100699
1001.282821	692.774126
1003.444980	670.525175
1005.604682	648.582517
1007.763859	628.858042
1009.924443	603.184615
1012.082572	584.123776
1014.240178	567.454545
1016.397259	559.484615
1018.553818	558.462937
1020.705997	525.016084
1022.859583	514.597902
1025.012647	505.736364
1027.163262	507.153846
1029.315283	485.488811
1031.462932	474.460140
1033.613912	454.972727
1035.760521	433.624476
1037.906611	431.537063
1040.052183	444.176923
1042.199160	456.783217
1044.339848	481.160839
1046.483865	482.461538
1048.625443	503.830070
1050.766503	513.123776
1052.908969	522.705594
1055.045154	510.093007
1057.184666	503.010490
1059.319822	493.165734
1061.458303	478.741958
1063.592431	475.051748
1065.726045	487.150350
1067.861063	494.090909
1069.991732	505.476923
1072.123807	502.801399
1074.253451	491.297203
1076.382584	482.690210
1078.511206	468.315385
1080.639316	448.948252
1082.765000	442.902098
1084.890174	428.964336
1087.016752	403.703497
1089.138992	404.088112
1091.262637	431.205594
1093.381947	437.317483
1095.506486	436.515385
1097.624781	435.647552
1099.744479	414.395105
1101.861760	415.346154
1103.978533	405.502098
1106.094800	399.562937
1108.208652	411.236364
1110.323907	412.130070
1112.434840	420.481119
1114.549085	435.362238
1116.659009	453.869930
1118.770336	459.988811
1120.881160	454.922378
1122.987667	442.257343
1125.097483	415.883217
1127.202985	400.816783
1129.309891	386.758741
1131.410581	368.200699
1133.516483	369.318881
1135.618076	370.284615
1137.721071	360.386713
1139.823567	355.175524
1141.919855	366.182517
1144.021350	373.256643
1146.118543	374.188112
1148.215237	372.059441
1150.311434	363.780420
1152.407132	368.856643
1154.502333	375.049650
1156.595137	378.620280
1158.689343	390.623077
1160.777358	392.509790
1162.870571	386.739860
1164.957596	390.802098
1167.047921	396.665035
1169.133957	395.382517
1171.223291	388.855245
1173.306444	380.359441
1175.391000	374.853846
1177.476957	387.211888
1179.558632	393.206993
1181.641708	401.504196
1183.722399	406.265734
1185.802599	405.885315
1187.882307	401.699301
1189.961524	410.989510
1192.038358	410.117483
1194.112812	402.634266
1196.190558	389.712587
1198.264033	384.260839
1200.338910	376.662937
1202.409519	380.106294
1204.481529	371.629371
1206.551163	367.634266
1208.622198	364.501399
1210.692745	369.912587
1212.759032	373.016783
1214.826719	383.320280
1216.892033	377.751049
1218.958748	380.092308
1221.021207	374.788811
1223.086952	364.954545
1225.148442	359.318881
1227.211332	352.098601
1229.271855	336.778322
1231.331895	333.451049
1233.391451	337.764336
1235.448643	350.149650
1237.505352	353.619580
1239.559699	360.703497
1241.617326	366.144056
1243.672591	374.408392
1245.723615	370.025874
1247.776040	369.878322
1249.827984	371.218881
1251.877570	357.559441
1253.926677	354.481818
1255.975305	351.055944
1258.023455	347.775524
1260.071127	350.779021
1262.114568	352.688811
1264.161285	354.648252
1266.205648	355.760839
1268.249534	360.938462
1270.291070	368.819580
1272.330256	370.173427
1274.372715	369.797203
1276.410951	359.932867
1278.450586	361.177622
1280.489745	357.325874
1282.524687	346.701399
1284.561027	351.411189
1286.595022	354.820979
1288.630416	362.265035
1290.661596	366.445455
1292.694175	375.659441
1294.726282	381.571329
1296.756048	380.542657
1298.787211	381.379720
1300.814167	383.125874
1302.842522	382.852448
1304.866671	371.092308
1306.894086	363.575524
1308.917298	363.804895
1310.941908	359.022378
1312.964183	356.285315
1314.987856	361.016084
1317.009196	361.003497
1319.030069	358.850350
1321.050474	363.462238
1323.066686	356.202797
1325.084295	360.961538
1327.099576	359.025874
1329.118116	347.123776
1331.132466	352.283916
1333.144491	351.174126
1335.159774	349.067832
1337.170871	352.292308
1339.183364	363.606993
1341.191675	362.476923
1343.203242	361.302098
1345.208770	368.338462
1347.217553	359.127972
1349.222158	367.979021
1351.230017	369.462238
1353.237414	368.463636
1355.238780	375.786014
1357.241542	377.504895
1359.243845	375.948252
1361.245688	378.134266
1363.247071	377.598601
1365.246140	372.486014
1367.244751	363.969930
1369.242904	365.800000
1371.240599	356.047552
1373.234131	356.602797
1375.229058	351.435664
1377.223529	347.506993
1379.217543	345.313287
1381.209250	342.872028
1383.200501	340.045455
1385.189447	338.834965
1387.179788	328.316084
1389.169675	319.262238
1391.157257	316.569930
1393.144386	325.253846
1395.129213	322.560140
1397.115435	324.993706
1399.099356	318.461538
1401.082825	323.427972
1403.065842	323.162937
1405.046561	325.865035
1407.028674	323.296503
1409.008490	325.243357
1410.987856	318.962937
1412.963083	317.730769
1414.941548	321.396503
1416.917720	324.928671
1418.893442	318.913986
1420.868715	308.360839
1422.841698	298.937063
1424.814232	308.034266
1426.786318	302.348252
1428.757957	305.915385
1430.725467	309.126573
1432.698051	313.839860
1434.662829	313.179720
1436.632680	310.576224
1438.598406	313.479720
1440.565526	311.375524
1442.530362	307.168531
1444.491078	304.897902
1446.456862	304.172028
1448.416691	317.970629
1450.377914	316.958042
1452.340528	322.502098
1454.299028	319.137063
1456.257086	325.272727
1458.214701	330.112587
1460.171875	330.274126
1462.126773	326.753846
1464.083064	318.556643
1466.037080	318.672727
1467.990655	321.350350
1469.941958	312.493706
1471.894653	320.885315
1473.845077	312.748252
1475.795062	313.193007
1477.744608	305.162238
1479.691885	308.600000
1481.636894	304.746154
1483.583296	302.291608
1485.529260	298.301399
1487.474787	299.525175
1489.418048	302.585315
1491.360873	308.279720
1493.301435	307.299301
1495.243389	310.713986
1497.183080	307.229371
1499.122336	304.872028
1501.061158	296.339161
1502.997720	293.579720
1504.935673	295.069930
1506.871367	299.503497
1508.806628	308.987413
1510.739632	311.299301
1512.672204	311.071329
1514.604344	319.726573
1516.536052	321.853846
1518.465507	327.294406
1520.396352	327.321678
1522.326765	321.031469
1524.253106	315.611888
1526.180837	311.257343
1528.106319	311.869231
1530.031371	315.634266
1531.955993	319.307692
1533.880187	314.703497
1535.802134	317.210490
1537.725471	327.486014
1539.646561	336.488112
1541.565407	348.018182
1543.485643	354.386014
1545.403635	351.082517
1547.321201	352.599301
1549.236526	359.869930
1551.153240	376.817483
1553.065898	390.153147
1554.981761	392.116084
1556.895385	397.033566
1558.806770	403.684615
1560.719545	414.653147
1562.628270	425.242657
1564.538384	428.202098
1566.448075	444.123077
1568.357343	469.178322
1570.264376	503.979021
1572.169177	555.431469
1574.075367	630.016783
1575.979326	712.625175
1577.882863	797.530070
1579.785980	899.254545
1581.686867	972.893706
1583.589143	1030.370629
1585.489190	1040.340559
1587.390626	1014.122378
1589.288027	950.806294
1591.185011	867.186713
1593.081576	750.130769
1594.979528	652.334965
1596.871646	572.198601
1598.766958	505.072727
1600.661851	448.650350
1602.554524	437.611888
1604.446779	413.788112
1606.336815	403.922378
1608.226435	405.636364
1610.115640	406.530769
1612.004429	382.656643
1613.891002	371.941259
1615.778962	365.218881
1617.662905	380.912587
1619.548235	375.610490
1621.433152	356.161538
1623.315855	341.462937
1625.199945	347.221678
1627.080023	315.625874
1628.961488	312.805594
1630.840743	327.818881
1632.721385	311.821678
1634.596222	295.486713
1636.476040	305.837063
1638.351853	315.350350
1640.227257	329.569231
1642.104046	306.901399
1643.975038	286.047552
1645.849213	279.167133
1647.719388	271.335664
1649.592744	259.727972
1651.463897	267.695804
1653.332848	265.865734
1655.203185	251.395105
1657.069528	246.258741
1658.937258	275.195105
1660.802788	283.376923
1662.669704	304.327972
1664.532630	293.484615
1666.396943	285.381119
1668.259059	295.800000
1670.120770	301.341958
1671.983866	303.462937
1673.844768	297.884615
1675.703477	274.717483
1677.561782	258.817483
1679.421471	250.074126
1681.275394	261.112587
1683.132490	242.532867
1684.989182	243.165035
1686.841899	240.382517
1688.697787	242.689510
1690.549701	260.732168
1692.401214	268.403497
1694.252326	273.865734
1696.103037	280.551748
1697.953348	263.274825
1699.801475	262.881119
1701.650986	264.241958
1703.494747	267.151049
1705.343459	260.241958
1707.186424	254.218881
1709.032555	257.467832
1710.874725	248.708392
1712.720059	251.981119
1714.559653	236.422378
1716.400632	246.313986
1718.242993	244.292308
1720.081397	216.256643
1721.921185	208.609790
1723.758798	216.953147
1725.596016	234.451049
1727.431060	239.359441
1729.267487	233.127972
1731.101741	236.768531
1732.935602	245.529371
1734.769068	244.296503
1736.598588	227.388112
1738.431267	248.184615
1740.260002	246.348951
1742.091895	236.795105
1743.919845	239.611189
1745.747403	227.829371
1747.574570	231.612587
1749.401345	227.831469
1751.227728	222.889510
1753.050175	224.282517
1754.875777	227.836364
1756.697443	206.247552
1758.520492	210.609790
1760.341380	220.295804
1762.161878	247.100699
1763.983758	248.451049
1765.799938	239.748951
1767.619270	221.054545
1769.434675	239.919580
1771.253231	247.317483
1773.067861	255.369231
1774.882104	263.098601
1776.695961	256.625874
1778.509431	258.237063
1780.320747	266.595804
1782.133445	262.613986
1783.945756	263.644056
1785.754150	236.575524
1787.563925	231.976224
1789.369784	230.858042
1791.178790	242.839860
1792.983882	252.279720
1794.790355	264.601399
1796.596443	265.998601
1798.398622	256.527972
1800.203944	269.676224
1802.005358	267.277622
1803.808153	263.571329
1805.607041	257.988112
1807.407310	260.816783
1809.207197	260.821678
1811.004942	244.509790
1812.802307	241.779720
1814.599291	243.952448
1816.395895	249.131469
1818.190360	230.484615
1819.986205	231.079720
1821.776394	242.955944
1823.571480	259.164336
1825.360913	267.213287
1827.153484	272.038462
1828.943919	274.071329
1830.732219	272.621678
1832.523655	276.485315
1834.309446	294.261538
1836.096615	303.165734
1837.881654	318.145455
1839.669825	305.978322
1841.454111	302.548252
1843.236268	286.720280
1845.019804	285.280420
1846.801211	260.277622
1848.583996	236.824476
1850.362902	226.448951
1852.143186	236.226573
1853.921345	232.214685
1855.700881	242.099301
1857.478293	249.669930
1859.253582	267.631469
1861.030248	273.364336
1862.804792	272.193706
1864.580713	270.760140
1866.351015	284.553147
1868.124444	281.676224
1869.895753	278.087413
1871.666691	279.189510
1873.439007	271.393706
1875.205709	248.227972
1876.975536	238.053846
1878.741500	229.750350
1880.510588	218.556643
1882.275814	215.453147
1884.040672	218.897203
1885.806906	212.245455
1887.569282	226.535664
1889.331291	226.274825
1891.092933	223.759441
1892.854207	236.342657
1894.615115	232.723776
1896.375655	236.374825
1898.134087	239.513986
1899.892152	239.706993
1901.648110	228.602797
1903.405444	236.627972
1905.162413	244.572727
1906.917275	235.555245
1908.670032	243.286014
1910.422426	233.062937
1912.176196	225.046853
1913.927862	220.140559
1915.677425	205.053846
1917.428365	202.586014
1919.178941	208.978322
1920.925679	200.175524
1922.673792	203.375524
1924.419806	212.249650
1926.167196	212.743357
1927.912487	214.590210
1929.655681	223.027972
1931.400251	229.725874
1933.142724	230.856643
1934.884837	234.626573
1936.626591	229.444406
1938.367984	220.745455
1940.107284	222.867483
1941.846225	221.743357
1943.584807	218.888462
1945.321298	208.186014
1947.057430	192.900350
1948.794938	183.541958
1950.528623	190.343706
1952.263683	191.791608
1953.996654	193.532517
1955.729269	200.021678
1957.461527	200.024126
1959.193429	193.321678
1960.923246	207.197203
1962.650977	223.973427
1964.380083	229.214685
1966.108833	233.486014
1967.835500	229.539860
1969.561813	214.881818
1971.289500	213.323077
1973.011650	201.769231
1974.736901	198.074825
1976.458345	193.049650
1978.182889	193.072727
1979.905354	185.458042
1981.624015	196.514685
1983.345775	201.232867
1985.063733	208.587413
1986.783065	214.601399
1988.498597	215.501399
1990.218949	210.282517
1991.935503	218.657343
1993.648260	214.277622
1995.364113	210.229371
1997.077894	214.335664
1998.791325	218.441958
2000.502685	220.659441
2002.215417	216.297902
2003.924358	216.104196
2005.636393	207.420280
2007.342918	206.730070
2009.052536	204.002797
2010.760086	201.871329
2012.467289	202.097203
2014.172426	200.975524
2015.877216	201.376923
2017.583379	209.944056
2019.285758	212.804196
2020.989510	206.320979
2022.691199	204.629371
2024.392542	205.847552
2026.093541	199.055245
2027.792478	202.076923
2029.492787	201.044056
2031.189320	197.169231
2032.887225	197.084615
2034.583072	203.412587
2036.282004	194.055944
2037.975450	181.355944
2039.670267	173.330769
2041.364741	160.634266
2043.055448	165.711189
2044.749237	165.415385
2046.439261	171.960839
2048.130654	169.816084
2049.819995	170.433566
2051.510707	167.838462
2053.197655	173.404196
2054.884263	183.320979
2056.572242	184.367832
2058.256461	181.979021
2059.942050	184.445455
2061.627300	192.388811
2063.310502	206.540559
2064.995074	204.647552
2066.674182	206.174825
2068.358077	204.832867
2070.036510	203.634965
2071.718021	196.367133
2073.395780	197.206294
2075.073203	199.720280
2076.751995	202.640559
2078.428744	198.888811
2080.103452	193.816084
2081.779530	196.736364
2083.453566	193.383217
2085.127267	187.309091
2086.800634	191.448252
2088.471961	194.979720
2090.142954	188.353846
2091.813613	192.929371
2093.483938	201.079720
2095.153929	199.441958
2096.821883	208.291608
2098.489505	204.124476
2100.155093	202.917483
2101.822049	197.926573
2103.486972	196.653846
2105.151563	194.160839
2106.814122	195.574126
2108.478049	196.736364
2110.139945	191.665035
2111.801510	195.394406
2113.462745	196.321678
2115.121950	189.675524
2116.780826	186.099301
2118.439371	178.934965
2120.097587	182.720280
2121.752080	172.427273
2123.409637	174.581119
2125.066864	171.681818
2126.720371	171.932168
2128.375245	175.959441
2130.026400	172.166434
2131.680618	172.991608
2133.331118	178.143357
2134.982986	171.675524
2136.629445	167.072028
2138.280658	172.132867
2139.928159	170.048951
2141.577026	163.629371
2143.223874	172.382517
2144.870397	174.934266
2146.516594	179.762238
2148.159082	187.403497
2149.804629	185.966434
2151.446469	191.988112
2153.091366	198.940559
2154.732558	199.392308
2156.373426	202.263636
2158.013971	202.330769
2159.652503	197.476224
2161.292401	198.276224
2162.928599	204.437063
2164.566163	218.083217
2166.203405	221.774825
2167.838637	224.782517
2169.473547	218.907692
2171.108136	217.904895
2172.742404	206.813986
2174.372978	200.679021
2176.006604	192.964336
2177.636537	186.761538
2179.267837	168.913287
2180.897131	166.125874
2182.526106	167.775524
2184.154761	177.892308
2185.783097	182.451049
2187.409430	194.835664
2189.035445	198.239860
2190.659459	198.118182
2192.284838	187.624476
2193.908216	184.565035
2195.532959	184.364336
2197.154021	177.321678
2198.774766	166.639860
2200.396875	177.201399
2202.016987	180.825175
2203.635103	181.409790
2205.252903	187.748252
2206.870387	195.422378
2208.487556	193.851748
2210.104410	183.639860
2211.720949	184.949650
2213.335494	193.776923
2214.948048	203.472727
2216.561965	201.168531
2218.173891	205.105594
2219.787180	208.181818
2221.398478	207.050350
2223.007788	189.397203
2224.618460	181.411189
2226.227144	172.422378
2227.835516	163.115385
2229.441901	158.611888
2231.049648	168.364336
2232.655410	181.915385
2234.260860	176.370629
2235.864325	181.771329
2237.469153	188.202098
2239.071997	190.617483
2240.672858	186.497203
2242.275082	177.745455
2243.875324	182.355944
2245.476928	181.989510
2247.074879	181.927972
2248.674193	182.130769
2250.271527	186.800000
2251.868553	185.969930
2253.466940	183.004895
2255.061680	194.111888
2256.654442	196.741259
2258.248567	201.511189
2259.844053	197.915385
2261.435894	193.923077
2263.027429	212.306294
2264.620325	208.301399
2266.207912	216.994406
2267.800196	208.613986
2269.387172	198.721678
2270.977177	193.041958
2272.561877	189.344755
2274.151271	193.376923
2275.735362	188.762937
2277.320815	202.204895
2278.904299	204.076224
2280.490808	198.983217
2282.073684	211.847552
2283.656257	208.540909
2285.238526	217.386014
2286.817165	192.352098
2288.398829	185.547552
2289.976864	185.408042
2291.557922	171.335664
2293.135353	167.739510
2294.710821	175.500699
2296.289311	185.616434
2297.864177	179.703497
2299.438742	174.419231
2301.013006	184.513986
2302.586970	187.792657
2304.160634	204.279720
2305.733998	212.142657
2307.303742	206.394406
2308.873189	210.989510
2310.445653	201.682517
2312.012843	204.668531
2313.583050	214.679021
2315.149644	206.238462
2316.717596	205.841958
2318.283594	182.743357
2319.849294	180.886014
2321.414696	178.900699
2322.978145	189.009790
2324.542953	207.044755
2326.104152	188.922378
2327.668366	202.065035
2329.227319	193.884615
2330.789285	197.502098
2332.349301	199.663636
2333.909021	216.058741
2335.466792	219.658741
2337.024269	189.300699
2338.581451	193.548951
2340.136685	183.330769
2341.691625	192.925175
2343.246272	213.262238
2344.800625	195.720979
2346.354684	197.317483
2347.908450	174.460839
2349.460271	179.009091
2351.010149	171.473427
2352.563036	183.767832
2354.110679	165.513986
2355.661330	154.839161
2357.208391	158.851748
2358.756809	166.884615
2360.304935	183.415385
2361.849474	183.140559
2363.395370	181.201399
2364.939327	186.602098
2366.484642	190.404895
2368.026372	195.859441
2369.569460	189.673427
2371.110611	190.074825
2372.651473	177.293706
2374.192046	180.051049
2375.732330	180.353846
2377.272325	179.960839
2378.808741	172.718182
2380.348159	180.701399
2381.884000	172.472028
2383.421198	197.420979
2384.954820	187.379021
2386.491442	185.334965
2388.026134	182.077622
2389.558895	163.118182
2391.091371	154.637063
2392.621918	145.995804
2394.155463	161.334965
2395.683797	169.522378
2397.213487	199.430769
2398.742892	227.283217
2400.272012	228.933566
2401.800846	243.631469
2403.324476	232.329371
2404.852741	236.531469
2406.375803	235.795804
2407.903500	216.665734
2409.424357	194.058741
2410.949846	182.183217
2412.471776	205.890210
2413.995060	198.558741
2415.516424	213.097902
2417.035868	211.702797
2418.556667	207.120280
2420.075547	190.106294
2421.594146	197.110490
2423.110826	187.127972
2424.628862	196.270629
2426.146616	189.323776
2427.660818	193.527972
2429.174741	204.897902
2430.688383	222.537762
2432.203379	230.311888
2433.714828	258.750350
2435.227630	264.894406
2436.738520	269.396503
2438.249131	275.190909
2439.757830	267.137063
2441.269515	248.435664
2442.777657	247.118182
2444.285521	248.075524
2445.793106	237.986014
2447.297152	224.318182
2448.804182	204.876224
2450.309304	193.095105
2451.814149	212.167832
2453.317087	207.250350
2454.819748	206.500699
2456.322134	221.635664
2457.822613	220.528671
2459.324447	239.286014
2460.824375	262.979720
2462.324028	274.430070
2463.823406	260.035664
2465.320881	247.396503
2466.816454	226.556643
2468.315007	211.672727
2469.810032	230.297902
2471.306409	220.379021
2472.799260	215.832168
2474.293464	213.469930
2475.787394	220.237063
2477.277800	229.443357
2478.771184	230.682517
2480.262670	238.630769
2481.752259	230.109091
2483.241576	244.239161
2484.728997	238.009790
2486.219394	218.381119
2487.706273	202.095804
2489.194503	204.697203
2490.679216	197.093007
2492.163659	177.094406
2493.649454	171.430070
2495.133357	166.848252
2496.618610	166.845455
2498.098730	182.483916
2499.581822	185.265734
2501.063025	198.881818
2502.543958	181.710490
2504.023001	154.184615
2505.501777	146.547552
2506.980284	159.883916
2508.458522	147.959441
2509.936493	143.088112
2511.410958	156.160140
2512.888393	169.423077
2514.362323	162.231469
2515.837605	170.558042
2517.312619	161.578322
2518.784132	164.825874
2520.256996	172.380420
2521.727977	152.311189
2523.200308	162.059441
2524.667525	162.434965
2526.137709	169.183916
2527.606012	180.398601
2529.074049	191.888811
2530.541822	195.438462
2532.009330	183.629371
2533.476574	188.839161
2534.940325	173.611888
2536.405426	181.306294
2537.868650	183.304196
2539.333223	162.562238
2540.794308	151.183916
2542.256742	143.739161
2543.718913	159.739860
2545.177597	162.711189
2546.640854	183.233566
2548.099014	185.817483
2549.558523	193.065035
2551.012939	178.974825
2552.471925	170.306993
2553.929039	181.601399
2555.384281	183.630070
2556.839263	188.632168
2558.292375	170.712587
2559.746836	171.220280
2561.199428	185.517483
2562.651760	184.497902
2564.102224	197.564336
2565.555645	168.509790
2567.003983	163.803497
2568.455276	139.738462
2569.904703	141.345455
2571.350659	154.593706
2572.799569	172.194406
2574.245008	191.331469
2575.691796	200.701399
2577.136720	203.057343
2578.581387	196.620979
2580.027401	193.865035
2581.469948	181.869231
2582.913843	153.718881
2584.354273	146.972727
2585.796051	138.750350
2587.235969	140.429371
2588.677234	153.076224
2590.115037	172.780420
2591.555790	207.290909
2592.991481	234.873427
2594.430120	223.235664
2595.866903	231.196503
2597.301830	235.751748
2598.739704	222.640559
2600.172521	213.946154
2601.606685	206.608392
2603.038994	189.830769
2604.472651	186.438462
2605.904453	182.619580
2607.336003	178.965734
2608.767299	186.688112
2610.196744	191.730769
2611.625936	185.085315
2613.053277	202.295105
2614.481965	199.841958
2615.910400	202.234266
2617.335389	210.163636
2618.761723	214.129371
2620.186210	208.815385
2621.612041	217.127273
2623.034430	217.360839
2624.458163	231.595105
2625.880051	242.697203
2627.301688	264.643357
2628.721481	271.222378
2630.142619	279.476923
2631.563507	284.881119
2632.980956	296.454545
2634.401345	291.966434
2635.818297	294.218881
2637.235001	302.937063
2638.651456	301.240559
2640.067663	305.641259
2641.483622	318.865734
2642.897740	321.139161
2644.311610	335.160140
2645.723641	347.852448
2647.137017	365.562238
2648.546963	398.502098
2649.959845	435.356643
2651.369298	453.923776
2652.778505	477.799301
2654.185876	505.200699
2655.596181	519.437762
2657.004650	549.879021
2658.411284	580.035664
2659.817673	628.841259
2661.222229	677.267133
2662.628128	725.138462
2664.032193	764.046853
2665.436015	802.013986
2666.839592	846.110490
2668.241338	887.783217
2669.644427	919.665035
2671.044098	960.872727
2672.445113	999.765734
2673.842712	1024.993706
2675.243240	1042.540559
2676.640354	1063.472028
2678.038811	1070.310490
2679.435440	1056.611888
2680.831828	1022.541259
2682.227973	977.944755
2683.622292	946.492308
2685.017954	922.417483
2686.410207	889.520280
2687.803802	846.411189
2689.195573	807.052448
2690.588687	760.761538
2691.979976	722.400000
2693.369444	692.969930
2694.758671	657.837063
2696.147658	612.749650
2697.537988	572.683217
2698.923334	533.800699
2700.311603	477.925874
2701.698052	441.723077
2703.084262	406.772028
2704.470233	374.479720
2705.852806	360.022378
2707.236721	339.693706
2708.620397	333.742657
2710.003836	319.174825
2711.383879	306.897902
2712.765264	290.909790
2714.144833	263.809790
2715.525744	221.365734
2716.904840	193.254545
2718.282122	189.688112
2719.660745	181.651049
2721.037554	174.862238
2722.414128	169.060839
2723.790466	176.281119
2725.164992	189.035664
2726.540859	201.025175
2727.913339	230.532168
2729.288736	225.058741
2730.659172	218.727972
2732.030948	220.526573
2733.402491	251.495105
2734.772225	262.553846
2736.143299	252.583916
2737.512566	230.604196
2738.881599	216.374126
2740.248826	226.275524
2741.615819	224.357343
2742.982580	215.288811
2744.349108	191.599301
2745.713832	159.727972
2747.078323	143.485315
2748.442582	144.454545
2749.806610	154.909790
2751.170405	153.772727
2752.530828	133.879720
2753.894160	129.305594
2755.252550	129.911189
2756.613850	149.990909
2757.971780	170.167832
2759.332618	160.167133
2760.691656	160.226573
2762.047326	153.710490
2763.405905	163.080420
2764.761116	180.024476
2766.116098	179.855245
2767.469283	173.620979
2768.825375	159.139860
2770.178103	160.603497
2771.530602	160.145455
2772.882874	169.481119
2774.236483	187.534266
2775.586731	181.029371
2776.935186	202.758042
2778.286545	202.842657
2779.634545	220.669231
2780.983884	225.947552
2782.331430	221.800699
2783.678750	213.464336
2785.025842	198.788112
2786.371144	201.964336
2787.716220	192.000000
2789.061070	171.321678
2790.405694	155.330070
2791.746965	141.794406
2793.089575	151.684615
2794.431960	141.855245
2795.774119	141.672727
2797.112929	129.118182
2798.454639	131.689510
2799.793000	124.744056
2801.132699	131.683217
2802.470612	146.994406
2803.806741	145.255944
2805.142647	150.127273
2806.479889	146.779720
2807.815348	154.432867
2809.150584	163.976224
2810.484038	166.052448
2811.818828	161.452448
2813.150277	160.951748
2814.484622	175.767133
2815.814069	161.619580
2817.144853	157.094406
2818.475415	157.086014
2819.804198	163.369231
2821.134318	155.881119
2822.462659	148.230769
2823.790778	147.154545
2825.117121	149.279021
2826.444799	160.584615
2827.769145	165.197203
2829.094827	186.114685
2830.418733	188.927972
2831.742419	176.774825
2833.067441	172.513986
2834.389134	160.287413
2835.710608	153.446154
2837.031862	140.322378
2838.352898	128.781119
2839.672162	115.774825
2840.992761	118.772727
2842.311588	129.737762
2843.630197	133.490210
2844.947036	142.564336
2846.263657	147.790909
2847.580061	154.117483
2848.894695	154.720979
2850.210664	159.091608
2851.523314	154.667133
2852.837298	153.097203
2854.151066	146.212587
2855.464617	155.019580
2856.776402	167.243357
2858.086420	175.027273
2859.397773	179.889510
2860.705811	185.676923
2862.015183	189.013986
2863.324340	179.338462
2864.633282	167.155944
2865.940461	161.497902
2867.245876	130.786713
2868.552626	127.043357
2869.857614	125.927972
2871.162387	137.453147
2872.465400	141.620979
2873.771293	154.748252
2875.072332	155.990909
2876.374704	154.165734
2877.675318	145.741958
2878.977264	141.759441
2880.278998	147.136364
2881.577428	141.923077
2882.877191	140.057343
2884.175197	150.869930
2885.472991	157.542657
2886.769028	161.795105
2888.066399	170.350350
2889.362015	160.935664
2890.657419	145.467133
2891.952612	129.801399
2893.244508	117.851748
2894.539279	127.286713
2895.830755	133.516084
2897.123563	146.720979
2898.416161	153.553846
2899.705464	166.600699
2900.996101	162.476224
2902.284986	163.120979
2903.575203	162.023776
2904.862129	137.620280
2906.150387	121.697902
2907.436896	110.358741
2908.723196	109.174126
2910.009288	104.849650
2911.293632	111.546154
2912.580848	122.115385
2913.863237	138.326573
2915.146958	171.504196
2916.428932	170.566434
2917.710700	182.331469
2918.990722	176.521678
2920.273614	159.274825
2921.554761	159.740559
2922.832626	160.426573
2924.113360	156.042657
2925.390813	130.383916
2926.668061	126.529371
2927.943566	115.502797
2929.221939	136.873427
2930.495498	149.698601
2931.771924	130.265734
2933.046608	143.283916
2934.319553	145.808392
2935.593829	139.197902
2936.866364	166.837063
2938.138696	166.753147
2939.407755	162.270629
2940.679679	140.739860
2941.949865	139.098601
2943.219847	124.995804
2944.489626	121.240559
2945.757668	108.066434
2947.023975	97.345455
2948.290079	103.811888
2949.557514	115.615385
2950.823213	130.867133
2952.088710	154.852448
2953.354006	152.837762
2954.616036	154.930070
2955.879396	171.117483
2957.142555	173.651049
2958.403981	170.609790
2959.666738	149.787413
2960.927762	136.091608
2962.187056	124.374825
2963.446149	99.852448
2964.705042	97.223776
2965.963735	113.309790
2967.222228	117.179720
2968.478992	109.954545
2969.735557	129.409091
2970.990393	153.028671
2972.246559	139.179720
2973.499470	152.813986
2974.753709	144.181119
2976.007750	157.718182
2977.260065	153.118881
2978.512182	150.637762
2979.762574	157.093007
2981.015821	174.725874
2982.264291	163.312587
2983.515616	142.339161
2984.763691	137.738462
2986.011569	130.839161
2987.259251	114.469231
2988.506735	105.695105
2989.752498	88.809091
2990.998064	95.481818
2992.244959	77.324476
2993.488609	77.459441
2994.733586	81.073427
2995.975321	82.460839
2997.219907	90.529371
2998.462774	90.474126
2999.702400	97.491608
3000.944876	110.505594
3002.184112	122.578322
3003.424676	123.742657
3004.663523	123.298601
3005.902176	131.925175
3007.139113	114.385315
3008.377378	113.225175
3009.613927	104.945455
3010.850283	103.369231
3012.086445	109.867832
3013.320893	112.344755
3014.555148	103.044056
3015.789210	102.997203
3017.021560	97.916084
3018.252198	95.258741
3019.485682	104.782517
3020.717455	114.048951
3021.947516	111.017483
3023.177386	110.579720
3024.405546	115.950350
3025.635033	136.139161
3026.862810	143.915385
3028.090396	148.577622
3029.319308	144.946853
3030.543478	134.607692
3031.770491	112.883217
3032.994281	108.598601
3034.219396	118.465734
3035.442806	107.439860
3036.666025	96.148252
3037.887539	90.476224
3039.111894	93.731469
3040.331514	100.325175
3041.552460	89.490909
3042.773216	93.879021
3043.992270	107.779021
3045.212648	92.569930
3046.429810	101.397203
3047.648297	102.186014
3048.865083	111.229371
3050.081680	99.025175
3051.298090	95.818182
3052.511286	93.937063
3053.727320	91.259441
3054.940142	102.886014
3056.155801	95.325874
3057.366737	107.241958
3058.578999	119.268531
3059.791073	115.377622
3061.002961	137.309091
3062.213152	144.904895
3063.423156	144.725874
3064.632974	125.999301
3065.841096	117.603497
3067.049033	107.298601
3068.255274	106.933566
3069.462840	100.263636
3070.668711	83.550350
3071.874397	87.407692
3073.079899	85.743357
3074.283707	79.139860
3075.488839	98.953147
3076.692278	98.462937
3077.894025	84.893706
3079.095589	81.420979
3080.296969	92.616783
3081.498165	112.207692
3082.697671	132.767133
3083.896994	134.673427
3085.097640	140.344056
3086.296596	134.079720
3087.492357	117.858042
3088.690948	108.683916
3089.886345	95.387413
3091.083066	82.838462
3092.276594	76.795105
3093.472950	84.429371
3094.667619	96.980420
3095.859098	108.976923
3097.054908	114.218182
3098.246025	118.851049
3099.438465	112.998601
3100.627716	102.085315
3101.819794	94.974825
3103.010188	92.303497
3104.197396	88.868531
3105.385926	104.711888
3106.575779	108.804895
3107.762447	115.156643
3108.948936	110.169231
3110.135246	90.902797
3111.322877	100.664336
3112.507326	99.529371
3113.690096	107.169930
3114.875688	117.069930
3116.059601	125.700000
3117.241834	133.980420
3118.423890	137.009790
3119.605767	137.478322
3120.787466	132.029371
3121.967488	124.218182
3123.145833	110.877622
3124.326998	101.227273
3125.504988	117.812587
3126.682801	101.758042
3127.860437	104.672727
3129.036398	90.153846
3130.212183	92.357343
3131.389288	86.710490
3132.564720	71.023776
3133.738478	69.895105
3134.910563	72.224476
3136.083969	72.874126
3137.257200	70.897203
3138.428759	81.582517
3139.601638	85.480420
3140.771350	72.030769
3141.942383	69.297203
3143.111745	61.325175
3144.279438	75.743357
3145.449946	79.751748
3146.615795	80.343357
3147.785954	81.495105
3148.951455	78.711888
3150.116783	83.403497
3151.281937	91.796503
3152.446918	99.803497
3153.613218	104.590210
3154.774865	102.248951
3155.937833	117.057343
3157.100628	116.897902
3158.263249	121.223077
3159.424206	113.178322
3160.584991	106.502098
3161.745603	88.092308
3162.904551	85.023776
3164.063327	85.387413
3165.221932	87.634965
3166.380365	76.182517
3167.538626	82.539161
3168.695226	81.959441
3169.850164	96.517483
3171.006421	98.320280
3172.161017	99.604895
3173.315443	97.807692
3174.468208	110.160839
3175.620804	100.370629
3176.773230	99.276923
3177.925485	94.009091
3179.077571	97.383217
3180.226510	90.407692
3181.378256	96.718881
3182.528345	93.573427
3183.676776	98.627972
3184.825039	96.221678
3185.973133	98.790909
3187.121058	109.024476
3188.267327	123.581818
3189.413428	116.980420
3190.557875	108.761538
3191.702153	117.548951
3192.846264	105.289510
3193.991693	86.634965
3195.133983	73.173427
3196.276105	51.273427
3197.418061	45.085315
3198.559849	43.918182
3199.701470	54.532168
3200.839956	66.252448
3201.979759	71.440559
3203.120879	70.737762
3204.258866	82.348951
3205.395202	114.551748
3206.531374	114.193007
3207.668862	120.788811
3208.804702	124.555245
3209.941859	133.263636
3211.074403	149.917483
3212.211228	157.118182
3213.343443	143.109091
3214.476974	126.797902
3215.610340	107.960140
3216.740580	103.155944
3217.873617	123.414685
3219.003527	114.736364
3220.134755	115.446154
3221.262857	123.127972
3222.393757	110.428671
3223.523012	120.348951
3224.650624	115.716783
3225.775113	101.154545
3226.903878	84.674126
3228.029521	75.531469
3229.155001	81.196503
3230.278840	96.705594
3231.405474	103.495105
3232.527510	89.137762
3233.650862	112.909091
3234.774051	117.410490
3235.897079	112.919580
3237.018467	123.465035
3238.139694	124.163636
3239.259282	123.223077
3240.378709	125.360140
3241.496499	120.982517
3242.617080	136.118182
3243.734548	138.285315
3244.851855	134.857343
3245.969002	135.509091
3247.084512	145.206294
3248.201338	143.873427
3249.315053	141.760140
3250.431559	123.844755
3251.546429	120.293706
3252.658191	114.867832
3253.769794	98.004895
3254.882712	91.347552
3255.995470	78.193706
3257.105122	66.946853
3258.216089	69.548252
3259.326897	74.336364
3260.436073	92.990909
3261.543618	105.038462
3262.652478	109.619580
3263.761179	107.897902
3264.866778	117.919580
3265.973692	105.283217
3267.078976	92.113986
3268.185574	78.196503
3269.289072	43.009790
3270.393884	42.361538
3271.498539	41.369231
3272.600096	36.423077
3273.701496	50.602797
3274.804210	53.484615
3275.906768	65.966434
3277.006229	71.793007
3278.108474	70.253147
3279.207623	68.582517
3280.305147	85.148951
3281.402517	84.009091
3282.502668	104.952448
3283.599727	125.158042
3284.696630	145.623776
3285.793378	130.870629
3286.885567	136.194406
3287.982006	128.417483
3289.076822	127.014685
3290.171483	88.849650
3291.264523	73.955245
3292.357409	80.311888
3293.448674	88.514685
3294.541252	92.267133
3295.632210	100.233566
3296.721548	83.602098
3297.810733	86.047552
3298.901230	72.757343
3299.988643	80.825175
3301.075904	78.109091
3302.164477	82.802797
3303.252897	73.603497
3304.336771	85.335664
3305.424885	95.449650
3306.509919	97.790210
3307.593337	105.182517
3308.678067	91.706294
3309.761181	88.242657
3310.845607	98.620280
3311.926956	98.658042
3313.009616	85.883217
3314.090661	71.364336
3315.171556	72.486713
3316.250838	68.986713
3317.329969	53.879720
3318.410412	37.250350
3319.487780	34.176923
3320.566460	48.511189
3321.643528	56.196503
3322.720446	64.906993
3323.795754	73.552448
3324.870912	78.205594
3325.947381	90.990210
3327.020780	87.818881
3328.094029	92.039860
3329.168590	91.288811
3330.241542	103.725874
3331.312885	106.102797
3332.385539	106.369231
3333.455126	102.098601
3334.526024	92.225874
3335.595316	68.834266
3336.665917	65.604895
3337.734912	70.794406
3338.802302	69.690909
3339.868086	57.829371
3340.938096	57.848951
3342.005042	68.243357
3343.068928	81.718182
3344.135580	81.734965
3345.200629	81.439161
3346.264074	68.093706
3347.327373	59.667133
3348.390525	51.484615
3349.453531	53.278322
3350.516391	70.597902
3351.577648	84.535664
3352.635849	93.481818
3353.698271	99.606993
3354.757637	104.060140
3355.816857	97.267133
3356.877386	93.343357
3357.933407	90.697203
3358.992191	78.793706
3360.046468	87.011888
3361.103509	85.341958
3362.158951	76.808392
3363.215702	97.252448
3364.270856	107.726573
3365.324412	110.580420
3366.376371	103.429371
3367.431093	90.430070
3368.482765	82.502797
3369.534293	81.357343
3370.587131	86.432168
3371.636921	83.150350
3372.688020	96.281818
3373.736072	81.592308
3374.786885	76.840559
3375.834652	84.716783
3376.882277	83.125874
3377.929760	86.920280
3378.975650	79.622378
3380.022848	60.589510
3381.067003	57.370629
3382.113917	54.104196
3383.159240	64.129371
3384.201521	64.862937
3385.243661	86.854545
3386.287110	95.081119
3387.330417	109.873427
3388.372134	108.857343
3389.413711	112.924476
3390.455146	106.311888
3391.494993	104.946853
3392.533251	64.711189
3393.572817	50.029371
3394.612243	43.342657
3395.650081	56.333566
3396.686332	39.125175
3397.722443	41.282517
3398.759862	37.544056
3399.794248	12.254545
3400.829942	14.868531
3401.865496	11.553846
3402.898018	7.448252
3403.933294	19.312587
3404.965540	11.445455
3405.997646	47.116783
3407.028170	74.946853
3408.060000	108.843357
3409.091692	114.072028
3410.120356	126.998601
3411.148883	116.271329
3412.178716	92.958741
3413.208412	103.841259
3414.235082	86.628671
3415.263058	78.369930
3416.288010	71.616084
3417.315713	72.664336
3418.340391	81.097203
3419.366376	75.795105
3420.390782	91.617483
3421.415051	92.785315
3422.437741	82.552448
3423.460295	69.622378
3424.484155	64.941958
3425.504995	78.603497
3426.525699	81.542557
3427.547709	83.491484
3428.566701	83.690310
3429.585558	81.379071
3430.605721	75.797802
3431.622867	66.186538
