-117.633747	17.472527
-114.964146	17.047253
-112.297481	16.089211
-109.631568	14.673926
-106.968588	12.876923
-104.304177	10.773726
-101.642697	8.439860
-98.979788	4.302098
-96.321985	2.297902
-93.662753	0.883217
-91.004269	-1.065035
-88.348710	-0.547552
-85.691721	0.867133
-83.039831	0.490210
-80.386511	4.496503
-77.736110	4.909790
-75.084281	5.144056
-72.437542	5.653846
-69.789373	5.837063
-67.141947	4.707692
-64.497436	6.502098
-61.851495	4.297902
-59.210636	4.789510
-56.568348	4.901399
-53.928969	5.040559
-51.288161	3.483916
-48.648092	5.444056
-46.013097	5.074126
-43.376672	7.026573
-40.743150	7.607692
-38.108200	9.601399
-35.478316	12.700699
-32.844838	15.881119
-30.216423	16.248252
-27.588742	19.320280
-24.959632	10.493706
-22.335580	-39.206993
-19.707937	-210.217483
-17.085349	-590.520280
-14.463491	-752.582517
-11.842364	615.848252
-9.221968	2915.344056
-6.604459	4820.806993
-3.985522	6146.151748
-1.369471	6882.874126
1.245853	7031.266434
3.860448	6596.498601
6.472162	5580.003497
9.085303	4020.614685
11.693412	2041.227972
14.305101	36.641259
16.911760	-1105.104895
19.519848	-687.162937
22.127210	-59.987413
24.729548	17.476923
27.335464	15.481818
29.936359	13.241259
32.538681	10.193007
35.135985	8.900699
37.736866	6.279021
40.332731	5.481818
42.930024	3.955944
45.526598	4.925175
48.118163	3.236364
50.711157	5.711888
53.301289	9.412587
55.892848	8.860839
58.481549	10.493007
61.071676	11.729371
63.656804	8.353147
66.243360	8.252448
68.829201	7.224476
71.412189	6.298601
73.996604	6.403497
76.573889	7.359441
79.154741	5.866434
81.732744	6.519580
84.310037	6.148252
86.888757	2.437762
89.462494	-0.535664
92.037658	-1.967832
94.609979	-2.993007
97.181593	0.878322
99.750366	2.846853
102.320566	7.686014
104.887927	10.713986
107.456715	12.292308
110.022666	10.802098
112.585782	13.937063
115.152454	12.477622
117.709904	13.429371
120.273040	15.741259
122.831217	24.322378
125.392948	42.447552
127.949722	76.189510
130.507922	118.023776
133.061170	180.348252
135.613720	251.179021
138.169820	335.297203
140.720972	422.363636
143.271427	510.472727
145.821184	583.666434
148.368122	644.824476
150.914365	683.569231
153.462033	706.627273
156.009005	714.618881
158.551041	713.380420
161.092385	702.059441
163.633035	696.406993
166.175110	689.144056
168.714375	687.018182
171.250830	678.739161
173.786595	677.626573
176.323785	674.602797
178.860284	671.393706
181.393977	663.483916
183.924866	661.751049
186.455067	657.053846
188.986694	655.469231
191.515519	654.571329
194.041545	657.562238
196.566885	663.160839
199.093650	667.961538
201.617619	667.479720
204.140902	671.373427
206.663501	671.495105
209.183307	671.557343
211.702430	673.012587
214.220870	676.702797
216.740735	677.773427
219.253597	686.665734
221.769991	692.397203
224.285704	704.299301
226.796526	719.795105
229.308773	733.424476
231.818237	739.579021
234.327023	743.013287
236.835131	745.683916
239.344663	749.329371
241.849314	749.546853
244.353289	741.430769
246.858688	735.634266
249.359212	732.657343
251.863259	727.887413
254.360336	729.351748
256.860935	730.388811
259.358763	733.188112
261.855918	733.080420
264.352401	737.050350
266.844020	745.130070
269.339159	752.246154
271.831531	758.214685
274.323233	764.402098
276.812172	771.185315
279.302534	773.052448
281.790135	777.115385
284.274976	778.973427
286.763332	786.644755
289.244748	796.683217
291.729678	808.623077
294.209762	825.611189
296.693359	840.129371
299.172114	851.718182
301.652291	860.639161
304.129717	863.799301
306.606479	858.630070
309.082577	850.848252
311.555927	847.341259
314.028616	840.565734
316.500643	833.448951
318.972008	826.049650
321.440630	815.493007
323.908592	805.710490
326.377977	788.451049
328.842539	771.451748
331.310605	750.621678
333.773850	731.551748
336.236439	715.766434
338.698371	706.373427
341.159646	702.428671
343.618186	697.894406
346.078149	693.119580
348.535380	689.561538
350.991956	683.825175
353.447878	680.032867
355.901070	671.230769
358.355685	663.189510
360.805498	656.939860
363.258807	652.086713
365.707317	643.238462
368.155177	634.904196
370.604459	627.561538
373.048946	620.523077
375.494856	616.183217
377.940117	610.578322
380.382659	610.004196
382.824553	608.769231
385.265799	602.701399
387.704331	598.711189
390.144283	596.391608
392.581522	594.839161
395.016049	588.219580
397.454064	583.572028
399.887303	577.946154
402.321962	573.694406
404.751849	570.982517
407.185221	565.333566
409.613823	564.686014
412.041783	564.362238
414.471164	562.583916
416.895781	558.313986
419.321818	558.593007
421.747216	560.391608
424.171973	557.853846
426.591971	557.485315
429.013391	552.277622
431.432114	548.434266
433.852258	539.888112
436.269707	529.932168
438.688577	521.973427
441.104752	510.190210
443.516181	496.653147
445.931086	481.724476
448.343301	472.698601
450.754882	463.639860
453.165830	452.788112
455.574090	447.092308
457.981719	443.990909
460.388715	442.951748
462.795080	438.723077
465.198762	439.541259
467.601814	435.718881
470.004236	432.016084
472.406028	431.745455
474.805142	434.167832
477.205676	434.532867
479.605581	442.971329
482.000764	450.093007
484.399412	463.870629
486.793341	475.211189
489.186644	488.003497
491.579322	500.095804
493.971373	522.406294
496.364844	541.513986
498.753602	594.413287
501.139694	717.541958
503.527206	994.065734
505.914095	1501.002098
508.298319	2230.820979
510.683963	3089.816783
513.066945	3926.679021
515.447265	4619.969231
517.829006	5082.802797
520.208087	5256.925175
522.588586	5125.197203
524.966429	4700.723077
527.341615	4074.326573
529.716184	3361.059441
532.092172	2709.274126
534.465507	2219.737762
536.840259	1893.539860
539.210325	1684.024476
541.579777	1523.270629
543.950646	1399.117483
546.316834	1295.633566
548.684441	1211.625175
551.049402	1141.077622
553.413751	1081.837762
555.777486	1037.925874
558.142639	1001.865734
560.503120	968.504895
562.865018	937.523077
565.224277	907.743357
567.580897	873.563636
569.940963	844.230070
572.294337	812.188811
574.651156	785.332168
577.005340	757.895105
579.358915	735.031469
581.711883	711.452448
584.062218	694.072028
586.413971	677.135664
588.759047	660.776224
591.109586	645.113986
593.453453	628.167133
595.802781	613.444755
598.147460	606.139860
600.489515	596.125175
602.832987	599.204196
605.173836	603.597203
607.514082	618.368531
609.851708	633.607692
612.192769	649.870629
614.529193	664.283916
616.867033	670.660140
619.202256	669.496503
621.534862	656.243357
623.868886	640.153147
626.200295	618.924476
628.531106	596.213287
630.861319	581.941259
633.190935	567.188811
635.515927	559.738462
637.846361	551.210490
640.172174	548.489510
642.495379	548.064336
644.820001	543.099301
647.142017	540.532867
649.463439	535.313287
651.782258	530.520280
654.102494	525.133566
656.422135	523.264336
658.739177	526.665035
661.055626	526.760140
663.369477	528.257343
665.684744	525.288811
667.997414	530.675524
670.311499	527.750350
672.620984	526.567133
674.931885	520.757343
677.240192	512.354545
679.547912	501.327972
681.857047	491.492308
684.161589	479.669930
686.465545	472.369231
688.768914	459.474825
691.073699	452.637063
693.373896	445.313287
695.675509	441.815385
697.976536	433.316084
700.272982	429.879021
702.570843	422.360839
704.868120	422.137063
707.164814	419.390210
709.456932	420.437762
711.752460	417.262937
714.043416	417.795105
716.335786	413.351049
718.625580	415.044755
720.914795	411.757343
723.203430	406.673427
725.489492	400.764336
727.776968	399.673427
730.061874	392.664336
732.346202	392.855944
734.627961	390.630070
736.911134	392.902098
739.193730	391.283217
741.471770	388.090909
743.751224	385.072727
746.030103	387.552448
748.308407	388.174126
750.582160	387.688112
752.857328	387.867133
755.131922	389.361538
757.403957	382.230070
759.677405	386.610490
761.948295	387.601399
764.216629	389.984615
766.486376	388.026573
768.753568	383.761538
771.020191	386.367832
773.286243	387.893706
775.549744	384.010490
777.814657	384.740559
780.079002	382.493007
782.338816	381.195804
784.600044	380.704895
786.860704	379.694406
789.118818	382.063636
791.374387	387.061538
793.633346	389.243357
795.885807	386.907692
798.143635	392.039860
800.396944	392.365734
802.647712	396.078322
804.899894	405.204895
807.149536	399.355944
809.400590	398.001399
811.647133	395.413287
813.895089	390.779021
816.140509	388.818881
818.387342	389.679720
820.633612	383.730070
822.875379	376.930769
825.120528	375.510490
827.359206	365.998601
829.601265	371.102797
831.838826	373.355245
834.077799	368.125175
836.314245	372.820280
838.552102	377.274825
840.787434	384.722378
843.020242	384.318182
845.254462	388.309091
847.486160	382.883217
849.717303	382.865734
851.947891	371.735664
854.177925	359.760140
856.407404	358.566434
858.632403	355.628671
860.860775	348.755245
863.084669	353.783217
865.309974	358.224476
867.530803	368.720280
869.755004	372.402797
871.974732	376.155944
874.195870	367.213986
876.416458	366.602098
878.634537	351.843357
880.854025	344.736364
883.069047	340.189510
885.283521	340.947552
887.497448	333.920979
889.710827	340.589510
891.923660	345.825175
894.135945	353.069930
896.345729	356.374825
898.554967	352.132867
900.763660	341.419580
902.969853	347.674825
905.177456	345.130070
907.382562	353.479720
909.587124	362.562937
911.789191	379.315385
913.992667	384.829371
916.193649	401.293007
918.394089	424.255944
920.595938	440.856643
922.791396	463.313287
924.990212	491.769231
927.184591	529.543357
929.382327	570.657343
931.575627	617.100699
933.770336	677.745455
935.962558	733.928671
938.154243	788.327972
940.345390	816.539161
942.534054	852.064336
944.722181	867.655245
946.907828	871.754545
949.096828	882.211189
951.281403	883.412587
953.465444	870.751049
955.652836	866.479021
957.831923	866.468531
960.014361	874.520280
962.196264	879.006993
964.375694	888.694406
966.552651	892.274825
968.731016	902.850350
970.910788	900.796503
973.084210	913.123776
975.260980	924.637762
977.433342	904.936364
979.607112	870.020979
981.776478	838.744056
983.949188	792.951049
986.119433	776.739860
988.289148	737.869231
990.458335	717.179720
992.623125	681.103497
994.791257	648.137762
996.954993	626.244755
999.120137	589.641958
1001.282821	565.711189
1003.444980	529.325874
1005.604682	494.875524
1007.763859	479.406294
1009.924443	469.097203
1012.082572	477.092308
1014.240178	486.224476
1016.397259	500.726573
1018.553818	487.945455
1020.705997	485.480420
1022.859583	487.057343
1025.012647	461.058042
1027.163262	462.399301
1029.315283	452.792308
1031.462932	440.182517
1033.613912	434.431469
1035.760521	420.385315
1037.906611	429.586014
1040.052183	460.057343
1042.199160	439.358741
1044.339848	428.343357
1046.483865	410.487413
1048.625443	407.365035
1050.766503	402.172727
1052.908969	394.725874
1055.045154	397.976923
1057.184666	399.769930
1059.319822	380.076224
1061.458303	357.331469
1063.592431	363.529371
1065.726045	378.379021
1067.861063	366.786713
1069.991732	372.141958
1072.123807	359.103497
1074.253451	372.366434
1076.382584	395.899301
1078.511206	407.602797
1080.639316	412.764336
1082.765000	399.148252
1084.890174	357.388811
1087.016752	360.259441
1089.138992	356.641259
1091.262637	356.486014
1093.381947	349.137063
1095.506486	365.972727
1097.624781	367.160140
1099.744479	371.900000
1101.861760	404.462937
1103.978533	396.588811
1106.094800	372.167832
1108.208652	357.336364
1110.323907	354.192308
1112.434840	367.722378
1114.549085	347.254545
1116.659009	335.946853
1118.770336	345.333566
1120.881160	350.388112
1122.987667	336.675524
1125.097483	313.146853
1127.202985	326.504895
1129.309891	302.443357
1131.410581	288.513986
1133.516483	278.651748
1135.618076	289.469930
1137.721071	296.578322
1139.823567	303.570629
1141.919855	320.476923
1144.021350	341.333566
1146.118543	336.058042
1148.215237	331.479720
1150.311434	322.623077
1152.407132	322.120280
1154.502333	304.567133
1156.595137	282.793007
1158.689343	271.483217
1160.777358	275.868531
1162.870571	277.346154
1164.957596	287.327972
1167.047921	305.200699
1169.133957	318.934965
1171.223291	320.628671
1173.306444	330.206993
1175.391000	337.706294
1177.476957	330.485315
1179.558632	320.600000
1181.641708	302.648252
1183.722399	304.405594
1185.802599	302.414685
1187.882307	292.246154
1189.961524	294.157343
1192.038358	299.048252
1194.112812	307.676224
1196.190558	303.965035
1198.264033	314.304895
1200.338910	308.978322
1202.409519	308.346853
1204.481529	297.627273
1206.551163	290.346853
1208.622198	289.834266
1210.692745	280.218881
1212.759032	269.879021
1214.826719	276.621678
1216.892033	278.227972
1218.958748	282.440559
1221.021207	283.807692
1223.086952	278.721678
1225.148442	266.411189
1227.211332	270.541259
1229.271855	271.482517
1231.331895	279.876923
1233.391451	282.069231
1235.448643	282.320280
1237.505352	281.255944
1239.559699	287.195804
1241.617326	287.712587
1243.672591	292.268531
1245.723615	290.527273
1247.776040	281.158741
1249.827984	274.618881
1251.877570	283.374825
1253.926677	292.120979
1255.975305	304.960140
1258.023455	303.803497
1260.071127	304.070629
1262.114568	303.596503
1264.161285	306.700699
1266.205648	305.134266
1268.249534	305.449650
1270.291070	305.823776
1272.330256	297.012587
1274.372715	301.720280
1276.410951	298.077622
1278.450586	297.814685
1280.489745	287.927972
1282.524687	280.418182
1284.561027	271.180420
1286.595022	268.827273
1288.630416	265.319580
1290.661596	263.881119
1292.694175	272.936364
1294.726282	277.533566
1296.756048	282.320979
1298.787211	296.627972
1300.814167	302.948951
1302.842522	302.106993
1304.866671	296.793706
1306.894086	300.109091
1308.917298	291.777622
1310.941908	292.000699
1312.964183	283.179720
1314.987856	271.833566
1317.009196	279.048252
1319.030069	275.211888
1321.050474	279.255944
1323.066686	282.504196
1325.084295	287.043357
1327.099576	285.732168
1329.118116	286.811189
1331.132466	286.124476
1333.144491	288.137063
1335.159774	285.987413
1337.170871	289.809091
1339.183364	294.205594
1341.191675	303.911888
1343.203242	301.316783
1345.208770	313.925175
1347.217553	321.316084
1349.222158	326.716084
1351.230017	331.101399
1353.237414	324.846154
1355.238780	318.928671
1357.241542	321.584615
1359.243845	314.212587
1361.245688	317.357343
1363.247071	312.346853
1365.246140	302.304196
1367.244751	300.759441
1369.242904	303.981818
1371.240599	304.617483
1373.234131	307.450350
1375.229058	297.820979
1377.223529	296.303497
1379.217543	295.047552
1381.209250	293.525874
1383.200501	294.250350
1385.189447	298.376923
1387.179788	298.490909
1389.169675	301.376224
1391.157257	303.839161
1393.144386	305.201399
1395.129213	295.559441
1397.115435	290.143357
1399.099356	289.551049
1401.082825	291.135664
1403.065842	293.429371
1405.046561	291.732867
1407.028674	294.714685
1409.008490	288.349650
1410.987856	287.315385
1412.963083	289.690210
1414.941548	275.923077
1416.917720	274.244056
1418.893442	260.541259
1420.868715	258.004196
1422.841698	264.420979
1424.814232	266.276224
1426.786318	275.230769
1428.757957	282.213986
1430.725467	286.071329
1432.698051	286.946154
1434.662829	291.771329
1436.632680	290.192308
1438.598406	280.349650
1440.565526	291.800000
1442.530362	285.239161
1444.491078	284.786713
1446.456862	293.216084
1448.416691	295.130769
1450.377914	296.225175
1452.340528	302.320979
1454.299028	308.045455
1456.257086	311.686713
1458.214701	313.149650
1460.171875	311.971329
1462.126773	312.651049
1464.083064	320.709790
1466.037080	316.753147
1467.990655	311.023776
1469.941958	301.760839
1471.894653	289.214685
1473.845077	285.340559
1475.795062	282.058741
1477.744608	280.382517
1479.691885	285.475524
1481.636894	289.076224
1483.583296	292.623776
1485.529260	289.049650
1487.474787	292.179021
1489.418048	289.493007
1491.360873	286.391608
1493.301435	277.386713
1495.243389	284.388112
1497.183080	286.318881
1499.122336	288.555944
1501.061158	295.386713
1502.997720	305.175524
1504.935673	303.632867
1506.871367	310.310490
1508.806628	306.944056
1510.739632	312.027972
1512.672204	309.049650
1514.604344	316.365734
1516.536052	305.511189
1518.465507	313.844056
1520.396352	302.337063
1522.326765	307.746853
1524.253106	304.663636
1526.180837	308.798601
1528.106319	311.221678
1530.031371	322.451748
1531.955993	321.256643
1533.880187	332.598601
1535.802134	337.353147
1537.725471	345.867832
1539.646561	344.086713
1541.565407	347.772727
1543.485643	348.050350
1545.403635	365.716084
1547.321201	374.299301
1549.236526	395.958042
1551.153240	404.516783
1553.065898	408.963636
1554.981761	416.245455
1556.895385	445.351049
1558.806770	462.161538
1560.719545	490.444056
1562.628270	517.579720
1564.538384	559.602797
1566.448075	610.836364
1568.357343	675.157343
1570.264376	755.834266
1572.169177	848.429371
1574.075367	947.209091
1575.979326	1062.748252
1577.882863	1198.674825
1579.785980	1325.961538
1581.686867	1423.036364
1583.589143	1503.239860
1585.489190	1518.534965
1587.390626	1500.595105
1589.288027	1428.189510
1591.185011	1322.782517
1593.081576	1187.653846
1594.979528	1037.810490
1596.871646	894.213287
1598.766958	777.255944
1600.661851	685.087413
1602.554524	605.795105
1604.446779	541.073427
1606.336815	495.258741
1608.226435	448.946154
1610.115640	434.119580
1612.004429	429.032867
1613.891002	422.434266
1615.778962	402.720280
1617.662905	389.914685
1619.548235	378.379720
1621.433152	367.782517
1623.315855	362.376224
1625.199945	338.066434
1627.080023	322.860140
1628.961488	308.096503
1630.840743	292.434965
1632.721385	293.063636
1634.596222	287.514685
1636.476040	277.027273
1638.351853	239.181818
1640.227257	240.215385
1642.104046	241.283916
1643.975038	232.877622
1645.849213	235.283217
1647.719388	226.001399
1649.592744	224.872727
1651.463897	219.389510
1653.332848	216.623077
1655.203185	217.730769
1657.069528	218.203497
1658.937258	212.230769
1660.802788	196.762238
1662.669704	218.026573
1664.532630	226.742657
1666.396943	216.934965
1668.259059	223.262238
1670.120770	218.340559
1671.983866	225.336364
1673.844768	233.397203
1675.703477	237.376224
1677.561782	243.914685
1679.421471	240.267832
1681.275394	238.912587
1683.132490	229.113986
1684.989182	227.794406
1686.841899	214.618881
1688.697787	200.133566
1690.549701	194.136364
1692.401214	200.224476
1694.252326	211.772727
1696.103037	204.643357
1697.953348	207.400000
1699.801475	208.050350
1701.650986	191.207692
1703.494747	184.925874
1705.343459	183.123077
1707.186424	179.380420
1709.032555	164.533566
1710.874725	179.595804
1712.720059	180.461538
1714.559653	189.095105
1716.400632	175.649650
1718.242993	180.658741
1720.081397	181.960140
1721.921185	180.427972
1723.758798	189.993706
1725.596016	192.356643
1727.431060	211.890909
1729.267487	210.795105
1731.101741	206.209091
1732.935602	219.276224
1734.769068	201.995804
1736.598588	193.190210
1738.431267	193.905594
1740.260002	204.011189
1742.091895	198.891608
1743.919845	204.926573
1745.747403	229.302098
1747.574570	226.958042
1749.401345	233.106993
1751.227728	229.817483
1753.050175	207.527273
1754.875777	191.248951
1756.697443	180.294406
1758.520492	174.502797
1760.341380	166.397902
1762.161878	167.511888
1763.983758	155.462238
1765.799938	173.420979
1767.619270	193.307692
1769.434675	188.360140
1771.253231	193.139161
1773.067861	193.051748
1774.882104	180.776923
1776.695961	182.818182
1778.509431	177.800000
1780.320747	145.620280
1782.133445	135.916783
1783.945756	146.017483
1785.754150	158.942657
1787.563925	191.379021
1789.369784	198.379021
1791.178790	206.082517
1792.983882	197.874126
1794.790355	201.048951
1796.596443	189.453147
1798.398622	196.889510
1800.203944	177.511189
1802.005358	171.865734
1803.808153	175.360839
1805.607041	173.023776
1807.407310	178.629371
1809.207197	172.820280
1811.004942	162.495804
1812.802307	154.376923
1814.599291	141.776224
1816.395895	152.965035
1818.190360	153.283916
1819.986205	168.027273
1821.776394	168.487413
1823.571480	185.581818
1825.360913	181.778322
1827.153484	181.506294
1828.943919	182.526573
1830.732219	171.698601
1832.523655	177.938462
1834.309446	179.407692
1836.096615	186.165035
1837.881654	196.272028
1839.669825	204.799301
1841.454111	199.147552
1843.236268	188.981818
1845.019804	183.114685
1846.801211	179.180420
1848.583996	178.601399
1850.362902	175.216084
1852.143186	179.668531
1853.921345	189.007692
1855.700881	182.285315
1857.478293	172.834266
1859.253582	179.855944
1861.030248	174.076224
1862.804792	169.706993
1864.580713	162.516084
1866.351015	154.661538
1868.124444	165.932168
1869.895753	178.712587
1871.666691	193.002797
1873.439007	205.785315
1875.205709	197.860839
1876.975536	196.289510
1878.741500	188.009790
1880.510588	187.826573
1882.275814	179.346154
1884.040672	169.980420
1885.806906	154.432867
1887.569282	135.244056
1889.331291	137.953147
1891.092933	144.348951
1892.854207	145.614685
1894.615115	146.937063
1896.375655	146.238462
1898.134087	159.869930
1899.892152	166.673427
1901.648110	176.680420
1903.405444	179.537063
1905.162413	177.965035
1906.917275	173.510490
1908.670032	165.177622
1910.422426	165.598601
1912.176196	167.127972
1913.927862	152.303497
1915.677425	148.451049
1917.428365	143.079021
1919.178941	150.083916
1920.925679	158.642657
1922.673792	162.686014
1924.419806	162.618881
1926.167196	164.231469
1927.912487	169.056643
1929.655681	174.884615
1931.400251	179.099301
1933.142724	183.018182
1934.884837	173.265734
1936.626591	173.585315
1938.367984	172.638462
1940.107284	185.623776
1941.846225	195.774825
1943.584807	179.108392
1945.321298	169.748951
1947.057430	171.074126
1948.794938	169.857343
1950.528623	170.374126
1952.263683	153.832168
1953.996654	159.581119
1955.729269	153.135664
1957.461527	156.481119
1959.193429	161.995804
1960.923246	169.258042
1962.650977	168.965734
1964.380083	158.578322
1966.108833	168.897902
1967.835500	171.986713
1969.561813	168.969930
1971.289500	174.348252
1973.011650	161.334965
1974.736901	167.806294
1976.458345	158.148951
1978.182889	152.958042
1979.905354	151.826573
1981.624015	152.289510
1983.345775	147.983217
1985.063733	152.089510
1986.783065	151.704895
1988.498597	151.818182
1990.218949	163.838462
1991.935503	164.397902
1993.648260	168.229371
1995.364113	173.260140
1997.077894	172.672727
1998.791325	175.597203
2000.502685	185.110490
2002.215417	179.839161
2003.924358	173.318182
2005.636393	172.402098
2007.342918	162.113287
2009.052536	164.337762
2010.760086	160.862937
2012.467289	150.695804
2014.172426	156.676224
2015.877216	162.844755
2017.583379	170.996503
2019.285758	178.632168
2020.989510	178.713287
2022.691199	170.108392
2024.392542	173.074126
2026.093541	173.741958
2027.792478	172.252448
2029.492787	171.292308
2031.189320	160.586014
2032.887225	151.151049
2034.583072	145.653846
2036.282004	145.034266
2037.975450	146.801399
2039.670267	143.420280
2041.364741	145.290210
2043.055448	148.846154
2044.749237	156.622378
2046.439261	165.032867
2048.130654	172.146154
2049.819995	172.296503
2051.510707	172.745455
2053.197655	173.830070
2054.884263	169.718881
2056.572242	166.724476
2058.256461	159.398601
2059.942050	153.716783
2061.627300	149.672727
2063.310502	149.265734
2064.995074	144.893706
2066.674182	138.618881
2068.358077	138.357343
2070.036510	137.128671
2071.718021	141.606294
2073.395780	150.563636
2075.073203	145.871329
2076.751995	145.353147
2078.428744	143.193007
2080.103452	143.214685
2081.779530	140.395105
2083.453566	142.964336
2085.127267	135.581119
2086.800634	133.950350
2088.471961	137.891608
2090.142954	145.856643
2091.813613	146.672727
2093.483938	150.725175
2095.153929	146.593706
2096.821883	150.627972
2098.489505	152.282517
2100.155093	154.895804
2101.822049	155.746154
2103.486972	152.997203
2105.151563	155.011888
2106.814122	159.106993
2108.478049	156.271329
2110.139945	158.574825
2111.801510	147.383217
2113.462745	149.516783
2115.121950	141.434965
2116.780826	148.267133
2118.439371	150.260140
2120.097587	150.920280
2121.752080	151.163636
2123.409637	147.536364
2125.066864	151.523077
2126.720371	151.087413
2128.375245	144.976923
2130.026400	147.453846
2131.680618	143.462937
2133.331118	141.396503
2134.982986	134.074825
2136.629445	141.909790
2138.280658	136.003497
2139.928159	132.844056
2141.577026	124.055944
2143.223874	126.715385
2144.870397	129.075524
2146.516594	133.966434
2148.159082	136.140559
2149.804629	150.345455
2151.446469	153.191608
2153.091366	151.867832
2154.732558	145.077622
2156.373426	148.590909
2158.013971	137.528671
2159.652503	138.234965
2161.292401	136.220979
2162.928599	137.977622
2164.566163	132.868531
2166.203405	140.707692
2167.838637	143.167133
2169.473547	153.490210
2171.108136	153.065734
2172.742404	152.355245
2174.372978	140.851748
2176.006604	148.049650
2177.636537	146.982517
2179.267837	161.494406
2180.897131	165.881818
2182.526106	164.355944
2184.154761	172.563636
2185.783097	174.950350
2187.409430	168.187413
2189.035445	164.911189
2190.659459	167.504196
2192.284838	160.744056
2193.908216	153.446853
2195.532959	163.949650
2197.154021	167.463636
2198.774766	176.631469
2200.396875	175.636364
2202.016987	170.880420
2203.635103	160.814685
2205.252903	153.555245
2206.870387	141.805594
2208.487556	133.930070
2210.104410	134.248252
2211.720949	134.658741
2213.335494	134.874825
2214.948048	143.724476
2216.561965	153.871329
2218.173891	170.593706
2219.787180	171.360140
2221.398478	172.581119
2223.007788	172.704196
2224.618460	185.267133
2226.227144	181.786014
2227.835516	185.719580
2229.441901	187.671329
2231.049648	191.483916
2232.655410	175.974126
2234.260860	172.462238
2235.864325	178.128671
2237.469153	173.251049
2239.071997	170.011189
2240.672858	170.465035
2242.275082	169.186713
2243.875324	183.527273
2245.476928	186.708392
2247.074879	188.863636
2248.674193	183.094406
2250.271527	178.492308
2251.868553	170.640559
2253.466940	166.108392
2255.061680	166.520979
2256.654442	160.728671
2258.248567	172.363636
2259.844053	168.780420
2261.435894	171.283217
2263.027429	177.039860
2264.620325	174.717483
2266.207912	168.332168
2267.800196	170.123077
2269.387172	173.688112
2270.977177	180.278322
2272.561877	175.869231
2274.151271	162.038462
2275.735362	151.193007
2277.320815	144.786014
2278.904299	125.613287
2280.490808	110.759441
2282.073684	97.063636
2283.656257	95.386364
2285.238526	98.439161
2286.817165	112.119231
2288.398829	131.120979
2289.976864	139.098252
2291.557922	137.300000
2293.135353	138.566783
2294.710821	136.811189
2296.289311	130.772378
2297.864177	129.086713
2299.438742	112.416434
2301.013006	105.586713
2302.586970	113.243706
2304.160634	120.300000
2305.733998	122.867832
2307.303742	130.655944
2308.873189	126.631469
2310.445653	128.579720
2312.012843	133.430070
2313.583050	132.757343
2315.149644	136.735664
2316.717596	148.190210
2318.283594	125.566434
2319.849294	132.169930
2321.414696	138.897902
2322.978145	150.445455
2324.542953	152.679021
2326.104152	166.298601
2327.668366	158.290909
2329.227319	152.043357
2330.789285	148.342657
2332.349301	159.176224
2333.909021	149.075524
2335.466792	148.900000
2337.024269	132.081818
2338.581451	134.338462
2340.136685	123.955245
2341.691625	128.899301
2343.246272	127.795804
2344.800625	132.260839
2346.354684	115.058042
2347.908450	109.554545
2349.460271	116.820280
2351.010149	118.000000
2352.563036	104.034266
2354.110679	126.127273
2355.661330	137.009790
2357.208391	145.004196
2358.756809	152.534266
2360.304935	165.013986
2361.849474	174.434266
2363.395370	182.651748
2364.939327	176.811888
2366.484642	175.662238
2368.026372	173.959441
2369.569460	167.679720
2371.110611	168.876224
2372.651473	175.990909
2374.192046	174.253846
2375.732330	170.721678
2377.272325	165.692308
2378.808741	163.735664
2380.348159	163.223077
2381.884000	165.647552
2383.421198	151.006993
2384.954820	150.376224
2386.491442	148.439161
2388.026134	133.917483
2389.558895	125.944056
2391.091371	125.930070
2392.621918	118.267133
2394.155463	111.245455
2395.683797	114.901399
2397.213487	122.094406
2398.742892	128.967133
2400.272012	137.451049
2401.800846	143.765035
2403.324476	152.275524
2404.852741	159.146853
2406.375803	146.191608
2407.903500	155.683217
2409.424357	166.285315
2410.949846	159.576923
2412.471776	155.386014
2413.995060	162.376923
2415.516424	158.508392
2417.035868	147.574825
2418.556667	151.177622
2420.075547	154.278322
2421.594146	160.744755
2423.110826	162.380420
2424.628862	175.274825
2426.146616	185.788811
2427.660818	205.025175
2429.174741	210.091608
2430.688383	214.558042
2432.203379	219.085315
2433.714828	209.452448
2435.227630	201.357343
2436.738520	210.843357
2438.249131	209.361538
2439.757830	205.100000
2441.269515	199.439860
2442.777657	217.670629
2444.285521	227.452448
2445.793106	227.325874
2447.297152	218.309790
2448.804182	212.326573
2450.309304	205.527273
2451.814149	204.542657
2453.317087	206.197902
2454.819748	199.408392
2456.322134	197.011189
2457.822613	203.906294
2459.324447	219.788112
2460.824375	235.723776
2462.324028	232.993007
2463.823406	211.295804
2465.320881	209.875524
2466.816454	206.291608
2468.315007	189.497203
2469.810032	184.023077
2471.306409	161.469930
2472.799260	147.658042
2474.293464	151.960140
2475.787394	164.651049
2477.277800	169.418182
2478.771184	174.844755
2480.262670	173.275524
2481.752259	179.211888
2483.241576	198.318881
2484.728997	201.972028
2486.219394	193.907692
2487.706273	198.185315
2489.194503	189.570629
2490.679216	197.001399
2492.163659	185.988112
2493.649454	183.472727
2495.133357	175.121678
2496.618610	180.190909
2498.098730	174.347552
2499.581822	174.218182
2501.063025	183.562238
2502.543958	173.037762
2504.023001	165.239860
2505.501777	156.990909
2506.980284	149.572028
2508.458522	153.461538
2509.936493	142.351748
2511.410958	152.321678
2512.888393	163.700000
2514.362323	179.446154
2515.837605	163.945455
2517.312619	167.372727
2518.784132	170.646853
2520.256996	151.153846
2521.727977	137.500699
2523.200308	130.267832
2524.667525	118.172028
2526.137709	123.645455
2527.606012	115.337063
2529.074049	123.330769
2530.541822	120.332168
2532.009330	130.923776
2533.476574	128.193706
2534.940325	139.909091
2536.405426	152.417483
2537.868650	143.851748
2539.333223	150.295105
2540.794308	164.876923
2542.256742	164.732867
2543.718913	168.235664
2545.177597	162.686014
2546.640854	154.629371
2548.099014	151.304895
2549.558523	167.098601
2551.012939	168.753147
2552.471925	170.515385
2553.929039	180.659441
2555.384281	172.849650
2556.839263	181.179021
2558.292375	180.917483
2559.746836	166.279021
2561.199428	150.253147
2562.651760	136.404196
2564.102224	128.801399
2565.555645	140.328671
2567.003983	144.534266
2568.455276	146.061538
2569.904703	153.283916
2571.350659	159.398601
2572.799569	161.116084
2574.245008	167.558042
2575.691796	169.558042
2577.136720	159.554545
2578.581387	157.803497
2580.027401	162.939161
2581.469948	163.090210
2582.913843	165.979720
2584.354273	167.005594
2585.796051	165.337063
2587.235969	166.674825
2588.677234	171.981119
2590.115037	173.237762
2591.555790	182.618182
2592.991481	180.150350
2594.430120	172.902098
2595.866903	175.746853
2597.301830	166.629371
2598.739704	163.309790
2600.172521	160.625175
2601.606685	164.260839
2603.038994	157.541259
2604.472651	159.301399
2605.904453	173.896503
2607.336003	177.827273
2608.767299	188.838462
2610.196744	187.023776
2611.625936	199.178322
2613.053277	207.739161
2614.481965	211.234965
2615.910400	226.352448
2617.335389	222.783916
2618.761723	226.442657
2620.186210	215.905594
2621.612041	213.979720
2623.034430	217.449650
2624.458163	219.232867
2625.880051	219.676923
2627.301688	229.148951
2628.721481	254.649650
2630.142619	272.689510
2631.563507	284.244755
2632.980956	292.246154
2634.401345	309.968531
2635.818297	323.962238
2637.235001	331.055245
2638.651456	336.388811
2640.067663	339.938462
2641.483622	350.554545
2642.897740	357.608392
2644.311610	374.474825
2645.723641	389.109091
2647.137017	403.367832
2648.546963	410.419580
2649.959845	426.458741
2651.369298	457.326573
2652.778505	483.058042
2654.185876	507.416783
2655.596181	540.958741
2657.004650	582.079021
2658.411284	625.925175
2659.817673	664.773427
2661.222229	707.155944
2662.628128	746.508392
2664.032193	790.949650
2665.436015	820.062238
2666.839592	867.539161
2668.241338	920.067832
2669.644427	971.268531
2671.044098	1018.167832
2672.445113	1073.004895
2673.842712	1112.282517
2675.243240	1147.577622
2676.640354	1170.565734
2678.038811	1189.702797
2679.435440	1201.459441
2680.831828	1206.472028
2682.227973	1201.172727
2683.622292	1201.928671
2685.017954	1198.555245
2686.410207	1185.786713
2687.803802	1169.348252
2689.195573	1147.125874
2690.588687	1117.179720
2691.979976	1085.141958
2693.369444	1045.855944
2694.758671	1001.269231
2696.147658	964.935664
2697.537988	919.993706
2698.923334	881.059441
2700.311603	831.212587
2701.698052	788.305594
2703.084262	744.069231
2704.470233	698.114685
2705.852806	646.065035
2707.236721	603.751049
2708.620397	566.991608
2710.003836	527.120979
2711.383879	481.701399
2712.765264	450.317483
2714.144833	419.351049
2715.525744	402.642657
2716.904840	382.797902
2718.282122	363.598601
2719.660745	354.786713
2721.037554	335.510490
2722.414128	327.959441
2723.790466	323.983217
2725.164992	318.378322
2726.540859	303.182517
2727.913339	291.248951
2729.288736	289.338462
2730.659172	289.575524
2732.030948	282.457343
2733.402491	273.413287
2734.772225	261.267133
2736.143299	262.265035
2737.512566	252.782517
2738.881599	249.919580
2740.248826	224.295105
2741.615819	205.930070
2742.982580	200.995804
2744.349108	199.299301
2745.713832	206.232168
2747.078323	215.426573
2748.442582	211.532867
2749.806610	207.326573
2751.170405	206.652448
2752.530828	208.877622
2753.894160	210.329371
2755.252550	195.786014
2756.613850	173.311189
2757.971780	172.548951
2759.332618	164.904196
2760.691656	162.673427
2762.047326	164.516084
2763.405905	172.923077
2764.761116	165.837063
2766.116098	152.769231
2767.469283	146.521678
2768.825375	139.109091
2770.178103	145.918182
2771.530602	135.518881
2772.882874	136.423077
2774.236483	146.223077
2775.586731	132.834965
2776.935186	146.462238
2778.286545	154.268531
2779.634545	168.693706
2780.983884	167.455245
2782.331430	158.897902
2783.678750	163.572028
2785.025842	163.524476
2786.371144	177.405594
2787.716220	175.273427
2789.061070	186.494406
2790.405694	189.140559
2791.746965	180.649650
2793.089575	169.205594
2794.431960	161.567832
2795.774119	154.560140
2797.112929	138.139860
2798.454639	135.265734
2799.793000	132.500000
2801.132699	128.025874
2802.470612	130.550350
2803.806741	132.595105
2805.142647	143.144056
2806.479889	151.595105
2807.815348	154.151748
2809.150584	154.227273
2810.484038	157.250350
2811.818828	157.610490
2813.150277	153.296503
2814.484622	162.307692
2815.814069	157.899301
2817.144853	152.513287
2818.475415	147.646853
2819.804198	151.026573
2821.134318	159.914685
2822.462659	161.862937
2823.790778	160.686014
2825.117121	161.210490
2826.444799	152.419580
2827.769145	157.091608
2829.094827	145.393007
2830.418733	154.681119
2831.742419	155.698601
2833.067441	147.666434
2834.389134	147.312587
2835.710608	145.813287
2837.031862	139.211189
2838.352898	124.511888
2839.672162	125.604895
2840.992761	126.683217
2842.311588	128.323776
2843.630197	125.225874
2844.947036	128.279021
2846.263657	142.337762
2847.580061	145.081818
2848.894695	140.788112
2850.210664	151.647552
2851.523314	145.179021
2852.837298	144.691608
2854.151066	148.283916
2855.464617	157.765035
2856.776402	158.367133
2858.086420	158.913986
2859.397773	158.755944
2860.705811	162.727273
2862.015183	160.379021
2863.324340	146.353147
2864.633282	136.922378
2865.940461	132.544755
2867.245876	122.300699
2868.552626	119.262937
2869.857614	114.942657
2871.162387	112.516783
2872.465400	116.804895
2873.771293	124.836364
2875.072332	126.042657
2876.374704	122.211189
2877.675318	128.803497
2878.977264	118.031469
2880.278998	119.503497
2881.577428	115.324476
2882.877191	110.165734
2884.175197	99.779021
2885.472991	90.723776
2886.769028	86.529371
2888.066399	85.472727
2889.362015	75.941958
2890.657419	79.932867
2891.952612	92.709091
2893.244508	108.334266
2894.539279	111.691608
2895.830755	122.453147
2897.123563	127.267832
2898.416161	121.146853
2899.705464	115.586713
2900.996101	118.976224
2902.284986	106.310490
2903.575203	105.672028
2904.862129	107.315385
2906.150387	132.025175
2907.436896	140.314685
2908.723196	133.164336
2910.009288	130.418881
2911.293632	132.568531
2912.580848	138.349650
2913.863237	128.401399
2915.146958	123.893706
2916.428932	127.014685
2917.710700	109.300699
2918.990722	112.244755
2920.273614	112.303497
2921.554761	118.044755
2922.832626	103.083217
2924.113360	95.474825
2925.390813	94.162937
2926.668061	92.853147
2927.943566	100.734965
2929.221939	98.783217
2930.495498	106.711888
2931.771924	115.865035
2933.046608	111.435664
2934.319553	122.919580
2935.593829	130.979720
2936.866364	125.926573
2938.138696	118.500000
2939.407755	114.767832
2940.679679	100.463636
2941.949865	93.597203
2943.219847	90.768531
2944.489626	100.598601
2945.757668	101.689510
2947.023975	108.867832
2948.290079	103.302797
2949.557514	116.894406
2950.823213	126.467832
2952.088710	118.580420
2953.354006	117.504196
2954.616036	111.953846
2955.879396	103.278322
2957.142555	113.657343
2958.403981	112.027972
2959.666738	116.823077
2960.927762	109.846853
2962.187056	110.440559
2963.446149	108.081119
2964.705042	104.336364
2965.963735	102.840559
2967.222228	94.465734
2968.478992	94.806993
2969.735557	103.644755
2970.990393	104.354545
2972.246559	117.198601
2973.499470	121.909091
2974.753709	120.553147
2976.007750	126.098601
2977.260065	133.786014
2978.512182	136.279720
2979.762574	122.962238
2981.015821	120.660140
2982.264291	111.861538
2983.515616	107.620979
2984.763691	106.991608
2986.011569	90.811189
2987.259251	89.295105
2988.506735	95.642657
2989.752498	88.102797
2990.998064	97.108392
2992.244959	108.411888
2993.488609	111.514685
2994.733586	116.606294
2995.975321	122.239860
2997.219907	116.968531
2998.462774	119.544755
2999.702400	118.382517
3000.944876	112.314685
3002.184112	117.479021
3003.424676	124.150350
3004.663523	120.065035
3005.902176	125.230070
3007.139113	124.774825
3008.377378	114.022378
3009.613927	112.683217
3010.850283	112.047552
3012.086445	103.810490
3013.320893	95.643357
3014.555148	92.637063
3015.789210	87.704196
3017.021560	83.528671
3018.252198	84.642657
3019.485682	84.262238
3020.717455	89.248252
3021.947516	95.576923
3023.177386	91.686713
3024.405546	101.118881
3025.635033	103.011189
3026.862810	101.252448
3028.090396	101.575524
3029.319308	114.056643
3030.543478	109.039161
3031.770491	98.574825
3032.994281	98.855944
3034.219396	97.353846
3035.442806	96.227273
3036.666025	99.695804
3037.887539	93.086713
3039.111894	93.647552
3040.331514	90.199301
3041.552460	84.560839
3042.773216	87.075524
3043.992270	91.993706
3045.212648	81.510490
3046.429810	80.306993
3047.648297	81.574126
3048.865083	85.863636
3050.081680	92.474825
3051.298090	99.500699
3052.511286	103.867832
3053.727320	106.363636
3054.940142	103.421678
3056.155801	98.594406
3057.366737	87.684615
3058.578999	91.711888
3059.791073	80.582517
3061.002961	84.286014
3062.213152	81.003497
3063.423156	86.924476
3064.632974	93.261538
3065.841096	98.258741
3067.049033	101.236364
3068.255274	109.785315
3069.462840	111.304895
3070.668711	113.133566
3071.874397	100.325874
3073.079899	105.055944
3074.283707	94.388811
3075.488839	92.892308
3076.692278	88.553846
3077.894025	91.513287
3079.095589	96.158042
3080.296969	95.930070
3081.498165	95.210490
3082.697671	107.206993
3083.896994	104.113986
3085.097640	101.481119
3086.296596	92.010490
3087.492357	90.346154
3088.690948	83.709790
3089.886345	81.153846
3091.083066	81.169930
3092.276594	82.229371
3093.472950	88.793007
3094.667619	96.187413
3095.859098	98.832168
3097.054908	107.346853
3098.246025	107.341958
3099.438465	99.523776
3100.627716	88.888811
3101.819794	90.849650
3103.010188	79.443357
3104.197396	75.897203
3105.385926	75.349650
3106.575779	78.181119
3107.762447	86.669231
3108.948936	97.020280
3110.135246	96.350350
3111.322877	95.613986
3112.507326	95.446853
3113.690096	94.775524
3114.875688	91.343357
3116.059601	98.619580
3117.241834	95.394406
3118.423890	100.170629
3119.605767	106.648951
3120.787466	107.420979
3121.967488	99.213986
3123.145833	100.070629
3124.326998	95.684615
3125.504988	89.521678
3126.682801	97.734965
3127.860437	100.504196
3129.036398	98.627273
3130.212183	104.217483
3131.389288	102.866434
3132.564720	104.488112
3133.738478	106.360839
3134.910563	107.222378
3136.083969	96.165035
3137.257200	96.532867
3138.428759	94.521678
3139.601638	96.172727
3140.771350	104.361538
3141.942383	101.609790
3143.111745	98.364336
3144.279438	91.746853
3145.449946	77.289510
3146.615795	81.476224
3147.785954	80.060140
3148.951455	78.570629
3150.116783	73.042657
3151.281937	83.445455
3152.446918	87.391608
3153.613218	92.529371
3154.774865	94.448252
3155.937833	88.088811
3157.100628	85.581818
3158.263249	80.595804
3159.424206	68.673427
3160.584991	74.688112
3161.745603	69.106294
3162.904551	72.449650
3164.063327	80.316084
3165.221932	97.151049
3166.380365	97.395105
3167.538626	95.059441
3168.695226	99.695105
3169.850164	98.384615
3171.006421	103.903497
3172.161017	94.806294
3173.315443	90.247552
3174.468208	91.381119
3175.620804	86.886713
3176.773230	76.597203
3177.925485	74.037762
3179.077571	78.176923
3180.226510	73.492308
3181.378256	71.605594
3182.528345	73.383916
3183.676776	63.517483
3184.825039	63.406993
3185.973133	61.730769
3187.121058	66.328671
3188.267327	73.893007
3189.413428	74.801399
3190.557875	73.582517
3191.702153	88.976224
3192.846264	104.170629
3193.991693	104.419580
3195.133983	107.930070
3196.276105	97.101399
3197.418061	83.602797
3198.559849	90.011189
3199.701470	100.506294
3200.839956	94.614685
3201.979759	93.007692
3203.120879	87.262238
3204.258866	97.827972
3205.395202	104.331469
3206.531374	113.512587
3207.668862	97.320280
3208.804702	100.231469
3209.941859	97.713287
3211.074403	97.479021
3212.211228	114.823776
3213.343443	120.619580
3214.476974	110.993706
3215.610340	104.613986
3216.740580	107.904196
3217.873617	116.066434
3219.003527	100.065035
3220.134755	98.279021
3221.262857	83.620280
3222.393757	95.079021
3223.523012	92.460140
3224.650624	89.997203
3225.775113	101.434266
3226.903878	103.177622
3228.029521	100.527972
3229.155001	103.247552
3230.278840	119.572727
3231.405474	125.732168
3232.527510	121.518881
3233.650862	125.758042
3234.774051	126.603497
3235.897079	131.591608
3237.018467	125.795105
3238.139694	121.323776
3239.259282	127.172028
3240.378709	120.551748
3241.496499	105.995105
3242.617080	111.332168
3243.734548	112.986713
3244.851855	116.051049
3245.969002	112.749650
3247.084512	112.975524
3248.201338	112.691608
3249.315053	113.048951
3250.431559	118.489510
3251.546429	117.493007
3252.658191	122.362937
3253.769794	113.744056
3254.882712	98.842657
3255.995470	96.895804
3257.105122	88.146853
3258.216089	93.795804
3259.326897	88.402797
3260.436073	91.157343
3261.543618	87.723776
3262.652478	90.519580
3263.761179	93.099301
3264.866778	95.302797
3265.973692	94.285315
3267.078976	93.432168
3268.185574	93.016783
3269.289072	90.881818
3270.393884	95.866434
3271.498539	95.112587
3272.600096	93.232168
3273.701496	92.365734
3274.804210	94.866434
3275.906768	93.810490
3277.006229	93.813287
3278.108474	95.667832
3279.207623	88.839161
3280.305147	87.785315
3281.402517	75.653147
3282.502668	61.434965
3283.599727	59.561538
3284.696630	53.555245
3285.793378	54.051049
3286.885567	63.043357
3287.982006	75.094406
3289.076822	75.283217
3290.171483	75.480420
3291.264523	77.165734
3292.357409	71.586713
3293.448674	66.152448
3294.541252	50.972727
3295.632210	52.916084
3296.721548	51.325175
3297.810733	55.463636
3298.901230	61.370629
3299.988643	69.619580
3301.075904	77.123077
3302.164477	79.171329
3303.252897	85.255245
3304.336771	79.733566
3305.424885	76.700000
3306.509919	80.399301
3307.593337	75.262937
3308.678067	81.606294
3309.761181	74.051049
3310.845607	77.170629
3311.926956	73.126573
3313.009616	71.318182
3314.090661	72.011888
3315.171556	76.595105
3316.250838	76.923077
3317.329969	68.770629
3318.410412	71.576224
3319.487780	78.524476
3320.566460	80.990909
3321.643528	90.437063
3322.720446	89.353846
3323.795754	94.165035
3324.870912	88.553147
3325.947381	79.095105
3327.020780	69.357343
3328.094029	74.023776
3329.168590	71.100699
3330.241542	70.660839
3331.312885	66.965734
3332.385539	71.554545
3333.455126	77.089510
3334.526024	82.690210
3335.595316	91.144056
3336.665917	92.638462
3337.734912	85.519580
3338.802302	75.062238
3339.868086	75.674825
3340.938096	80.651748
3342.005042	72.697203
3343.068928	72.369930
3344.135580	69.158741
3345.200629	73.067133
3346.264074	67.586014
3347.327373	62.615385
3348.390525	70.149650
3349.453531	56.176923
3350.516391	53.221678
3351.577648	51.976224
3352.635849	45.569231
3353.698271	50.141958
3354.757637	52.948951
3355.816857	59.187413
3356.877386	71.631469
3357.933407	84.063636
3358.992191	83.382517
3360.046468	88.584615
3361.103509	98.784615
3362.158951	86.907692
3363.215702	95.697902
3364.270856	95.440559
3365.324412	81.318881
3366.376371	76.218881
3367.431093	70.174126
3368.482765	57.752448
3369.534293	65.361538
3370.587131	62.525874
3371.636921	55.730070
3372.688020	57.365035
3373.736072	64.270629
3374.786885	60.754545
3375.834652	71.982517
3376.882277	75.346154
3377.929760	72.576923
3378.975650	75.010490
3380.022848	81.741259
3381.067003	82.220280
3382.113917	84.371329
3383.159240	73.952448
3384.201521	65.273427
3385.243661	69.069930
3386.287110	65.255944
3387.330417	56.862238
3388.372134	62.707692
3389.413711	73.731469
3390.455146	85.350350
3391.494993	92.213287
3392.533251	98.797203
3393.572817	97.558042
3394.612243	93.124476
3395.650081	84.202797
3396.686332	82.575524
3397.722443	84.669930
3398.759862	69.872028
3399.794248	62.516783
3400.829942	63.288112
3401.865496	64.030070
3402.898018	56.048252
3403.933294	54.116783
3404.965540	54.436364
3405.997646	58.375524
3407.028170	53.946853
3408.060000	57.276923
3409.091692	62.440559
3410.120356	62.148951
3411.148883	57.485315
3412.178716	60.989510
3413.208412	67.632168
3414.235082	71.956643
3415.263058	73.162238
3416.288010	80.013986
3417.315713	77.849650
3418.340391	78.020280
3419.366376	65.368531
3420.390782	69.785315
3421.415051	63.999301
3422.437741	58.017483
3423.460295	59.276923
3424.484155	65.602098
3425.504995	65.744056
3426.525699	66.758541
3427.547709	67.075924
3428.566701	66.510889
3429.585558	64.878122
3430.605721	61.992308
3431.622867	57.668132
