-117.633747	-0.440659
-114.964146	2.115385
-112.297481	4.368132
-109.631568	6.400100
-106.968588	8.293806
-104.304177	10.131768
-101.642697	11.996503
-98.979788	19.392308
-96.321985	19.653846
-93.662753	18.104196
-91.004269	9.204196
-88.348710	11.551049
-85.691721	16.774825
-83.039831	13.504895
-80.386511	6.178322
-77.736110	8.322378
-75.084281	3.120280
-72.437542	1.786014
-69.789373	2.290909
-67.141947	11.097203
-64.497436	7.227273
-61.851495	13.034965
-59.210636	13.021678
-56.568348	20.774126
-53.928969	20.521678
-51.288161	7.743357
-48.648092	10.500000
-46.013097	10.680420
-43.376672	2.129371
-40.743150	4.001399
-38.108200	4.743357
-35.478316	5.976923
-32.844838	6.186713
-30.216423	11.794406
-27.588742	11.371329
-24.959632	8.462238
-22.335580	-23.508392
-19.707937	-108.977622
-17.085349	-334.646154
-14.463491	-489.597203
-11.842364	427.593706
-9.221968	1721.753846
-6.604459	2752.547552
-3.985522	3457.802098
-1.369471	3836.563636
1.245853	3888.332168
3.860448	3620.865734
6.472162	3037.665035
9.085303	2151.096503
11.693412	1042.478322
14.305101	-101.623776
16.911760	-716.685315
19.519848	-310.786014
22.127210	-4.374126
24.729548	30.141958
27.335464	32.665734
29.936359	34.507692
32.538681	32.736364
35.135985	35.967133
37.736866	34.769231
40.332731	24.865035
42.930024	20.720280
45.526598	14.967133
48.118163	12.308392
50.711157	10.224476
53.301289	9.592308
55.892848	8.253147
58.481549	8.238462
61.071676	5.516783
63.656804	8.990210
66.243360	8.126573
68.829201	4.957343
71.412189	-2.153147
73.996604	0.730769
76.573889	5.394406
79.154741	4.909091
81.732744	10.060839
84.310037	15.130769
86.888757	13.174126
89.462494	14.169930
92.037658	8.417483
94.609979	14.846853
97.181593	7.772028
99.750366	6.420979
102.320566	2.147552
104.887927	5.182517
107.456715	7.502797
110.022666	13.260839
112.585782	17.993706
115.152454	22.309790
117.709904	22.243357
120.273040	30.286014
122.831217	35.839161
125.392948	59.611888
127.949722	93.709790
130.507922	153.505594
133.061170	228.712587
135.613720	329.109091
138.169820	447.097902
140.720972	579.565035
143.271427	701.162937
145.821184	818.093007
148.368122	907.033566
150.914365	974.146154
153.462033	1007.446853
156.009005	1019.046154
158.551041	1019.528671
161.092385	1014.093706
163.633035	1000.495804
166.175110	989.018881
168.714375	987.661538
171.250830	982.133566
173.786595	975.662238
176.323785	977.562937
178.860284	970.276224
181.393977	964.885315
183.924866	956.250350
186.455067	949.006993
188.986694	949.247552
191.515519	953.237762
194.041545	955.512587
196.566885	956.046154
199.093650	959.448252
201.617619	954.109091
204.140902	955.702098
206.663501	960.755944
209.183307	957.462937
211.702430	951.371329
214.220870	951.544755
216.740735	951.497902
219.253597	959.122378
221.769991	975.353846
224.285704	988.152448
226.796526	1000.958741
229.308773	1017.283916
231.818237	1025.597203
234.327023	1039.037762
236.835131	1047.356643
239.344663	1049.526573
241.849314	1044.917483
244.353289	1047.123077
246.858688	1035.818881
249.359212	1031.421678
251.863259	1021.989510
254.360336	1009.968531
256.860935	1008.141259
259.358763	1000.559441
261.855918	992.127972
264.352401	994.787413
266.844020	998.935664
269.339159	999.539860
271.831531	1004.618881
274.323233	1015.166434
276.812172	1024.306294
279.302534	1034.446154
281.790135	1042.641259
284.274976	1058.193007
286.763332	1078.244056
289.244748	1091.672028
291.729678	1121.706993
294.209762	1147.179720
296.693359	1168.232867
299.172114	1175.276923
301.652291	1181.480420
304.129717	1178.997902
306.606479	1176.158042
309.082577	1158.608392
311.555927	1143.518881
314.028616	1130.582517
316.500643	1118.283217
318.972008	1103.797203
321.440630	1096.992308
323.908592	1085.597902
326.377977	1064.944056
328.842539	1040.777622
331.310605	1015.706993
333.773850	986.369930
336.236439	963.337063
338.698371	938.553846
341.159646	923.408392
343.618186	917.325874
346.078149	904.867133
348.535380	889.096503
350.991956	883.463636
353.447878	884.276224
355.901070	874.425874
358.355685	869.198601
360.805498	861.719580
363.258807	849.518182
365.707317	843.048951
368.155177	833.074825
370.604459	822.916084
373.048946	815.369231
375.494856	801.272028
377.940117	786.717483
380.382659	781.852448
382.824553	781.081818
385.265799	776.858042
387.704331	768.167133
390.144283	760.706993
392.581522	749.764336
395.016049	748.833566
397.454064	737.707692
399.887303	731.418881
402.321962	732.932867
404.751849	731.351049
407.185221	723.293007
409.613823	723.830769
412.041783	726.958741
414.471164	726.548951
416.895781	714.861538
419.321818	714.441259
421.747216	701.765035
424.171973	695.869930
426.591971	679.618182
429.013391	671.351748
431.432114	669.593007
433.852258	662.380420
436.269707	652.334266
438.688577	644.325874
441.104752	635.006993
443.516181	623.010490
445.931086	614.714685
448.343301	610.977622
450.754882	590.483217
453.165830	574.297203
455.574090	550.774825
457.981719	537.143357
460.388715	526.362238
462.795080	520.154545
465.198762	513.399301
467.601814	509.147552
470.004236	510.176224
472.406028	519.298601
474.805142	527.974126
477.205676	534.286014
479.605581	543.540559
482.000764	554.573427
484.399412	567.051748
486.793341	587.690210
489.186644	605.776923
491.579322	643.140559
493.971373	679.099301
496.364844	740.558042
498.753602	845.699301
501.139694	1074.174126
503.527206	1528.909091
505.914095	2309.426573
508.298319	3375.420979
510.683963	4573.672028
513.066945	5721.662238
515.447265	6647.885315
517.829006	7230.525874
520.208087	7419.107692
522.588586	7187.695804
524.966429	6571.641259
527.341615	5684.788811
529.716184	4716.020979
532.092172	3858.732867
534.465507	3219.620979
536.840259	2786.178322
539.210325	2489.817483
541.579777	2269.153147
543.950646	2085.036364
546.316834	1926.350350
548.684441	1798.955245
551.049402	1692.000699
553.413751	1599.460140
555.777486	1525.321678
558.142639	1462.639860
560.503120	1412.962937
562.865018	1352.657343
565.224277	1306.487413
567.580897	1258.674825
569.940963	1207.797902
572.294337	1165.113287
574.651156	1120.123776
577.005340	1086.869930
579.358915	1054.973427
581.711883	1036.976224
584.062218	1010.527972
586.413971	982.558741
588.759047	962.614685
591.109586	933.260140
593.453453	915.660839
595.802781	891.483916
598.147460	870.776224
600.489515	866.469930
602.832987	868.372727
605.173836	883.064336
607.514082	896.823776
609.851708	919.059441
612.192769	937.088811
614.529193	949.462238
616.867033	960.220979
619.202256	951.741958
621.534862	938.547552
623.868886	918.499301
626.200295	889.864336
628.531106	874.590210
630.861319	854.755245
633.190935	838.881119
635.515927	828.449650
637.846361	821.335664
640.172174	815.132168
642.495379	806.662937
644.820001	788.637762
647.142017	772.869930
649.463439	761.179021
651.782258	749.265734
654.102494	738.018881
656.422135	733.218881
658.739177	722.079720
661.055626	730.400699
663.369477	735.449650
665.684744	733.211189
667.997414	734.374126
670.311499	734.322378
672.620984	729.145455
674.931885	727.327972
677.240192	721.948951
679.547912	714.241958
681.857047	707.420979
684.161589	696.722378
686.465545	685.858042
688.768914	686.365734
691.073699	672.746154
693.373896	660.299301
695.675509	642.598601
697.976536	635.116084
700.272982	623.360839
702.570843	606.323776
704.868120	590.351748
707.164814	586.413986
709.456932	581.040559
711.752460	581.930769
714.043416	575.716084
716.335786	584.329371
718.625580	589.530070
720.914795	590.431469
723.203430	586.741259
725.489492	587.989510
727.776968	583.044755
730.061874	581.665035
732.346202	573.635664
734.627961	569.536364
736.911134	560.406294
739.193730	556.563636
741.471770	543.797203
743.751224	543.324476
746.030103	540.438462
748.308407	533.351049
750.582160	532.867133
752.857328	537.896503
755.131922	537.295804
757.403957	536.153147
759.677405	529.224476
761.948295	528.715385
764.216629	522.868531
766.486376	531.776224
768.753568	532.267832
771.020191	529.962238
773.286243	542.333566
775.549744	553.566434
777.814657	565.435664
780.079002	572.173427
782.338816	562.584615
784.600044	559.678322
786.860704	556.882517
789.118818	554.201399
791.374387	543.888811
793.633346	552.304895
795.885807	557.846853
798.143635	562.146154
800.396944	576.492308
802.647712	587.474126
804.899894	586.023077
807.149536	580.387413
809.400590	572.255245
811.647133	557.086014
813.895089	548.108392
816.140509	541.559441
818.387342	534.586014
820.633612	535.838462
822.875379	542.760140
825.120528	554.416783
827.359206	548.272028
829.601265	545.041958
831.838826	528.602797
834.077799	515.587413
836.314245	513.448951
838.552102	508.080420
840.787434	515.203497
843.020242	517.927972
845.254462	520.487413
847.486160	526.182517
849.717303	535.496503
851.947891	539.689510
854.177925	529.549650
856.407404	531.662238
858.632403	524.667832
860.860775	517.764336
863.084669	514.144755
865.309974	512.872727
867.530803	509.999301
869.755004	505.397902
871.974732	499.476224
874.195870	512.887413
876.416458	518.310490
878.634537	507.569231
880.854025	510.823776
883.069047	520.288112
885.283521	511.279720
887.497448	501.355245
889.710827	491.449650
891.923660	492.225175
894.135945	485.773427
896.345729	489.602098
898.554967	496.325175
900.763660	516.099301
902.969853	506.859441
905.177456	503.713287
907.382562	509.330769
909.587124	528.650350
911.789191	543.331469
913.992667	541.742657
916.193649	550.481119
918.394089	566.425874
920.595938	585.747552
922.791396	622.772727
924.990212	653.439860
927.184591	709.611189
929.382327	790.421678
931.575627	877.431469
933.770336	975.552448
935.962558	1067.769930
938.154243	1142.179720
940.345390	1180.333566
942.534054	1221.476923
944.722181	1247.452448
946.907828	1224.866434
949.096828	1193.169930
951.281403	1167.180420
953.465444	1166.674126
955.652836	1163.361538
957.831923	1159.681119
960.014361	1183.885315
962.196264	1205.158042
964.375694	1234.408392
966.552651	1268.247552
968.731016	1296.150350
970.910788	1297.165035
973.084210	1275.707692
975.260980	1266.454545
977.433342	1257.772028
979.607112	1258.351748
981.776478	1220.601399
983.949188	1155.479021
986.119433	1089.134266
988.289148	1009.458741
990.458335	923.245455
992.623125	847.232867
994.791257	762.653147
996.954993	663.483916
999.120137	620.925175
1001.282821	635.337063
1003.444980	657.398601
1005.604682	690.911189
1007.763859	647.967832
1009.924443	658.223776
1012.082572	658.254545
1014.240178	667.617483
1016.397259	643.038462
1018.553818	660.695804
1020.705997	640.738462
1022.859583	567.686713
1025.012647	548.986014
1027.163262	532.551049
1029.315283	489.517483
1031.462932	441.331469
1033.613912	389.883217
1035.760521	396.446853
1037.906611	391.911888
1040.052183	403.118881
1042.199160	395.096503
1044.339848	458.441958
1046.483865	464.955245
1048.625443	440.772727
1050.766503	463.787413
1052.908969	494.367133
1055.045154	553.160839
1057.184666	565.105594
1059.319822	536.306993
1061.458303	547.241958
1063.592431	534.687413
1065.726045	489.509091
1067.861063	465.999301
1069.991732	440.486713
1072.123807	429.305594
1074.253451	400.863636
1076.382584	418.083916
1078.511206	411.586713
1080.639316	412.560140
1082.765000	360.503497
1084.890174	369.061538
1087.016752	395.267133
1089.138992	382.862238
1091.262637	389.828671
1093.381947	424.241958
1095.506486	458.121678
1097.624781	490.065734
1099.744479	474.696503
1101.861760	487.332168
1103.978533	452.897902
1106.094800	436.447552
1108.208652	398.816084
1110.323907	387.106294
1112.434840	377.006993
1114.549085	377.011888
1116.659009	378.637762
1118.770336	413.681818
1120.881160	437.067832
1122.987667	406.160839
1125.097483	404.476224
1127.202985	438.598601
1129.309891	436.093007
1131.410581	416.929371
1133.516483	391.627972
1135.618076	377.326573
1137.721071	408.593007
1139.823567	402.211189
1141.919855	387.352448
1144.021350	401.830070
1146.118543	380.309790
1148.215237	357.827273
1150.311434	374.094406
1152.407132	388.591608
1154.502333	381.374126
1156.595137	369.565035
1158.689343	366.313986
1160.777358	381.956643
1162.870571	388.418881
1164.957596	375.762937
1167.047921	360.810490
1169.133957	355.800000
1171.223291	347.589510
1173.306444	355.606294
1175.391000	359.379021
1177.476957	370.193007
1179.558632	361.965734
1181.641708	363.186014
1183.722399	364.186014
1185.802599	398.174825
1187.882307	408.679720
1189.961524	427.845455
1192.038358	422.798601
1194.112812	425.374126
1196.190558	428.081818
1198.264033	410.934965
1200.338910	386.658042
1202.409519	377.957343
1204.481529	348.325874
1206.551163	343.402098
1208.622198	344.872727
1210.692745	346.572028
1212.759032	346.513287
1214.826719	362.260839
1216.892033	345.189510
1218.958748	346.760839
1221.021207	339.455245
1223.086952	320.273427
1225.148442	331.729371
1227.211332	354.194406
1229.271855	357.462238
1231.331895	360.368531
1233.391451	356.258042
1235.448643	331.045455
1237.505352	324.311189
1239.559699	330.879021
1241.617326	332.920979
1243.672591	322.438462
1245.723615	313.133566
1247.776040	308.593007
1249.827984	339.118881
1251.877570	366.620979
1253.926677	377.254545
1255.975305	372.836364
1258.023455	365.065734
1260.071127	363.462238
1262.114568	363.170629
1264.161285	356.131469
1266.205648	368.944755
1268.249534	349.949650
1270.291070	339.440559
1272.330256	364.758741
1274.372715	373.425874
1276.410951	400.762238
1278.450586	412.304895
1280.489745	408.085315
1282.524687	412.069231
1284.561027	407.167832
1286.595022	403.009091
1288.630416	391.781818
1290.661596	400.761538
1292.694175	393.333566
1294.726282	386.611189
1296.756048	405.683217
1298.787211	386.962937
1300.814167	404.118881
1302.842522	390.155944
1304.866671	384.516783
1306.894086	362.020280
1308.917298	351.408392
1310.941908	356.395105
1312.964183	355.471329
1314.987856	344.630070
1317.009196	333.071329
1319.030069	325.296503
1321.050474	326.262937
1323.066686	313.890909
1325.084295	333.200699
1327.099576	336.162238
1329.118116	340.773427
1331.132466	327.026573
1333.144491	331.465035
1335.159774	350.200000
1337.170871	357.332867
1339.183364	346.094406
1341.191675	353.503497
1343.203242	357.052448
1345.208770	344.650350
1347.217553	338.522378
1349.222158	348.738462
1351.230017	362.257343
1353.237414	349.325175
1355.238780	331.213287
1357.241542	326.007692
1359.243845	336.773427
1361.245688	336.122378
1363.247071	328.323776
1365.246140	336.367133
1367.244751	327.631469
1369.242904	321.009091
1371.240599	311.127972
1373.234131	316.773427
1375.229058	322.113287
1377.223529	313.410490
1379.217543	307.734965
1381.209250	305.418182
1383.200501	301.572727
1385.189447	294.155245
1387.179788	309.159441
1389.169675	318.802098
1391.157257	321.232168
1393.144386	336.778322
1395.129213	325.256643
1397.115435	328.818182
1399.099356	339.439161
1401.082825	348.630070
1403.065842	346.342657
1405.046561	327.718881
1407.028674	318.495804
1409.008490	314.147552
1410.987856	321.590909
1412.963083	325.630769
1414.941548	326.768531
1416.917720	312.452448
1418.893442	299.530070
1420.868715	301.725874
1422.841698	305.773427
1424.814232	305.679720
1426.786318	299.712587
1428.757957	294.232867
1430.725467	299.395105
1432.698051	302.843357
1434.662829	301.221678
1436.632680	313.937762
1438.598406	305.823077
1440.565526	304.383217
1442.530362	315.931469
1444.491078	320.983217
1446.456862	312.158741
1448.416691	323.110490
1450.377914	333.323776
1452.340528	346.897203
1454.299028	353.682517
1456.257086	363.788112
1458.214701	345.058042
1460.171875	319.655944
1462.126773	312.390909
1464.083064	326.760140
1466.037080	327.988811
1467.990655	326.170629
1469.941958	317.085315
1471.894653	321.242657
1473.845077	316.707692
1475.795062	313.067832
1477.744608	303.841259
1479.691885	296.793007
1481.636894	275.262937
1483.583296	267.469231
1485.529260	276.193007
1487.474787	287.750350
1489.418048	296.206993
1491.360873	313.979021
1493.301435	318.618182
1495.243389	327.654545
1497.183080	339.481818
1499.122336	337.855944
1501.061158	341.106993
1502.997720	344.808392
1504.935673	362.652448
1506.871367	361.953846
1508.806628	348.781119
1510.739632	340.642657
1512.672204	324.897902
1514.604344	309.986713
1516.536052	309.228671
1518.465507	294.530769
1520.396352	304.325175
1522.326765	286.478322
1524.253106	288.138462
1526.180837	288.634965
1528.106319	309.560140
1530.031371	296.341958
1531.955993	299.332867
1533.880187	300.030769
1535.802134	295.043357
1537.725471	316.193007
1539.646561	346.727273
1541.565407	349.593007
1543.485643	360.427972
1545.403635	361.565734
1547.321201	356.503497
1549.236526	360.070629
1551.153240	364.558042
1553.065898	345.107692
1554.981761	365.013287
1556.895385	391.626573
1558.806770	401.838462
1560.719545	422.044056
1562.628270	426.413287
1564.538384	430.992308
1566.448075	449.769231
1568.357343	473.382517
1570.264376	506.700699
1572.169177	564.188112
1574.075367	646.428671
1575.979326	767.378322
1577.882863	913.355245
1579.785980	1028.630769
1581.686867	1080.837063
1583.589143	1112.457343
1585.489190	1091.476224
1587.390626	1013.421678
1589.288027	918.155944
1591.185011	788.007692
1593.081576	669.527273
1594.979528	551.797203
1596.871646	480.118182
1598.766958	458.704895
1600.661851	432.955245
1602.554524	413.158042
1604.446779	416.572028
1606.336815	399.605594
1608.226435	394.216783
1610.115640	364.078322
1612.004429	342.749650
1613.891002	334.476224
1615.778962	318.841259
1617.662905	305.747552
1619.548235	321.551049
1621.433152	343.642657
1623.315855	336.109790
1625.199945	357.446154
1627.080023	386.570629
1628.961488	377.528671
1630.840743	421.156643
1632.721385	414.720280
1634.596222	389.815385
1636.476040	398.908392
1638.351853	416.418881
1640.227257	378.388811
1642.104046	388.076224
1643.975038	361.139161
1645.849213	326.176923
1647.719388	294.815385
1649.592744	286.872028
1651.463897	286.296503
1653.332848	301.911189
1655.203185	285.551748
1657.069528	284.904895
1658.937258	312.267832
1660.802788	347.710490
1662.669704	289.546853
1664.532630	316.158741
1666.396943	286.295105
1668.259059	267.204196
1670.120770	263.520979
1671.983866	311.586713
1673.844768	282.734266
1675.703477	273.593706
1677.561782	245.831469
1679.421471	264.458741
1681.275394	281.683916
1683.132490	270.009091
1684.989182	229.991608
1686.841899	291.181818
1688.697787	290.106993
1690.549701	246.151748
1692.401214	263.669231
1694.252326	300.623776
1696.103037	227.752448
1697.953348	227.132168
1699.801475	216.304895
1701.650986	253.600000
1703.494747	258.206993
1705.343459	244.567133
1707.186424	246.539860
1709.032555	271.511189
1710.874725	240.019580
1712.720059	219.851748
1714.559653	298.731469
1716.400632	318.596503
1718.242993	261.542657
1720.081397	324.211888
1721.921185	319.308392
1723.758798	335.266434
1725.596016	286.781818
1727.431060	273.375524
1729.267487	219.895105
1731.101741	198.253147
1732.935602	185.972727
1734.769068	200.048951
1736.598588	220.276224
1738.431267	209.034266
1740.260002	257.573427
1742.091895	368.508392
1743.919845	368.923776
1745.747403	395.741259
1747.574570	355.794406
1749.401345	358.387413
1751.227728	307.006294
1753.050175	296.160140
1754.875777	269.620280
1756.697443	235.657343
1758.520492	236.820979
1760.341380	278.037762
1762.161878	324.386014
1763.983758	344.751049
1765.799938	323.325175
1767.619270	295.937762
1769.434675	231.479021
1771.253231	164.435664
1773.067861	136.180420
1774.882104	163.490210
1776.695961	170.572727
1778.509431	155.013287
1780.320747	181.979021
1782.133445	216.582517
1783.945756	212.316084
1785.754150	221.501399
1787.563925	221.757343
1789.369784	233.756643
1791.178790	226.441259
1792.983882	218.128671
1794.790355	282.337762
1796.596443	304.760839
1798.398622	294.465035
1800.203944	260.176224
1802.005358	248.658741
1803.808153	220.683217
1805.607041	194.634266
1807.407310	193.092308
1809.207197	166.729371
1811.004942	182.230070
1812.802307	217.690210
1814.599291	223.313986
1816.395895	254.441958
1818.190360	236.356643
1819.986205	263.472028
1821.776394	282.302797
1823.571480	291.431469
1825.360913	278.974825
1827.153484	301.492308
1828.943919	304.967133
1830.732219	298.248951
1832.523655	325.211189
1834.309446	312.094406
1836.096615	270.351049
1837.881654	244.711189
1839.669825	214.443357
1841.454111	222.338462
1843.236268	198.941958
1845.019804	162.802098
1846.801211	137.874825
1848.583996	153.672727
1850.362902	167.134965
1852.143186	175.816084
1853.921345	182.792308
1855.700881	155.007692
1857.478293	174.496503
1859.253582	196.068531
1861.030248	180.619580
1862.804792	218.711189
1864.580713	229.039161
1866.351015	244.712587
1868.124444	253.797902
1869.895753	276.202797
1871.666691	300.006294
1873.439007	302.355245
1875.205709	290.753147
1876.975536	268.858042
1878.741500	274.648951
1880.510588	271.314685
1882.275814	252.123776
1884.040672	301.502797
1885.806906	269.745455
1887.569282	252.105594
1889.331291	235.746154
1891.092933	222.057343
1892.854207	211.138462
1894.615115	184.840559
1896.375655	174.741259
1898.134087	161.228671
1899.892152	166.427972
1901.648110	194.809091
1903.405444	202.908392
1905.162413	245.480420
1906.917275	240.972727
1908.670032	280.295105
1910.422426	307.976923
1912.176196	307.571329
1913.927862	287.065734
1915.677425	276.001399
1917.428365	289.193706
1919.178941	271.719580
1920.925679	271.017483
1922.673792	265.375524
1924.419806	232.660839
1926.167196	249.201399
1927.912487	215.477622
1929.655681	242.924476
1931.400251	245.604196
1933.142724	229.235664
1934.884837	200.800699
1936.626591	202.954196
1938.367984	218.313986
1940.107284	217.473077
1941.846225	221.320979
1943.584807	233.387762
1945.321298	238.839860
1947.057430	244.460490
1948.794938	233.712587
1950.528623	261.423427
1952.263683	244.865035
1953.996654	219.915035
1955.729269	199.978322
1957.461527	187.817133
1959.193429	186.690909
1960.923246	164.869930
1962.650977	180.867832
1964.380083	193.179720
1966.108833	211.319580
1967.835500	219.595105
1969.561813	246.058042
1971.289500	254.815385
1973.011650	243.676923
1974.736901	231.273427
1976.458345	219.747552
1978.182889	240.902098
1979.905354	245.522378
1981.624015	250.321678
1983.345775	270.698601
1985.063733	256.819580
1986.783065	264.308392
1988.498597	267.165734
1990.218949	270.967133
1991.935503	259.537063
1993.648260	226.572028
1995.364113	202.623776
1997.077894	177.593007
1998.791325	178.203497
2000.502685	159.501399
2002.215417	158.774126
2003.924358	159.689510
2005.636393	159.418182
2007.342918	184.520979
2009.052536	213.386713
2010.760086	214.619580
2012.467289	232.532867
2014.172426	232.200000
2015.877216	246.868531
2017.583379	265.873427
2019.285758	271.428671
2020.989510	255.201399
2022.691199	252.701399
2024.392542	244.606993
2026.093541	235.241958
2027.792478	238.055944
2029.492787	222.213287
2031.189320	203.268531
2032.887225	193.320979
2034.583072	179.144755
2036.282004	177.360140
2037.975450	178.338462
2039.670267	181.968531
2041.364741	181.787413
2043.055448	206.388112
2044.749237	213.783916
2046.439261	223.839860
2048.130654	236.725175
2049.819995	242.458042
2051.510707	236.356643
2053.197655	229.046154
2054.884263	228.176224
2056.572242	211.961538
2058.256461	200.067832
2059.942050	203.323077
2061.627300	200.310490
2063.310502	189.611189
2064.995074	188.857343
2066.674182	168.396503
2068.358077	150.143357
2070.036510	145.642657
2071.718021	141.997902
2073.395780	150.221678
2075.073203	153.875524
2076.751995	141.909091
2078.428744	145.209790
2080.103452	143.732168
2081.779530	156.686014
2083.453566	152.241259
2085.127267	183.030070
2086.800634	183.506294
2088.471961	197.046154
2090.142954	208.997902
2091.813613	233.209790
2093.483938	220.883217
2095.153929	198.213986
2096.821883	178.132867
2098.489505	171.406993
2100.155093	163.162937
2101.822049	165.546154
2103.486972	160.132168
2105.151563	174.227972
2106.814122	178.658042
2108.478049	186.586713
2110.139945	176.153846
2111.801510	182.829371
2113.462745	171.449650
2115.121950	154.634965
2116.780826	170.976923
2118.439371	162.632168
2120.097587	173.776923
2121.752080	185.700000
2123.409637	198.816084
2125.066864	203.358042
2126.720371	224.001399
2128.375245	239.246853
2130.026400	231.631469
2131.680618	216.800000
2133.331118	203.439161
2134.982986	173.184615
2136.629445	160.116783
2138.280658	131.907692
2139.928159	125.023077
2141.577026	126.072727
2143.223874	165.365035
2144.870397	193.115385
2146.516594	236.307692
2148.159082	274.373427
2149.804629	270.627972
2151.446469	242.783916
2153.091366	227.455245
2154.732558	193.468531
2156.373426	159.420280
2158.013971	119.259441
2159.652503	95.260839
2161.292401	113.318881
2162.928599	154.313986
2164.566163	167.495804
2166.203405	196.178322
2167.838637	210.185315
2169.473547	223.827273
2171.108136	219.917483
2172.742404	233.383916
2174.372978	212.018881
2176.006604	197.881818
2177.636537	180.177622
2179.267837	190.121678
2180.897131	202.052448
2182.526106	185.345455
2184.154761	166.266434
2185.783097	171.018881
2187.409430	165.076923
2189.035445	174.674825
2190.659459	142.859441
2192.284838	139.613986
2193.908216	130.072028
2195.532959	123.811888
2197.154021	118.556643
2198.774766	133.514685
2200.396875	130.410490
2202.016987	110.541958
2203.635103	120.262238
2205.252903	133.906294
2206.870387	138.594406
2208.487556	165.359441
2210.104410	161.913986
2211.720949	194.746154
2213.335494	211.074126
2214.948048	208.606294
2216.561965	209.546154
2218.173891	226.334266
2219.787180	226.079720
2221.398478	191.390210
2223.007788	166.816084
2224.618460	157.935664
2226.227144	139.207692
2227.835516	134.581818
2229.441901	113.420280
2231.049648	121.155245
2232.655410	118.031469
2234.260860	121.235664
2235.864325	126.108392
2237.469153	136.067832
2239.071997	151.124476
2240.672858	155.013287
2242.275082	167.311888
2243.875324	188.185315
2245.476928	187.229371
2247.074879	176.046853
2248.674193	181.813287
2250.271527	191.469930
2251.868553	196.207692
2253.466940	180.488112
2255.061680	168.062937
2256.654442	144.385315
2258.248567	137.490909
2259.844053	144.892308
2261.435894	157.973427
2263.027429	177.755944
2264.620325	188.900699
2266.207912	213.939161
2267.800196	205.776224
2269.387172	240.850350
2270.977177	236.181818
2272.561877	236.548252
2274.151271	234.054545
2275.735362	194.767832
2277.320815	198.111888
2278.904299	198.757343
2280.490808	192.840559
2282.073684	205.879021
2283.656257	208.520979
2285.238526	220.588811
2286.817165	187.347552
2288.398829	202.856643
2289.976864	146.982517
2291.557922	152.703497
2293.135353	147.418881
2294.710821	164.690909
2296.289311	204.577622
2297.864177	208.906993
2299.438742	215.255245
2301.013006	253.416084
2302.586970	270.647552
2304.160634	275.482517
2305.733998	244.613986
2307.303742	228.233566
2308.873189	192.529371
2310.445653	208.664336
2312.012843	241.028671
2313.583050	283.513986
2315.149644	291.667832
2316.717596	255.357343
2318.283594	243.157343
2319.849294	266.202797
2321.414696	247.974126
2322.978145	245.411189
2324.542953	210.427972
2326.104152	226.002098
2327.668366	231.113986
2329.227319	234.460839
2330.789285	256.737762
2332.349301	275.811189
2333.909021	224.897902
2335.466792	171.122378
2337.024269	168.489510
2338.581451	153.347552
2340.136685	113.397203
2341.691625	85.966434
2343.246272	60.924476
2344.800625	99.023776
2346.354684	119.953846
2347.908450	156.426573
2349.460271	196.346853
2351.010149	190.457343
2352.563036	183.101399
2354.110679	207.483217
2355.661330	203.986713
2357.208391	210.052448
2358.756809	206.245455
2360.304935	197.993007
2361.849474	250.219580
2363.395370	272.120979
2364.939327	286.877622
2366.484642	325.890210
2368.026372	305.969231
2369.569460	228.958042
2371.110611	244.670629
2372.651473	219.007692
2374.192046	181.426573
2375.732330	160.135664
2377.272325	141.518881
2378.808741	148.521678
2380.348159	176.592308
2381.884000	164.055944
2383.421198	205.119580
2384.954820	194.721678
2386.491442	186.155245
2388.026134	147.946154
2389.558895	168.248951
2391.091371	126.337063
2392.621918	108.013287
2394.155463	98.948951
2395.683797	111.577622
2397.213487	106.587413
2398.742892	136.974825
2400.272012	118.562937
2401.800846	137.455944
2403.324476	122.877622
2404.852741	123.383916
2406.375803	115.744755
2407.903500	94.416084
2409.424357	124.844056
2410.949846	164.734266
2412.471776	200.254545
2413.995060	228.034965
2415.516424	263.257343
2417.035868	281.183217
2418.556667	283.845455
2420.075547	304.916783
2421.594146	298.079720
2423.110826	285.444056
2424.628862	274.427972
2426.146616	262.038462
2427.660818	289.817483
2429.174741	276.940559
2430.688383	288.202098
2432.203379	285.363636
2433.714828	274.072028
2435.227630	232.316783
2436.738520	252.786713
2438.249131	246.602098
2439.757830	272.125175
2441.269515	280.867832
2442.777657	269.586014
2444.285521	266.921678
2445.793106	287.431469
2447.297152	258.334266
2448.804182	224.622378
2450.309304	186.357343
2451.814149	120.346154
2453.317087	62.246154
2454.819748	50.717483
2456.322134	68.158741
2457.822613	103.139161
2459.324447	110.598601
2460.824375	167.104895
2462.324028	201.690909
2463.823406	253.039161
2465.320881	236.219580
2466.816454	245.223776
2468.315007	293.666434
2469.810032	305.334965
2471.306409	309.329371
2472.799260	300.025175
2474.293464	344.656643
2475.787394	315.192308
2477.277800	274.344056
2478.771184	273.798601
2480.262670	204.913986
2481.752259	189.823776
2483.241576	162.792308
2484.728997	164.646853
2486.219394	157.458042
2487.706273	172.964336
2489.194503	167.502797
2490.679216	210.697203
2492.163659	289.246853
2493.649454	258.912587
2495.133357	260.099301
2496.618610	253.848951
2498.098730	246.817483
2499.581822	284.605594
2501.063025	292.113287
2502.543958	284.782517
2504.023001	254.261538
2505.501777	233.607692
2506.980284	219.964336
2508.458522	265.809790
2509.936493	248.104196
2511.410958	212.830070
2512.888393	210.424476
2514.362323	214.373427
2515.837605	244.116084
2517.312619	222.420979
2518.784132	225.566434
2520.256996	216.302098
2521.727977	171.143357
2523.200308	112.233566
2524.667525	78.533566
2526.137709	43.897902
2527.606012	49.706294
2529.074049	29.207692
2530.541822	77.953147
2532.009330	105.553846
2533.476574	101.456643
2534.940325	70.408392
2536.405426	116.225874
2537.868650	158.400699
2539.333223	159.449650
2540.794308	162.195804
2542.256742	132.642657
2543.718913	132.043357
2545.177597	166.290909
2546.640854	110.880420
2548.099014	149.255944
2549.558523	162.978322
2551.012939	168.953147
2552.471925	173.941259
2553.929039	214.657343
2555.384281	266.121678
2556.839263	263.082517
2558.292375	229.455245
2559.746836	197.662238
2561.199428	154.090909
2562.651760	87.853147
2564.102224	36.318881
2565.555645	49.684615
2567.003983	59.613287
2568.455276	54.316084
2569.904703	67.352448
2571.350659	99.732867
2572.799569	131.501399
2574.245008	154.679021
2575.691796	180.688811
2577.136720	226.897203
2578.581387	200.601399
2580.027401	192.058042
2581.469948	219.581119
2582.913843	224.936364
2584.354273	199.534266
2585.796051	205.650350
2587.235969	221.105594
2588.677234	237.641259
2590.115037	222.348951
2591.555790	198.995804
2592.991481	174.551049
2594.430120	165.418182
2595.866903	142.355944
2597.301830	136.400000
2598.739704	118.476224
2600.172521	98.127972
2601.606685	90.772727
2603.038994	83.688112
2604.472651	110.989510
2605.904453	133.237762
2607.336003	121.251049
2608.767299	79.153147
2610.196744	79.719580
2611.625936	88.604895
2613.053277	126.693706
2614.481965	153.737063
2615.910400	158.872028
2617.335389	219.858741
2618.761723	236.502098
2620.186210	253.647552
2621.612041	304.041259
2623.034430	323.742657
2624.458163	310.306993
2625.880051	279.513287
2627.301688	267.971329
2628.721481	275.143357
2630.142619	279.578322
2631.563507	288.718182
2632.980956	281.825874
2634.401345	325.058741
2635.818297	327.218182
2637.235001	343.020979
2638.651456	334.842657
2640.067663	355.150350
2641.483622	330.652448
2642.897740	352.280420
2644.311610	374.122378
2645.723641	396.240559
2647.137017	415.085315
2648.546963	428.877622
2649.959845	471.062937
2651.369298	536.732867
2652.778505	574.681818
2654.185876	639.304196
2655.596181	666.500000
2657.004650	732.257343
2658.411284	787.361538
2659.817673	860.679021
2661.222229	909.151748
2662.628128	945.708392
2664.032193	977.678322
2665.436015	1006.946853
2666.839592	1014.404895
2668.241338	1022.002797
2669.644427	1016.841259
2671.044098	995.337063
2672.445113	971.086014
2673.842712	977.862238
2675.243240	1014.591608
2676.640354	1008.219580
2678.038811	989.797902
2679.435440	975.421678
2680.831828	921.233566
2682.227973	900.901399
2683.622292	824.223776
2685.017954	733.114685
2686.410207	645.656643
2687.803802	562.530070
2689.195573	526.566434
2690.588687	523.768531
2691.979976	526.937762
2693.369444	503.294406
2694.758671	448.105594
2696.147658	415.910490
2697.537988	358.653147
2698.923334	353.765734
2700.311603	301.327972
2701.698052	248.816783
2703.084262	247.283217
2704.470233	253.498601
2705.852806	274.465734
2707.236721	289.531469
2708.620397	321.990210
2710.003836	310.230769
2711.383879	309.475524
2712.765264	289.653846
2714.144833	268.009091
2715.525744	248.295804
2716.904840	243.400000
2718.282122	251.648252
2719.660745	258.457343
2721.037554	214.609091
2722.414128	206.132168
2723.790466	164.558042
2725.164992	174.412587
2726.540859	164.917483
2727.913339	165.188112
2729.288736	134.659441
2730.659172	127.625874
2732.030948	131.825874
2733.402491	146.335664
2734.772225	136.526573
2736.143299	156.815385
2737.512566	152.513287
2738.881599	179.831469
2740.248826	227.846853
2741.615819	229.262937
2742.982580	264.300699
2744.349108	277.495804
2745.713832	265.504895
2747.078323	226.830070
2748.442582	194.888811
2749.806610	172.428671
2751.170405	161.623776
2752.530828	149.920280
2753.894160	146.368531
2755.252550	144.466434
2756.613850	155.019580
2757.971780	130.589510
2759.332618	158.931469
2760.691656	156.399301
2762.047326	146.660839
2763.405905	162.133566
2764.761116	173.799301
2766.116098	181.300000
2767.469283	149.175524
2768.825375	122.380420
2770.178103	106.072727
2771.530602	109.853147
2772.882874	79.040559
2774.236483	77.643357
2775.586731	67.676224
2776.935186	32.265035
2778.286545	42.853846
2779.634545	84.287413
2780.983884	82.332867
2782.331430	110.950350
2783.678750	108.751748
2785.025842	149.418881
2786.371144	160.444056
2787.716220	191.005594
2789.061070	206.271329
2790.405694	213.630070
2791.746965	167.523776
2793.089575	138.024476
2794.431960	143.242657
2795.774119	148.518881
2797.112929	143.804895
2798.454639	160.017483
2799.793000	145.724476
2801.132699	179.883217
2802.470612	181.175524
2803.806741	190.941259
2805.142647	209.159441
2806.479889	168.211888
2807.815348	139.025175
2809.150584	146.416783
2810.484038	152.248951
2811.818828	163.602797
2813.150277	163.402098
2814.484622	149.720979
2815.814069	149.199301
2817.144853	175.811888
2818.475415	157.257343
2819.804198	168.139860
2821.134318	140.846154
2822.462659	86.842657
2823.790778	95.948951
2825.117121	79.413287
2826.444799	80.712587
2827.769145	111.078322
2829.094827	116.695804
2830.418733	145.732867
2831.742419	177.442657
2833.067441	199.325874
2834.389134	221.341259
2835.710608	254.023776
2837.031862	238.762937
2838.352898	202.022378
2839.672162	188.623776
2840.992761	116.843357
2842.311588	79.527273
2843.630197	59.779720
2844.947036	82.200000
2846.263657	78.916084
2847.580061	103.551049
2848.894695	149.498601
2850.210664	152.998601
2851.523314	180.290210
2852.837298	189.502098
2854.151066	205.196503
2855.464617	177.495804
2856.776402	151.589510
2858.086420	165.213287
2859.397773	158.087413
2860.705811	208.240559
2862.015183	172.513986
2863.324340	203.383916
2864.633282	198.368531
2865.940461	120.142657
2867.245876	131.346853
2868.552626	68.129371
2869.857614	45.532168
2871.162387	30.947552
2872.465400	73.280420
2873.771293	82.698601
2875.072332	96.255944
2876.374704	143.532867
2877.675318	139.670629
2878.977264	150.879021
2880.278998	146.063636
2881.577428	114.067133
2882.877191	89.165734
2884.175197	43.130769
2885.472991	96.455245
2886.769028	121.860839
2888.066399	114.604196
2889.362015	99.559441
2890.657419	145.043357
2891.952612	152.983916
2893.244508	144.390909
2894.539279	92.006993
2895.830755	104.023077
2897.123563	79.160140
2898.416161	75.346154
2899.705464	80.763636
2900.996101	105.286713
2902.284986	44.041259
2903.575203	40.460839
2904.862129	65.520280
2906.150387	99.255944
2907.436896	103.629371
2908.723196	76.255245
2910.009288	73.528671
2911.293632	103.545455
2912.580848	89.318182
2913.863237	62.070629
2915.146958	53.589510
2916.428932	81.357343
2917.710700	72.380420
2918.990722	85.438462
2920.273614	129.594406
2921.554761	150.550350
2922.832626	191.139161
2924.113360	206.854545
2925.390813	217.206294
2926.668061	201.830070
2927.943566	170.545455
2929.221939	104.883217
2930.495498	88.066434
2931.771924	101.393706
2933.046608	78.590909
2934.319553	68.428671
2935.593829	121.257343
2936.866364	130.486014
2938.138696	170.337762
2939.407755	178.455944
2940.679679	169.758741
2941.949865	180.308392
2943.219847	168.956643
2944.489626	126.218182
2945.757668	112.279720
2947.023975	133.772028
2948.290079	87.367832
2949.557514	89.256643
2950.823213	115.374126
2952.088710	111.264336
2953.354006	117.277622
2954.616036	123.289510
2955.879396	142.582517
2957.142555	148.956643
2958.403981	156.571329
2959.666738	133.888811
2960.927762	122.709790
2962.187056	123.888112
2963.446149	67.411189
2964.705042	98.034965
2965.963735	89.533566
2967.222228	103.640559
2968.478992	139.953147
2969.735557	141.882517
2970.990393	131.762937
2972.246559	122.533566
2973.499470	121.760839
2974.753709	120.882517
2976.007750	114.618881
2977.260065	118.876224
2978.512182	97.279720
2979.762574	125.696503
2981.015821	122.842657
2982.264291	185.679021
2983.515616	180.074126
2984.763691	165.216084
2986.011569	147.429371
2987.259251	156.549650
2988.506735	156.337063
2989.752498	150.588112
2990.998064	166.337063
2992.244959	192.975524
2993.488609	200.545455
2994.733586	199.959441
2995.975321	168.142657
2997.219907	179.823077
2998.462774	136.255944
2999.702400	108.416783
3000.944876	73.576923
3002.184112	55.165734
3003.424676	51.146154
3004.663523	38.508392
3005.902176	78.448252
3007.139113	133.456643
3008.377378	153.049650
3009.613927	144.543357
3010.850283	109.698601
3012.086445	110.633566
3013.320893	90.591608
3014.555148	65.167832
3015.789210	65.710490
3017.021560	69.444056
3018.252198	95.302797
3019.485682	57.105594
3020.717455	72.815385
3021.947516	107.759441
3023.177386	108.423776
3024.405546	73.267832
3025.635033	42.894406
3026.862810	68.549650
3028.090396	88.603497
3029.319308	105.493007
3030.543478	148.296503
3031.770491	170.741259
3032.994281	173.667832
3034.219396	192.791608
3035.442806	214.544755
3036.666025	213.686713
3037.887539	169.841259
3039.111894	115.586713
3040.331514	119.565035
3041.552460	145.358741
3042.773216	118.670629
3043.992270	130.432867
3045.212648	126.632168
3046.429810	95.353147
3047.648297	80.994406
3048.865083	118.782517
3050.081680	109.450350
3051.298090	98.955944
3052.511286	69.606993
3053.727320	71.398601
3054.940142	92.571329
3056.155801	88.380420
3057.366737	89.083217
3058.578999	113.887413
3059.791073	118.024476
3061.002961	119.026573
3062.213152	119.907692
3063.423156	146.071329
3064.632974	154.738462
3065.841096	151.825874
3067.049033	151.186713
3068.255274	143.508392
3069.462840	127.740559
3070.668711	108.180420
3071.874397	111.408392
3073.079899	104.993706
3074.283707	120.598601
3075.488839	132.100699
3076.692278	134.200000
3077.894025	128.830769
3079.095589	108.741259
3080.296969	106.363636
3081.498165	86.051049
3082.697671	48.620979
3083.896994	60.338462
3085.097640	30.138462
3086.296596	46.560839
3087.492357	60.045455
3088.690948	98.948252
3089.886345	149.808392
3091.083066	171.926573
3092.276594	174.034965
3093.472950	196.996503
3094.667619	195.735664
3095.859098	165.700699
3097.054908	146.542657
3098.246025	126.895804
3099.438465	78.610490
3100.627716	84.243357
3101.819794	78.118182
3103.010188	82.950350
3104.197396	82.909790
3105.385926	76.641958
3106.575779	95.469930
3107.762447	108.750350
3108.948936	87.565035
3110.135246	75.133566
3111.322877	95.014685
3112.507326	79.037063
3113.690096	76.185315
3114.875688	38.294406
3116.059601	15.834965
3117.241834	0.614685
3118.423890	-31.145455
3119.605767	-51.848951
3120.787466	-70.230070
3121.967488	-56.372727
3123.145833	-64.153147
3124.326998	-47.111888
3125.504988	22.676224
3126.682801	41.687413
3127.860437	66.495105
3129.036398	73.946154
3130.212183	110.224476
3131.389288	120.711888
3132.564720	95.150350
3133.738478	76.406294
3134.910563	32.981818
3136.083969	55.331469
3137.257200	57.600000
3138.428759	89.755245
3139.601638	108.236364
3140.771350	116.597902
3141.942383	124.905594
3143.111745	133.473427
3144.279438	136.767133
3145.449946	112.213287
3146.615795	82.191608
3147.785954	40.211189
3148.951455	35.402098
3150.116783	35.755245
3151.281937	64.558042
3152.446918	68.778322
3153.613218	40.328671
3154.774865	59.851049
3155.937833	99.299301
3157.100628	102.860839
3158.263249	117.481119
3159.424206	121.319580
3160.584991	117.960839
3161.745603	100.356643
3162.904551	133.900000
3164.063327	89.014685
3165.221932	105.123077
3166.380365	78.253147
3167.538626	46.279021
3168.695226	88.202797
3169.850164	82.303497
3171.006421	62.504196
3172.161017	62.673427
3173.315443	60.648951
3174.468208	52.462937
3175.620804	66.867832
3176.773230	82.093706
3177.925485	61.280420
3179.077571	112.935664
3180.226510	116.468531
3181.378256	132.997902
3182.528345	153.703497
3183.676776	113.248252
3184.825039	106.475524
3185.973133	88.371329
3187.121058	95.139161
3188.267327	105.994406
3189.413428	112.965035
3190.557875	131.981818
3191.702153	152.082517
3192.846264	167.932867
3193.991693	163.403497
3195.133983	126.083916
3196.276105	105.106993
3197.418061	54.206294
3198.559849	52.211888
3199.701470	54.211888
3200.839956	51.772727
3201.979759	35.728671
3203.120879	10.163636
3204.258866	49.235664
3205.395202	46.937762
3206.531374	65.334266
3207.668862	57.244056
3208.804702	79.129371
3209.941859	129.275524
3211.074403	153.451049
3212.211228	172.687413
3213.343443	172.609790
3214.476974	141.714685
3215.610340	79.918182
3216.740580	40.962937
3217.873617	35.829371
3219.003527	22.296503
3220.134755	14.332867
3221.262857	4.525874
3222.393757	17.123077
3223.523012	40.353846
3224.650624	36.721678
3225.775113	44.277622
3226.903878	67.576923
3228.029521	73.710490
3229.155001	58.518881
3230.278840	111.020979
3231.405474	163.325874
3232.527510	181.533566
3233.650862	155.602797
3234.774051	158.905594
3235.897079	129.504895
3237.018467	167.679021
3238.139694	152.818182
3239.259282	165.255944
3240.378709	133.219580
3241.496499	110.965035
3242.617080	121.013986
3243.734548	138.268531
3244.851855	111.472028
3245.969002	66.564336
3247.084512	38.425175
3248.201338	56.726573
3249.315053	71.145455
3250.431559	99.496503
3251.546429	137.845455
3252.658191	157.729371
3253.769794	133.351748
3254.882712	121.244755
3255.995470	121.046154
3257.105122	71.081119
3258.216089	5.916084
3259.326897	-12.416783
3260.436073	-64.316783
3261.543618	-44.113287
3262.652478	-18.762937
3263.761179	34.409091
3264.866778	107.232867
3265.973692	155.462238
3267.078976	147.289510
3268.185574	133.186713
3269.289072	138.182517
3270.393884	147.714685
3271.498539	143.836364
3272.600096	149.732168
3273.701496	109.134965
3274.804210	124.943357
3275.906768	112.876923
3277.006229	129.544056
3278.108474	109.220280
3279.207623	97.862937
3280.305147	71.334965
3281.402517	65.222378
3282.502668	91.160839
3283.599727	122.870629
3284.696630	127.397902
3285.793378	118.287413
3286.885567	95.444056
3287.982006	80.768531
3289.076822	62.172727
3290.171483	52.649650
3291.264523	19.667832
3292.357409	41.069231
3293.448674	88.648951
3294.541252	101.909790
3295.632210	144.155944
3296.721548	172.371329
3297.810733	137.681818
3298.901230	106.709091
3299.988643	83.860839
3301.075904	63.296503
3302.164477	68.997203
3303.252897	35.437063
3304.336771	21.800699
3305.424885	31.194406
3306.509919	20.039161
3307.593337	11.293007
3308.678067	53.965734
3309.761181	82.633566
3310.845607	60.311888
3311.926956	44.174126
3313.009616	26.931469
3314.090661	2.399301
3315.171556	55.693706
3316.250838	63.567133
3317.329969	60.930769
3318.410412	53.824476
3319.487780	63.594406
3320.566460	84.236364
3321.643528	114.672727
3322.720446	116.353846
3323.795754	93.772028
3324.870912	85.850350
3325.947381	57.040559
3327.020780	68.922378
3328.094029	124.751748
3329.168590	149.276224
3330.241542	143.301399
3331.312885	151.425874
3332.385539	162.276224
3333.455126	192.262238
3334.526024	186.435664
3335.595316	173.106993
3336.665917	158.935664
3337.734912	155.521678
3338.802302	133.909790
3339.868086	152.949650
3340.938096	173.735664
3342.005042	179.116084
3343.068928	135.223077
3344.135580	108.019580
3345.200629	102.081818
3346.264074	134.915385
3347.327373	131.219580
3348.390525	103.076224
3349.453531	95.728671
3350.516391	101.998601
3351.577648	134.235664
3352.635849	147.577622
3353.698271	146.061538
3354.757637	144.200699
3355.816857	101.509091
3356.877386	83.704196
3357.933407	103.390210
3358.992191	142.095804
3360.046468	168.902797
3361.103509	140.959441
3362.158951	160.647552
3363.215702	141.381119
3364.270856	171.783217
3365.324412	107.490909
3366.376371	119.753147
3367.431093	103.304196
3368.482765	47.003497
3369.534293	13.779720
3370.587131	29.321678
3371.636921	35.169930
3372.688020	37.365734
3373.736072	21.255245
3374.786885	11.325874
3375.834652	17.241259
3376.882277	51.338462
3377.929760	54.480420
3378.975650	122.753846
3380.022848	118.497902
3381.067003	123.449650
3382.113917	137.520280
3383.159240	124.267133
3384.201521	93.234266
3385.243661	66.182517
3386.287110	36.273427
3387.330417	6.205594
3388.372134	12.926573
3389.413711	-0.650350
3390.455146	39.716084
3391.494993	42.463636
3392.533251	68.410490
3393.572817	96.132168
3394.612243	135.736364
3395.650081	123.145455
3396.686332	92.834965
3397.722443	66.237063
3398.759862	55.329371
3399.794248	54.009091
3400.829942	87.427972
3401.865496	95.227273
3402.898018	114.348951
3403.933294	76.079720
3404.965540	114.388112
3405.997646	119.800000
3407.028170	141.055245
3408.060000	136.831469
3409.091692	103.422378
3410.120356	85.974126
3411.148883	65.273427
3412.178716	75.122378
3413.208412	64.596503
3414.235082	66.314685
3415.263058	72.762238
3416.288010	36.589510
3417.315713	17.628671
3418.340391	0.385315
3419.366376	15.511888
3420.390782	30.634965
3421.415051	3.276923
3422.437741	10.007692
3423.460295	9.825175
3424.484155	37.253147
3425.504995	37.774126
3426.525699	72.348551
3427.547709	103.160864
3428.566701	123.796903
3429.585558	127.842507
3430.605721	108.883516
3431.622867	60.505769
