-117.633747	4.332418
-114.964146	-3.909890
-112.297481	-8.051748
-109.631568	-8.953646
-106.968588	-7.476074
-104.304177	-4.479520
-101.642697	-0.824476
-98.979788	-0.081119
-96.321985	0.638462
-93.662753	0.758741
-91.004269	-0.778322
-88.348710	2.675524
-85.691721	-1.129371
-83.039831	-4.177622
-80.386511	-5.097203
-77.736110	-5.583217
-75.084281	-5.292308
-72.437542	-0.910490
-69.789373	-1.068531
-67.141947	-0.985315
-64.497436	0.941958
-61.851495	1.829371
-59.210636	1.860140
-56.568348	3.544056
-53.928969	1.944755
-51.288161	0.663636
-48.648092	-0.003497
-46.013097	-0.654545
-43.376672	1.753846
-40.743150	2.457343
-38.108200	2.147552
-35.478316	0.860839
-32.844838	3.134266
-30.216423	4.254545
-27.588742	4.653846
-24.959632	0.560839
-22.335580	-22.920280
-19.707937	-115.682517
-17.085349	-352.583916
-14.463491	-402.225175
-11.842364	362.658042
-9.221968	1538.972028
-6.604459	2479.125874
-3.985522	3128.466434
-1.369471	3482.374825
1.245853	3539.681119
3.860448	3301.595804
6.472162	2774.299301
9.085303	1969.345455
11.693412	948.654545
14.305101	-81.981818
16.911760	-583.753846
19.519848	-315.244755
22.127210	-10.994406
24.729548	12.048252
27.335464	11.048951
29.936359	9.214685
32.538681	5.504196
35.135985	3.795105
37.736866	3.455944
40.332731	2.528671
42.930024	1.369930
45.526598	-1.920280
48.118163	-2.700699
50.711157	-2.066434
53.301289	-0.634266
55.892848	-0.581119
58.481549	0.421678
61.071676	2.875524
63.656804	2.520979
66.243360	3.729371
68.829201	4.750350
71.412189	8.746154
73.996604	6.701399
76.573889	4.941958
79.154741	3.972727
81.732744	2.269930
84.310037	1.421678
86.888757	1.055944
89.462494	1.203497
92.037658	0.674126
94.609979	2.251748
97.181593	2.752448
99.750366	3.624476
102.320566	9.632867
104.887927	9.189510
107.456715	12.621678
110.022666	13.801399
112.585782	15.767832
115.152454	20.021678
117.709904	26.562238
120.273040	33.325175
122.831217	45.238462
125.392948	66.394406
127.949722	99.416084
130.507922	152.614685
133.061170	229.575524
135.613720	323.618881
138.169820	434.759441
140.720972	550.995105
143.271427	665.874126
145.821184	769.549650
148.368122	848.787413
150.914365	907.638462
153.462033	940.186014
156.009005	954.927273
158.551041	959.650350
161.092385	956.776224
163.633035	952.701399
166.175110	949.053147
168.714375	947.475524
171.250830	946.500000
173.786595	942.933566
176.323785	939.204196
178.860284	926.372727
181.393977	921.704196
183.924866	910.238462
186.455067	906.821678
188.986694	904.916084
191.515519	900.884615
194.041545	902.086713
196.566885	902.347552
199.093650	906.846154
201.617619	904.409091
204.140902	901.225175
206.663501	901.895105
209.183307	896.628671
211.702430	901.290210
214.220870	907.423776
216.740735	920.323776
219.253597	932.655944
221.769991	944.501399
224.285704	957.470629
226.796526	970.867832
229.308773	984.876923
231.818237	989.320979
234.327023	997.611888
236.835131	1003.358741
239.344663	1004.709091
241.849314	1007.926573
244.353289	1007.366434
246.858688	1006.548951
249.359212	1000.998601
251.863259	995.078322
254.360336	987.632168
256.860935	983.092308
259.358763	976.728671
261.855918	971.230070
264.352401	975.024476
266.844020	980.020979
269.339159	984.929371
271.831531	992.430070
274.323233	999.685315
276.812172	1007.790210
279.302534	1014.051049
281.790135	1017.546853
284.274976	1025.212587
286.763332	1032.101399
289.244748	1046.206294
291.729678	1070.365035
294.209762	1097.391608
296.693359	1122.353147
299.172114	1137.131469
301.652291	1152.276923
304.129717	1152.167832
306.606479	1141.879021
309.082577	1128.065734
311.555927	1108.992308
314.028616	1094.256643
316.500643	1074.966434
318.972008	1063.820979
321.440630	1050.681818
323.908592	1034.680420
326.377977	1016.462238
328.842539	996.175524
331.310605	976.373427
333.773850	950.030070
336.236439	930.976923
338.698371	917.051049
341.159646	902.736364
343.618186	890.082517
346.078149	877.729371
348.535380	864.362238
350.991956	851.939161
353.447878	841.360140
355.901070	831.269231
358.355685	823.296503
360.805498	812.439161
363.258807	801.253846
365.707317	794.335664
368.155177	784.776923
370.604459	770.094406
373.048946	762.206993
375.494856	753.523776
377.940117	743.615385
380.382659	736.776224
382.824553	730.639860
385.265799	726.678322
387.704331	722.504196
390.144283	717.109790
392.581522	710.640559
395.016049	707.926573
397.454064	706.146853
399.887303	702.116783
402.321962	699.258741
404.751849	693.039161
407.185221	690.300000
409.613823	681.609790
412.041783	676.963636
414.471164	666.946853
416.895781	662.218881
419.321818	658.715385
421.747216	652.145455
424.171973	649.397902
426.591971	648.060839
429.013391	642.006294
431.432114	632.450350
433.852258	624.922378
436.269707	617.030070
438.688577	603.680420
441.104752	593.895105
443.516181	576.448252
445.931086	565.832867
448.343301	553.646853
450.754882	536.953846
453.165830	521.128671
455.574090	507.153846
457.981719	493.680420
460.388715	482.021678
462.795080	473.281818
465.198762	472.084615
467.601814	473.418182
470.004236	476.868531
472.406028	479.213986
474.805142	485.676224
477.205676	495.883217
479.605581	503.192308
482.000764	516.040559
484.399412	527.674126
486.793341	542.179720
489.186644	558.137762
491.579322	583.260140
493.971373	623.436364
496.364844	688.004895
498.753602	801.645455
501.139694	1035.384615
503.527206	1489.669930
505.914095	2271.918881
508.298319	3320.541259
510.683963	4511.643357
513.066945	5637.707692
515.447265	6546.384615
517.829006	7126.347552
520.208087	7307.409790
522.588586	7076.706294
524.966429	6475.149650
527.341615	5609.548252
529.716184	4654.327273
532.092172	3798.675524
534.465507	3169.125874
536.840259	2732.293706
539.210325	2441.038462
541.579777	2210.871329
543.950646	2030.009091
546.316834	1877.608392
548.684441	1740.512587
551.049402	1631.889510
553.413751	1539.403497
555.777486	1463.316084
558.142639	1402.562238
560.503120	1348.720979
562.865018	1298.560140
565.224277	1250.950350
567.580897	1206.902797
569.940963	1166.738462
572.294337	1131.150350
574.651156	1095.972727
577.005340	1062.191608
579.358915	1032.004895
581.711883	996.613287
584.062218	967.978322
586.413971	940.202098
588.759047	909.350350
591.109586	883.608392
593.453453	857.697203
595.802781	836.800000
598.147460	826.176224
600.489515	819.018182
602.832987	825.019580
605.173836	837.591608
607.514082	859.138462
609.851708	882.241259
612.192769	908.409091
614.529193	921.173427
616.867033	929.597203
619.202256	926.848252
621.534862	909.572028
623.868886	885.732168
626.200295	858.137762
628.531106	827.284615
630.861319	804.765734
633.190935	788.720979
635.515927	782.074126
637.846361	775.425874
640.172174	768.672028
642.495379	760.311888
644.820001	753.362937
647.142017	740.744056
649.463439	728.458042
651.782258	717.027972
654.102494	707.993706
656.422135	699.901399
658.739177	695.056643
661.055626	688.187413
663.369477	689.018182
665.684744	688.799301
667.997414	689.633566
670.311499	689.937762
672.620984	690.602098
674.931885	686.276923
677.240192	681.673427
679.547912	672.787413
681.857047	661.493007
684.161589	648.757343
686.465545	632.325874
688.768914	618.197902
691.073699	610.158741
693.373896	596.852448
695.675509	588.968531
697.976536	582.002797
700.272982	576.186014
702.570843	570.734266
704.868120	565.454545
707.164814	560.388112
709.456932	555.795804
711.752460	553.215385
714.043416	549.980420
716.335786	551.297203
718.625580	551.193706
720.914795	548.213986
723.203430	549.273427
725.489492	546.336364
727.776968	542.235664
730.061874	537.650350
732.346202	532.328671
734.627961	527.824476
736.911134	521.688811
739.193730	516.645455
741.471770	511.420280
743.751224	509.612587
746.030103	506.876224
748.308407	504.597203
750.582160	505.569231
752.857328	504.232168
755.131922	507.388112
757.403957	506.833566
759.677405	505.562937
761.948295	506.624476
764.216629	511.811189
766.486376	514.993007
768.753568	514.783217
771.020191	521.901399
773.286243	522.406294
775.549744	522.961538
777.814657	526.345455
780.079002	525.316084
782.338816	528.675524
784.600044	522.369930
786.860704	517.858741
789.118818	520.170629
791.374387	522.244056
793.633346	518.577622
795.885807	519.223077
798.143635	522.762238
800.396944	522.178322
802.647712	525.654545
804.899894	527.135664
807.149536	522.718182
809.400590	526.337063
811.647133	522.700000
813.895089	522.260839
816.140509	523.278322
818.387342	518.302098
820.633612	514.623776
822.875379	508.679720
825.120528	499.422378
827.359206	496.794406
829.601265	493.152448
831.838826	491.541259
834.077799	481.780420
836.314245	483.548951
838.552102	477.659441
840.787434	481.171329
843.020242	491.272028
845.254462	493.226573
847.486160	496.358042
849.717303	496.793007
851.947891	492.195804
854.177925	493.074825
856.407404	494.856643
858.632403	497.038462
860.860775	488.826573
863.084669	481.238462
865.309974	469.308392
867.530803	468.562238
869.755004	468.806993
871.974732	465.823077
874.195870	467.962937
876.416458	470.477622
878.634537	469.421678
880.854025	474.599301
883.069047	481.569930
885.283521	479.275524
887.497448	477.311888
889.710827	472.176224
891.923660	467.004895
894.135945	461.521678
896.345729	450.865734
898.554967	451.204196
900.763660	457.188112
902.969853	454.190210
905.177456	459.881119
907.382562	465.615385
909.587124	467.253147
911.789191	467.706993
913.992667	475.579720
916.193649	484.104196
918.394089	500.672727
920.595938	527.481818
922.791396	557.703497
924.990212	610.100699
927.184591	675.486014
929.382327	745.158741
931.575627	839.042657
933.770336	927.383217
935.962558	1003.875524
938.154243	1072.278322
940.345390	1115.886713
942.534054	1148.102797
944.722181	1165.923776
946.907828	1172.844755
949.096828	1163.622378
951.281403	1162.691608
953.465444	1158.466434
955.652836	1159.265734
957.831923	1167.400699
960.014361	1170.559441
962.196264	1183.951049
964.375694	1194.660140
966.552651	1201.401399
968.731016	1207.037063
970.910788	1210.156643
973.084210	1217.259441
975.260980	1215.795105
977.433342	1210.846154
979.607112	1180.506294
981.776478	1139.457343
983.949188	1084.806993
986.119433	1012.517483
988.289148	957.607692
990.458335	887.089510
992.623125	829.117483
994.791257	756.911189
996.954993	703.349650
999.120137	673.032867
1001.282821	639.170629
1003.444980	614.533566
1005.604682	610.060839
1007.763859	593.376224
1009.924443	575.634266
1012.082572	560.932867
1014.240178	557.737762
1016.397259	547.264336
1018.553818	534.119580
1020.705997	517.197203
1022.859583	490.462238
1025.012647	474.347552
1027.163262	451.092308
1029.315283	435.612587
1031.462932	438.371329
1033.613912	427.705594
1035.760521	433.846154
1037.906611	421.934965
1040.052183	424.195105
1042.199160	414.093007
1044.339848	411.178322
1046.483865	429.005594
1048.625443	438.006993
1050.766503	464.537063
1052.908969	485.883217
1055.045154	494.708392
1057.184666	502.796503
1059.319822	508.639161
1061.458303	496.465734
1063.592431	478.013986
1065.726045	471.507692
1067.861063	441.731469
1069.991732	434.457343
1072.123807	437.602098
1074.253451	434.266434
1076.382584	430.293706
1078.511206	418.658042
1080.639316	390.310490
1082.765000	366.484615
1084.890174	354.318182
1087.016752	339.353147
1089.138992	351.289510
1091.262637	352.883217
1093.381947	366.251748
1095.506486	383.422378
1097.624781	392.395804
1099.744479	395.683916
1101.861760	403.160839
1103.978533	407.461538
1106.094800	394.103497
1108.208652	397.741259
1110.323907	398.377622
1112.434840	401.449650
1114.549085	400.476224
1116.659009	399.427273
1118.770336	397.710490
1120.881160	394.860140
1122.987667	382.741958
1125.097483	374.702797
1127.202985	371.486713
1129.309891	367.075524
1131.410581	348.824476
1133.516483	349.093706
1135.618076	335.012587
1137.721071	336.750350
1139.823567	332.886713
1141.919855	335.297203
1144.021350	338.267133
1146.118543	340.209091
1148.215237	356.014685
1150.311434	364.718182
1152.407132	374.308392
1154.502333	367.853846
1156.595137	369.986713
1158.689343	370.411189
1160.777358	355.683916
1162.870571	346.032168
1164.957596	343.241958
1167.047921	331.132867
1169.133957	331.796503
1171.223291	328.034965
1173.306444	341.438462
1175.391000	338.597203
1177.476957	331.999301
1179.558632	326.351748
1181.641708	338.413287
1183.722399	337.672028
1185.802599	345.090210
1187.882307	342.749650
1189.961524	345.307692
1192.038358	340.981818
1194.112812	341.800699
1196.190558	338.802797
1198.264033	333.653846
1200.338910	324.950350
1202.409519	314.353147
1204.481529	313.181818
1206.551163	314.114685
1208.622198	309.413986
1210.692745	308.825874
1212.759032	305.223077
1214.826719	307.330070
1216.892033	308.687413
1218.958748	307.867133
1221.021207	304.755245
1223.086952	305.123077
1225.148442	302.300000
1227.211332	310.054545
1229.271855	315.641259
1231.331895	313.046853
1233.391451	300.553846
1235.448643	303.044755
1237.505352	303.632168
1239.559699	305.823776
1241.617326	303.540559
1243.672591	302.567832
1245.723615	304.913986
1247.776040	302.972028
1249.827984	299.109091
1251.877570	308.672727
1253.926677	308.330070
1255.975305	313.606993
1258.023455	319.648951
1260.071127	329.263636
1262.114568	330.578322
1264.161285	333.420979
1266.205648	334.893007
1268.249534	330.107692
1270.291070	338.341259
1272.330256	332.133566
1274.372715	320.822378
1276.410951	332.904196
1278.450586	329.073427
1280.489745	337.158042
1282.524687	336.106294
1284.561027	335.155944
1286.595022	328.930070
1288.630416	323.983916
1290.661596	311.590210
1292.694175	302.089510
1294.726282	301.041259
1296.756048	293.885315
1298.787211	288.713986
1300.814167	299.623077
1302.842522	293.537762
1304.866671	293.570629
1306.894086	298.818182
1308.917298	302.955944
1310.941908	295.465035
1312.964183	297.527273
1314.987856	286.112587
1317.009196	289.193706
1319.030069	292.555944
1321.050474	301.096503
1323.066686	310.771329
1325.084295	310.768531
1327.099576	310.668531
1329.118116	313.004895
1331.132466	314.816084
1333.144491	312.843357
1335.159774	306.297902
1337.170871	301.579720
1339.183364	298.416084
1341.191675	299.576923
1343.203242	303.288112
1345.208770	309.947552
1347.217553	308.679720
1349.222158	303.510490
1351.230017	315.956643
1353.237414	321.148951
1355.238780	315.858741
1357.241542	317.102797
1359.243845	317.086014
1361.245688	315.147552
1363.247071	316.869930
1365.246140	312.668531
1367.244751	305.182517
1369.242904	296.965734
1371.240599	284.799301
1373.234131	283.088811
1375.229058	289.279021
1377.223529	280.476224
1379.217543	275.271329
1381.209250	274.470629
1383.200501	274.934266
1385.189447	276.795804
1387.179788	275.597203
1389.169675	276.515385
1391.157257	270.524476
1393.144386	269.129371
1395.129213	269.604196
1397.115435	272.167832
1399.099356	271.383916
1401.082825	271.341259
1403.065842	276.134965
1405.046561	275.808392
1407.028674	276.478322
1409.008490	272.380420
1410.987856	268.736364
1412.963083	266.348252
1414.941548	263.268531
1416.917720	264.800699
1418.893442	260.581119
1420.868715	264.494406
1422.841698	266.636364
1424.814232	261.621678
1426.786318	255.924476
1428.757957	249.350350
1430.725467	249.261538
1432.698051	245.806993
1434.662829	243.883217
1436.632680	247.260140
1438.598406	258.479720
1440.565526	263.427273
1442.530362	268.326573
1444.491078	274.872028
1446.456862	277.092308
1448.416691	275.594406
1450.377914	274.680420
1452.340528	273.503497
1454.299028	273.504895
1456.257086	268.541958
1458.214701	259.597902
1460.171875	261.098601
1462.126773	260.738462
1464.083064	256.679720
1466.037080	255.393007
1467.990655	260.035664
1469.941958	269.883916
1471.894653	274.341259
1473.845077	276.074126
1475.795062	279.207692
1477.744608	275.783916
1479.691885	274.589510
1481.636894	269.737762
1483.583296	268.943357
1485.529260	265.027972
1487.474787	259.432168
1489.418048	252.819580
1491.360873	254.215385
1493.301435	247.709790
1495.243389	238.230070
1497.183080	237.530769
1499.122336	239.281818
1501.061158	234.591608
1502.997720	237.395804
1504.935673	242.057343
1506.871367	242.573427
1508.806628	241.495105
1510.739632	243.511888
1512.672204	243.079021
1514.604344	248.737762
1516.536052	253.198601
1518.465507	255.165035
1520.396352	267.469930
1522.326765	282.481119
1524.253106	293.102797
1526.180837	304.221678
1528.106319	309.516084
1530.031371	305.657343
1531.955993	301.808392
1533.880187	302.154545
1535.802134	288.895105
1537.725471	276.819580
1539.646561	269.651748
1541.565407	258.923776
1543.485643	263.412587
1545.403635	276.760839
1547.321201	286.016783
1549.236526	296.989510
1551.153240	312.098601
1553.065898	326.148951
1554.981761	339.193007
1556.895385	357.453147
1558.806770	363.792308
1560.719545	375.324476
1562.628270	396.717483
1564.538384	413.319580
1566.448075	439.648951
1568.357343	476.215385
1570.264376	501.516783
1572.169177	535.979021
1574.075367	596.144056
1575.979326	673.450350
1577.882863	746.197902
1579.785980	818.155944
1581.686867	863.538462
1583.589143	888.344056
1585.489190	886.989510
1587.390626	873.274825
1589.288027	821.967832
1591.185011	759.060140
1593.081576	665.430769
1594.979528	580.353846
1596.871646	517.369231
1598.766958	462.111888
1600.661851	411.590909
1602.554524	372.512587
1604.446779	332.042657
1606.336815	305.831469
1608.226435	287.407692
1610.115640	281.670629
1612.004429	266.588112
1613.891002	280.486014
1615.778962	270.123776
1617.662905	269.808392
1619.548235	268.921678
1621.433152	268.465734
1623.315855	282.284615
1625.199945	277.683916
1627.080023	277.116783
1628.961488	274.390210
1630.840743	261.747552
1632.721385	249.924476
1634.596222	242.230769
1636.476040	250.814685
1638.351853	244.479021
1640.227257	248.171329
1642.104046	250.215385
1643.975038	266.720280
1645.849213	276.984615
1647.719388	264.769930
1649.592744	271.298601
1651.463897	270.548951
1653.332848	270.358741
1655.203185	255.109790
1657.069528	240.130769
1658.937258	240.653147
1660.802788	229.123077
1662.669704	213.514685
1664.532630	201.590210
1666.396943	202.614685
1668.259059	201.605594
1670.120770	201.858741
1671.983866	206.058741
1673.844768	209.549650
1675.703477	208.206294
1677.561782	197.403497
1679.421471	196.065734
1681.275394	220.137063
1683.132490	208.086713
1684.989182	209.520280
1686.841899	218.916084
1688.697787	240.558042
1690.549701	243.022378
1692.401214	238.082517
1694.252326	224.220280
1696.103037	230.474825
1697.953348	213.481818
1699.801475	217.990210
1701.650986	217.162238
1703.494747	214.225175
1705.343459	204.625874
1707.186424	228.763636
1709.032555	244.989510
1710.874725	265.940559
1712.720059	260.941259
1714.559653	262.560140
1716.400632	270.138462
1718.242993	271.509091
1720.081397	244.578322
1721.921185	222.932867
1723.758798	196.053147
1725.596016	175.351748
1727.431060	169.406294
1729.267487	163.400699
1731.101741	149.589510
1732.935602	165.225874
1734.769068	171.082517
1736.598588	182.123077
1738.431267	179.441958
1740.260002	182.123077
1742.091895	175.622378
1743.919845	154.511888
1745.747403	158.493706
1747.574570	155.887413
1749.401345	129.948252
1751.227728	114.754545
1753.050175	112.279021
1754.875777	140.232867
1756.697443	135.525874
1758.520492	138.069231
1760.341380	139.332168
1762.161878	160.402098
1763.983758	173.406294
1765.799938	185.884615
1767.619270	209.318881
1769.434675	207.809790
1771.253231	191.161538
1773.067861	205.392308
1774.882104	225.109091
1776.695961	236.637762
1778.509431	223.479720
1780.320747	233.086014
1782.133445	236.395105
1783.945756	229.044056
1785.754150	227.967133
1787.563925	214.497902
1789.369784	204.614685
1791.178790	174.139860
1792.983882	162.662238
1794.790355	170.716084
1796.596443	160.875524
1798.398622	168.350350
1800.203944	182.606294
1802.005358	201.530070
1803.808153	209.795105
1805.607041	219.964336
1807.407310	221.837762
1809.207197	216.104895
1811.004942	227.190909
1812.802307	212.118881
1814.599291	222.091608
1816.395895	221.626573
1818.190360	226.681119
1819.986205	233.363636
1821.776394	242.069930
1823.571480	235.241958
1825.360913	241.547552
1827.153484	246.956643
1828.943919	242.007692
1830.732219	238.441958
1832.523655	242.967832
1834.309446	229.967832
1836.096615	240.062238
1837.881654	242.098601
1839.669825	241.886713
1841.454111	227.948951
1843.236268	226.274825
1845.019804	213.111189
1846.801211	220.918182
1848.583996	217.220979
1850.362902	213.231469
1852.143186	204.939161
1853.921345	217.352448
1855.700881	205.127273
1857.478293	193.360140
1859.253582	189.148252
1861.030248	180.779720
1862.804792	188.558741
1864.580713	204.827972
1866.351015	214.203497
1868.124444	219.704895
1869.895753	238.292308
1871.666691	241.972727
1873.439007	236.040559
1875.205709	251.307692
1876.975536	236.373427
1878.741500	216.213287
1880.510588	216.672028
1882.275814	209.723776
1884.040672	211.187413
1885.806906	200.560140
1887.569282	190.358042
1889.331291	187.007692
1891.092933	195.586713
1892.854207	182.813287
1894.615115	177.485315
1896.375655	187.367133
1898.134087	177.704196
1899.892152	169.984615
1901.648110	162.677622
1903.405444	156.389510
1905.162413	143.104196
1906.917275	140.387413
1908.670032	145.638462
1910.422426	142.067832
1912.176196	139.743357
1913.927862	145.649650
1915.677425	151.562238
1917.428365	167.411189
1919.178941	171.426573
1920.925679	174.352448
1922.673792	175.836364
1924.419806	190.344755
1926.167196	192.076923
1927.912487	193.135664
1929.655681	182.190909
1931.400251	170.994406
1933.142724	165.370629
1934.884837	162.473427
1936.626591	159.687413
1938.367984	166.455245
1940.107284	164.030070
1941.846225	166.161538
1943.584807	175.637762
1945.321298	185.395804
1947.057430	179.165734
1948.794938	169.887413
1950.528623	177.756643
1952.263683	172.309790
1953.996654	175.721678
1955.729269	179.244755
1957.461527	176.467133
1959.193429	176.066434
1960.923246	182.480420
1962.650977	182.760839
1964.380083	191.381119
1966.108833	197.536364
1967.835500	200.347552
1969.561813	203.385315
1971.289500	204.188112
1973.011650	189.522378
1974.736901	189.704895
1976.458345	182.998601
1978.182889	167.614685
1979.905354	161.609091
1981.624015	157.332867
1983.345775	150.844755
1985.063733	164.901399
1986.783065	171.958042
1988.498597	176.304196
1990.218949	183.449650
1991.935503	179.110490
1993.648260	177.557343
1995.364113	180.162238
1997.077894	173.969231
1998.791325	162.379021
2000.502685	157.399301
2002.215417	159.130769
2003.924358	158.792308
2005.636393	167.717483
2007.342918	164.216084
2009.052536	166.301399
2010.760086	180.244056
2012.467289	187.570629
2014.172426	182.738462
2015.877216	189.841259
2017.583379	183.453147
2019.285758	173.081818
2020.989510	173.369231
2022.691199	176.581119
2024.392542	178.693007
2026.093541	177.441958
2027.792478	173.915385
2029.492787	172.656643
2031.189320	176.971329
2032.887225	182.952448
2034.583072	175.154545
2036.282004	183.485315
2037.975450	169.184615
2039.670267	163.619580
2041.364741	170.397203
2043.055448	178.542657
2044.749237	188.466434
2046.439261	182.079021
2048.130654	190.167832
2049.819995	188.230769
2051.510707	189.222378
2053.197655	191.646853
2054.884263	188.396503
2056.572242	184.229371
2058.256461	169.436364
2059.942050	169.243357
2061.627300	165.940559
2063.310502	162.701399
2064.995074	156.597902
2066.674182	152.628671
2068.358077	160.420979
2070.036510	158.939860
2071.718021	153.665035
2073.395780	158.370629
2075.073203	159.427273
2076.751995	161.181818
2078.428744	162.041259
2080.103452	161.890210
2081.779530	166.983217
2083.453566	164.846154
2085.127267	162.407692
2086.800634	165.773427
2088.471961	168.637762
2090.142954	168.206993
2091.813613	160.495105
2093.483938	159.986713
2095.153929	160.538462
2096.821883	165.682517
2098.489505	163.945455
2100.155093	161.106294
2101.822049	161.020979
2103.486972	154.841259
2105.151563	148.833566
2106.814122	154.600000
2108.478049	154.315385
2110.139945	148.908392
2111.801510	136.876923
2113.462745	129.454545
2115.121950	132.613986
2116.780826	134.490210
2118.439371	136.011888
2120.097587	147.611189
2121.752080	149.900000
2123.409637	160.990909
2125.066864	162.171329
2126.720371	174.847552
2128.375245	176.842657
2130.026400	164.083916
2131.680618	161.136364
2133.331118	157.701399
2134.982986	152.693706
2136.629445	152.030070
2138.280658	153.646853
2139.928159	153.956643
2141.577026	151.200699
2143.223874	147.835664
2144.870397	143.946154
2146.516594	134.618182
2148.159082	125.617483
2149.804629	115.067133
2151.446469	127.503497
2153.091366	126.344056
2154.732558	123.639161
2156.373426	136.265035
2158.013971	149.456643
2159.652503	155.006294
2161.292401	166.662937
2162.928599	164.215385
2164.566163	165.932168
2166.203405	152.151049
2167.838637	145.881119
2169.473547	140.860839
2171.108136	141.322378
2172.742404	146.427273
2174.372978	148.990909
2176.006604	163.967133
2177.636537	173.719580
2179.267837	177.893007
2180.897131	180.572028
2182.526106	178.475524
2184.154761	168.948951
2185.783097	160.602797
2187.409430	158.434266
2189.035445	151.853147
2190.659459	148.564336
2192.284838	151.321678
2193.908216	151.050350
2195.532959	155.627972
2197.154021	163.233566
2198.774766	165.117483
2200.396875	160.586713
2202.016987	160.116783
2203.635103	150.291608
2205.252903	149.832867
2206.870387	153.618182
2208.487556	142.888112
2210.104410	134.748951
2211.720949	139.590909
2213.335494	151.669231
2214.948048	159.610490
2216.561965	169.029371
2218.173891	169.593007
2219.787180	174.941958
2221.398478	176.214685
2223.007788	175.889510
2224.618460	163.681119
2226.227144	150.401399
2227.835516	138.885315
2229.441901	139.239860
2231.049648	141.330070
2232.655410	142.981119
2234.260860	144.376923
2235.864325	144.166434
2237.469153	153.590210
2239.071997	157.497902
2240.672858	168.301399
2242.275082	180.903497
2243.875324	181.400000
2245.476928	183.739161
2247.074879	193.646154
2248.674193	185.853147
2250.271527	171.493007
2251.868553	158.812587
2253.466940	142.944056
2255.061680	131.658042
2256.654442	114.268531
2258.248567	101.034266
2259.844053	114.728671
2261.435894	132.756643
2263.027429	150.347552
2264.620325	148.311888
2266.207912	162.726573
2267.800196	168.307692
2269.387172	178.667832
2270.977177	188.753147
2272.561877	183.404196
2274.151271	190.335664
2275.735362	188.854545
2277.320815	197.474825
2278.904299	200.337762
2280.490808	206.209091
2282.073684	204.505594
2283.656257	181.096154
2285.238526	171.174126
2286.817165	157.185664
2288.398829	140.350350
2289.976864	130.553497
2291.557922	109.744755
2293.135353	114.042308
2294.710821	118.570629
2296.289311	127.129720
2297.864177	139.127972
2299.438742	148.456993
2301.013006	159.872727
2302.586970	160.231119
2304.160634	154.039161
2305.733998	142.403497
2307.303742	133.404895
2308.873189	137.528671
2310.445653	136.169231
2312.012843	131.044755
2313.583050	123.468531
2315.149644	120.697902
2316.717596	115.739161
2318.283594	114.105594
2319.849294	114.820280
2321.414696	117.348951
2322.978145	118.301399
2324.542953	117.060839
2326.104152	132.982517
2327.668366	158.188811
2329.227319	170.411189
2330.789285	163.691608
2332.349301	165.994406
2333.909021	164.076923
2335.466792	169.279720
2337.024269	184.696503
2338.581451	186.738462
2340.136685	185.935664
2341.691625	199.546853
2343.246272	211.185315
2344.800625	213.788811
2346.354684	214.553846
2347.908450	194.894406
2349.460271	170.734965
2351.010149	159.874126
2352.563036	173.337063
2354.110679	182.430769
2355.661330	181.775524
2357.208391	191.241259
2358.756809	187.481818
2360.304935	193.800699
2361.849474	200.902098
2363.395370	201.731469
2364.939327	191.108392
2366.484642	189.069231
2368.026372	186.658042
2369.569460	173.495105
2371.110611	198.395105
2372.651473	186.765734
2374.192046	179.179720
2375.732330	165.330769
2377.272325	165.271329
2378.808741	154.953147
2380.348159	165.891608
2381.884000	179.698601
2383.421198	162.429371
2384.954820	153.351748
2386.491442	144.721678
2388.026134	133.311888
2389.558895	146.660140
2391.091371	150.616783
2392.621918	151.433566
2394.155463	146.319580
2395.683797	156.036364
2397.213487	141.669930
2398.742892	167.200699
2400.272012	159.793007
2401.800846	128.166434
2403.324476	119.197203
2404.852741	123.867832
2406.375803	132.816084
2407.903500	135.200000
2409.424357	158.908392
2410.949846	148.444755
2412.471776	150.445455
2413.995060	143.733566
2415.516424	139.186014
2417.035868	155.700699
2418.556667	154.239860
2420.075547	160.534266
2421.594146	162.265035
2423.110826	146.924476
2424.628862	150.389510
2426.146616	154.948951
2427.660818	160.239161
2429.174741	148.926573
2430.688383	162.255245
2432.203379	166.023077
2433.714828	161.245455
2435.227630	162.095804
2436.738520	179.658741
2438.249131	171.082517
2439.757830	161.233566
2441.269515	137.185315
2442.777657	150.476224
2444.285521	167.725874
2445.793106	178.323077
2447.297152	196.502797
2448.804182	225.237063
2450.309304	226.869930
2451.814149	224.477622
2453.317087	221.877622
2454.819748	250.793007
2456.322134	234.197203
2457.822613	222.965035
2459.324447	180.913986
2460.824375	181.575524
2462.324028	177.234266
2463.823406	178.832867
2465.320881	178.489510
2466.816454	190.389510
2468.315007	175.305594
2469.810032	196.165035
2471.306409	205.598601
2472.799260	235.993007
2474.293464	224.190210
2475.787394	210.380420
2477.277800	200.020280
2478.771184	204.678322
2480.262670	185.158741
2481.752259	185.046154
2483.241576	169.488811
2484.728997	168.074825
2486.219394	146.951748
2487.706273	160.287413
2489.194503	146.075524
2490.679216	147.198601
2492.163659	156.688112
2493.649454	154.204196
2495.133357	170.781818
2496.618610	164.582517
2498.098730	149.334266
2499.581822	165.929371
2501.063025	162.244056
2502.543958	164.686014
2504.023001	150.952448
2505.501777	153.234965
2506.980284	139.691608
2508.458522	143.265035
2509.936493	151.697902
2511.410958	149.004895
2512.888393	154.325874
2514.362323	142.334266
2515.837605	137.211189
2517.312619	144.386713
2518.784132	143.773427
2520.256996	153.375524
2521.727977	157.527273
2523.200308	144.741259
2524.667525	119.997203
2526.137709	123.227273
2527.606012	134.024476
2529.074049	131.099301
2530.541822	109.837063
2532.009330	95.437762
2533.476574	93.755944
2534.940325	94.255944
2536.405426	127.772028
2537.868650	145.448951
2539.333223	152.119580
2540.794308	156.331469
2542.256742	154.701399
2543.718913	182.641259
2545.177597	187.292308
2546.640854	166.171329
2548.099014	138.911888
2549.558523	129.331469
2551.012939	131.214685
2552.471925	124.053147
2553.929039	138.658741
2555.384281	125.761538
2556.839263	119.446154
2558.292375	134.945455
2559.746836	139.962238
2561.199428	149.558741
2562.651760	152.831469
2564.102224	158.321678
2565.555645	168.951049
2567.003983	177.869930
2568.455276	193.518182
2569.904703	180.577622
2571.350659	158.201399
2572.799569	139.992308
2574.245008	127.053147
2575.691796	114.146154
2577.136720	110.466434
2578.581387	109.476224
2580.027401	114.090909
2581.469948	121.237063
2582.913843	133.663636
2584.354273	135.786713
2585.796051	141.652448
2587.235969	130.760140
2588.677234	117.674825
2590.115037	118.541958
2591.555790	139.411189
2592.991481	159.756643
2594.430120	173.202797
2595.866903	172.167133
2597.301830	179.566434
2598.739704	182.193007
2600.172521	167.548252
2601.606685	161.897203
2603.038994	169.673427
2604.472651	157.537762
2605.904453	148.372727
2607.336003	152.865734
2608.767299	174.038462
2610.196744	188.623776
2611.625936	196.820979
2613.053277	197.851049
2614.481965	201.341958
2615.910400	213.881119
2617.335389	204.565734
2618.761723	206.979720
2620.186210	214.544755
2621.612041	202.537762
2623.034430	196.970629
2624.458163	214.102098
2625.880051	229.191608
2627.301688	237.580420
2628.721481	251.042657
2630.142619	242.039860
2631.563507	238.875524
2632.980956	253.616783
2634.401345	239.006993
2635.818297	248.159441
2637.235001	250.512587
2638.651456	253.780420
2640.067663	271.476224
2641.483622	305.349650
2642.897740	338.077622
2644.311610	351.217483
2645.723641	374.351049
2647.137017	387.306993
2648.546963	395.823077
2649.959845	419.825874
2651.369298	449.857343
2652.778505	482.174126
2654.185876	485.413986
2655.596181	488.627972
2657.004650	519.408392
2658.411284	546.776923
2659.817673	597.974825
2661.222229	631.313287
2662.628128	678.982517
2664.032193	700.111888
2665.436015	739.906294
2666.839592	774.625874
2668.241338	817.450350
2669.644427	849.086014
2671.044098	859.935664
2672.445113	875.791608
2673.842712	908.483916
2675.243240	932.706993
2676.640354	955.112587
2678.038811	953.129371
2679.435440	945.355944
2680.831828	904.648951
2682.227973	880.516084
2683.622292	829.519580
2685.017954	798.580420
2686.410207	756.452448
2687.803802	711.809790
2689.195573	679.053147
2690.588687	656.483217
2691.979976	616.955944
2693.369444	574.357343
2694.758671	545.865035
2696.147658	525.965734
2697.537988	488.452448
2698.923334	467.245455
2700.311603	430.682517
2701.698052	402.805594
2703.084262	367.351748
2704.470233	336.619580
2705.852806	307.148252
2707.236721	278.742657
2708.620397	249.327273
2710.003836	235.743357
2711.383879	235.924476
2712.765264	249.675524
2714.144833	240.607692
2715.525744	250.597902
2716.904840	264.544056
2718.282122	277.590210
2719.660745	282.364336
2721.037554	270.404895
2722.414128	260.097902
2723.790466	240.488112
2725.164992	232.298601
2726.540859	202.175524
2727.913339	181.035664
2729.288736	167.162937
2730.659172	148.770629
2732.030948	144.566434
2733.402491	154.120979
2734.772225	148.097203
2736.143299	134.353147
2737.512566	120.834965
2738.881599	110.470629
2740.248826	98.009790
2741.615819	91.890210
2742.982580	83.902797
2744.349108	90.298601
2745.713832	106.327273
2747.078323	132.402098
2748.442582	157.289510
2749.806610	173.597902
2751.170405	184.083916
2752.530828	179.768531
2753.894160	161.640559
2755.252550	139.355944
2756.613850	119.027972
2757.971780	103.332867
2759.332618	92.255245
2760.691656	106.261538
2762.047326	119.367832
2763.405905	129.084615
2764.761116	130.647552
2766.116098	124.935664
2767.469283	134.469930
2768.825375	130.301399
2770.178103	122.285315
2771.530602	116.489510
2772.882874	121.018881
2774.236483	131.348252
2775.586731	146.962238
2776.935186	164.944755
2778.286545	146.840559
2779.634545	129.967832
2780.983884	123.419580
2782.331430	116.514685
2783.678750	105.924476
2785.025842	108.546853
2786.371144	101.300699
2787.716220	85.495804
2789.061070	93.353147
2790.405694	103.009091
2791.746965	115.553147
2793.089575	118.602098
2794.431960	111.473427
2795.774119	115.502797
2797.112929	124.664336
2798.454639	124.158042
2799.793000	121.672028
2801.132699	137.576923
2802.470612	141.411888
2803.806741	145.884615
2805.142647	135.767133
2806.479889	147.932168
2807.815348	162.452448
2809.150584	178.392308
2810.484038	175.489510
2811.818828	172.220280
2813.150277	168.835664
2814.484622	166.807692
2815.814069	157.746154
2817.144853	157.769231
2818.475415	147.076923
2819.804198	125.588811
2821.134318	108.178322
2822.462659	103.255245
2823.790778	102.972727
2825.117121	106.449650
2826.444799	105.630769
2827.769145	112.634965
2829.094827	123.758741
2830.418733	133.436364
2831.742419	130.597203
2833.067441	135.252448
2834.389134	126.364336
2835.710608	121.463636
2837.031862	123.304196
2838.352898	104.445455
2839.672162	107.780420
2840.992761	98.116783
2842.311588	97.641259
2843.630197	107.760839
2844.947036	109.520979
2846.263657	128.099301
2847.580061	129.995804
2848.894695	152.730070
2850.210664	157.134266
2851.523314	159.363636
2852.837298	141.071329
2854.151066	146.890210
2855.464617	136.187413
2856.776402	109.668531
2858.086420	101.097203
2859.397773	88.136364
2860.705811	82.523776
2862.015183	82.090210
2863.324340	80.977622
2864.633282	82.909091
2865.940461	72.137762
2867.245876	67.059441
2868.552626	46.437762
2869.857614	51.132168
2871.162387	45.251049
2872.465400	39.893007
2873.771293	53.708392
2875.072332	78.587413
2876.374704	112.548951
2877.675318	132.395804
2878.977264	137.080420
2880.278998	141.336364
2881.577428	132.616084
2882.877191	116.123077
2884.175197	96.455245
2885.472991	81.276224
2886.769028	81.031469
2888.066399	63.741259
2889.362015	78.707692
2890.657419	96.641259
2891.952612	127.299301
2893.244508	152.646154
2894.539279	160.655245
2895.830755	178.742657
2897.123563	162.985315
2898.416161	154.561538
2899.705464	141.979720
2900.996101	131.650350
2902.284986	125.569930
2903.575203	113.027972
2904.862129	115.221678
2906.150387	116.408392
2907.436896	136.517483
2908.723196	137.395105
2910.009288	142.517483
2911.293632	140.723077
2912.580848	128.686014
2913.863237	121.476224
2915.146958	107.274126
2916.428932	100.660140
2917.710700	78.163636
2918.990722	60.662238
2920.273614	56.414685
2921.554761	54.367133
2922.832626	58.527972
2924.113360	63.513986
2925.390813	63.776224
2926.668061	66.266434
2927.943566	79.745455
2929.221939	93.566434
2930.495498	91.448252
2931.771924	98.973427
2933.046608	93.005594
2934.319553	77.773427
2935.593829	99.459441
2936.866364	96.344755
2938.138696	99.340559
2939.407755	104.923776
2940.679679	99.090210
2941.949865	106.576224
2943.219847	106.255245
2944.489626	96.660140
2945.757668	98.432168
2947.023975	120.229371
2948.290079	108.320280
2949.557514	97.679720
2950.823213	133.357343
2952.088710	124.048252
2953.354006	126.160839
2954.616036	133.783916
2955.879396	123.731469
2957.142555	123.165734
2958.403981	111.550350
2959.666738	92.662238
2960.927762	93.462238
2962.187056	86.384615
2963.446149	77.648951
2964.705042	91.184615
2965.963735	117.457343
2967.222228	117.631469
2968.478992	106.676224
2969.735557	120.255944
2970.990393	105.637063
2972.246559	120.213986
2973.499470	123.508392
2974.753709	105.834965
2976.007750	109.887413
2977.260065	101.286014
2978.512182	102.467133
2979.762574	98.626573
2981.015821	104.872028
2982.264291	101.546154
2983.515616	98.805594
2984.763691	103.860140
2986.011569	101.546154
2987.259251	116.832168
2988.506735	120.052448
2989.752498	107.686713
2990.998064	110.760839
2992.244959	107.104895
2993.488609	105.106993
2994.733586	86.797203
2995.975321	83.441958
2997.219907	84.908392
2998.462774	81.644056
2999.702400	81.062937
3000.944876	95.958042
3002.184112	111.904895
3003.424676	117.229371
3004.663523	117.104196
3005.902176	135.913986
3007.139113	151.218182
3008.377378	149.350350
3009.613927	133.145455
3010.850283	129.337762
3012.086445	131.742657
3013.320893	113.658042
3014.555148	117.546154
3015.789210	102.613986
3017.021560	109.146853
3018.252198	100.872028
3019.485682	107.402797
3020.717455	125.699301
3021.947516	104.755944
3023.177386	92.961538
3024.405546	101.568531
3025.635033	101.504895
3026.862810	94.381119
3028.090396	86.661538
3029.319308	97.153846
3030.543478	87.781119
3031.770491	98.888112
3032.994281	107.033566
3034.219396	119.506993
3035.442806	120.680420
3036.666025	104.910490
3037.887539	109.339860
3039.111894	120.135664
3040.331514	102.669930
3041.552460	89.445455
3042.773216	84.267832
3043.992270	88.773427
3045.212648	101.613287
3046.429810	95.645455
3047.648297	100.743357
3048.865083	103.231469
3050.081680	102.713287
3051.298090	109.462937
3052.511286	109.258741
3053.727320	109.698601
3054.940142	87.777622
3056.155801	75.371329
3057.366737	67.666434
3058.578999	74.130769
3059.791073	88.437063
3061.002961	66.283217
3062.213152	74.229371
3063.423156	73.687413
3064.632974	70.104895
3065.841096	75.131469
3067.049033	86.072028
3068.255274	91.149650
3069.462840	82.774825
3070.668711	90.688811
3071.874397	99.369930
3073.079899	106.565734
3074.283707	104.489510
3075.488839	104.926573
3076.692278	99.062937
3077.894025	96.545455
3079.095589	91.258741
3080.296969	83.623776
3081.498165	84.069231
3082.697671	78.325874
3083.896994	70.162937
3085.097640	69.959441
3086.296596	74.866434
3087.492357	76.266434
3088.690948	67.913287
3089.886345	72.228671
3091.083066	67.741259
3092.276594	76.032867
3093.472950	69.434266
3094.667619	68.835664
3095.859098	74.113986
3097.054908	85.581119
3098.246025	89.184615
3099.438465	87.232168
3100.627716	91.644755
3101.819794	88.500000
3103.010188	80.704895
3104.197396	80.358741
3105.385926	86.008392
3106.575779	77.421678
3107.762447	67.137063
3108.948936	76.667832
3110.135246	91.962238
3111.322877	98.606993
3112.507326	97.572028
3113.690096	83.463636
3114.875688	78.876224
3116.059601	76.446853
3117.241834	71.393007
3118.423890	71.475524
3119.605767	70.168531
3120.787466	64.074126
3121.967488	56.399301
3123.145833	80.034266
3124.326998	81.549650
3125.504988	81.580420
3126.682801	83.734266
3127.860437	82.418182
3129.036398	94.227273
3130.212183	100.827972
3131.389288	109.542657
3132.564720	103.574825
3133.738478	101.068531
3134.910563	92.188811
3136.083969	68.436364
3137.257200	72.765734
3138.428759	49.890909
3139.601638	52.159441
3140.771350	44.521678
3141.942383	48.309091
3143.111745	60.467133
3144.279438	57.103497
3145.449946	60.223077
3146.615795	61.023077
3147.785954	72.674126
3148.951455	78.799301
3150.116783	80.442657
3151.281937	100.983217
3152.446918	105.269930
3153.613218	107.272028
3154.774865	106.460140
3155.937833	104.511189
3157.100628	111.828671
3158.263249	95.927273
3159.424206	91.989510
3160.584991	94.340559
3161.745603	92.886014
3162.904551	87.723077
3164.063327	79.741958
3165.221932	71.954545
3166.380365	61.006993
3167.538626	62.913986
3168.695226	73.339161
3169.850164	71.276224
3171.006421	83.899301
3172.161017	78.523077
3173.315443	74.313986
3174.468208	74.905594
3175.620804	82.498601
3176.773230	80.562937
3177.925485	75.913287
3179.077571	64.182517
3180.226510	66.437063
3181.378256	71.338462
3182.528345	66.821678
3183.676776	67.031469
3184.825039	72.706993
3185.973133	60.893007
3187.121058	59.889510
3188.267327	61.230769
3189.413428	66.844056
3190.557875	65.168531
3191.702153	70.516783
3192.846264	68.192308
3193.991693	77.389510
3195.133983	72.397203
3196.276105	64.208392
3197.418061	66.804196
3198.559849	57.424476
3199.701470	53.629371
3200.839956	56.422378
3201.979759	44.588112
3203.120879	39.006993
3204.258866	46.690210
3205.395202	61.532168
3206.531374	61.550350
3207.668862	53.300000
3208.804702	45.954545
3209.941859	43.135664
3211.074403	38.116783
3212.211228	42.062937
3213.343443	56.300699
3214.476974	59.136364
3215.610340	57.425175
3216.740580	52.113287
3217.873617	45.441259
3219.003527	42.179720
3220.134755	34.717483
3221.262857	35.755245
3222.393757	41.981818
3223.523012	52.855944
3224.650624	54.551748
3225.775113	71.220280
3226.903878	93.541958
3228.029521	96.007692
3229.155001	90.430769
3230.278840	88.933566
3231.405474	86.793007
3232.527510	102.760140
3233.650862	122.895804
3234.774051	131.902098
3235.897079	120.736364
3237.018467	119.468531
3238.139694	110.795105
3239.259282	97.644056
3240.378709	91.088811
3241.496499	78.781119
3242.617080	61.762937
3243.734548	60.839161
3244.851855	59.006294
3245.969002	77.667133
3247.084512	100.297902
3248.201338	110.193706
3249.315053	112.338462
3250.431559	111.900699
3251.546429	127.018182
3252.658191	124.688811
3253.769794	108.867133
3254.882712	100.648252
3255.995470	79.078322
3257.105122	59.233566
3258.216089	51.046853
3259.326897	66.416084
3260.436073	76.347552
3261.543618	84.191608
3262.652478	81.594406
3263.761179	79.790909
3264.866778	81.600000
3265.973692	56.789510
3267.078976	46.448252
3268.185574	33.597203
3269.289072	23.609091
3270.393884	18.770629
3271.498539	36.035664
3272.600096	60.905594
3273.701496	78.804895
3274.804210	93.297203
3275.906768	100.637762
3277.006229	93.935664
3278.108474	85.746154
3279.207623	79.805594
3280.305147	89.566434
3281.402517	69.732168
3282.502668	66.527972
3283.599727	70.109091
3284.696630	73.366434
3285.793378	84.005594
3286.885567	82.788811
3287.982006	79.100000
3289.076822	70.002098
3290.171483	60.057343
3291.264523	56.592308
3292.357409	45.816084
3293.448674	44.579720
3294.541252	31.041958
3295.632210	49.193007
3296.721548	57.539161
3297.810733	67.244755
3298.901230	67.018881
3299.988643	72.332867
3301.075904	71.386014
3302.164477	74.239860
3303.252897	68.414685
3304.336771	56.644056
3305.424885	52.397902
3306.509919	45.949650
3307.593337	32.031469
3308.678067	48.641958
3309.761181	51.811189
3310.845607	76.504196
3311.926956	74.602797
3313.009616	84.200000
3314.090661	84.141958
3315.171556	85.322378
3316.250838	67.466434
3317.329969	46.984615
3318.410412	40.453147
3319.487780	20.539860
3320.566460	12.300000
3321.643528	30.872028
3322.720446	38.956643
3323.795754	58.367832
3324.870912	65.519580
3325.947381	61.204895
3327.020780	77.558042
3328.094029	79.510490
3329.168590	72.853846
3330.241542	67.025175
3331.312885	76.315385
3332.385539	77.216783
3333.455126	91.353147
3334.526024	106.816084
3335.595316	92.718182
3336.665917	91.672028
3337.734912	90.003497
3338.802302	67.808392
3339.868086	73.474126
3340.938096	71.711888
3342.005042	69.030769
3343.068928	63.787413
3344.135580	51.047552
3345.200629	48.401399
3346.264074	46.427273
3347.327373	38.665734
3348.390525	21.214685
3349.453531	14.633566
3350.516391	16.098601
3351.577648	6.749650
3352.635849	27.151748
3353.698271	42.725175
3354.757637	55.839161
3355.816857	50.980420
3356.877386	43.071329
3357.933407	54.318182
3358.992191	56.875524
3360.046468	57.211888
3361.103509	55.400699
3362.158951	57.896503
3363.215702	62.850350
3364.270856	68.976224
3365.324412	75.816084
3366.376371	61.635664
3367.431093	53.964336
3368.482765	55.479021
3369.534293	53.055944
3370.587131	53.374126
3371.636921	51.212587
3372.688020	37.102098
3373.736072	45.441958
3374.786885	47.597203
3375.834652	65.267133
3376.882277	74.312587
3377.929760	68.630070
3378.975650	65.605594
3380.022848	72.650350
3381.067003	79.988811
3382.113917	75.190909
3383.159240	74.099301
3384.201521	81.378322
3385.243661	70.137762
3386.287110	81.671329
3387.330417	80.109091
3388.372134	90.137063
3389.413711	88.413986
3390.455146	73.865734
3391.494993	56.341958
3392.533251	44.493706
3393.572817	31.472028
3394.612243	29.925874
3395.650081	45.294406
3396.686332	70.841958
3397.722443	79.764336
3398.759862	100.753147
3399.794248	105.106294
3400.829942	113.851748
3401.865496	108.073427
3402.898018	78.067133
3403.933294	58.309091
3404.965540	48.426573
3405.997646	30.920979
3407.028170	27.839161
3408.060000	42.216084
3409.091692	38.389510
3410.120356	47.001399
3411.148883	63.980420
3412.178716	71.235664
3413.208412	76.733566
3414.235082	84.085315
3415.263058	76.681818
3416.288010	74.381818
3417.315713	63.433566
3418.340391	64.471329
3419.366376	69.370629
3420.390782	59.106294
3421.415051	34.706993
3422.437741	45.505594
3423.460295	47.019580
3424.484155	54.572727
3425.504995	50.628671
3426.525699	52.100300
3427.547709	50.738561
3428.566701	45.042757
3429.585558	33.512188
3430.605721	14.646154
3431.622867	-13.056044
