-117.633747	3.247253
-114.964146	2.275824
-112.297481	1.722078
-109.631568	1.558042
-106.968588	1.755744
-104.304177	2.287213
-101.642697	3.124476
-98.979788	4.833566
-96.321985	4.597203
-93.662753	8.988811
-91.004269	11.489510
-88.348710	11.030769
-85.691721	8.095105
-83.039831	7.911888
-80.386511	7.474126
-77.736110	7.560839
-75.084281	8.279021
-72.437542	5.219580
-69.789373	4.798601
-67.141947	4.879720
-64.497436	2.996503
-61.851495	5.795105
-59.210636	5.848252
-56.568348	7.362238
-53.928969	9.722378
-51.288161	10.111189
-48.648092	14.058042
-46.013097	17.644056
-43.376672	20.908392
-40.743150	20.659441
-38.108200	23.100000
-35.478316	25.157343
-32.844838	24.354545
-30.216423	26.701399
-27.588742	26.824476
-24.959632	17.248252
-22.335580	-40.925175
-19.707937	-212.961538
-17.085349	-557.532867
-14.463491	-987.069231
-11.842364	516.760140
-9.221968	3184.906294
-6.604459	5401.170629
-3.985522	6956.306294
-1.369471	7838.850350
1.245853	8050.874126
3.860448	7592.470629
6.472162	6471.870629
9.085303	4730.772028
11.693412	2507.350350
14.305101	196.729371
16.911760	-1360.978322
19.519848	-824.402098
22.127210	-59.158741
24.729548	29.753147
27.335464	28.339161
29.936359	24.087413
32.538681	18.786713
35.135985	13.989510
37.736866	10.480420
40.332731	10.932867
42.930024	9.505594
45.526598	9.825874
48.118163	10.795105
50.711157	9.358042
53.301289	12.812587
55.892848	13.300000
58.481549	13.729371
61.071676	11.253147
63.656804	12.318881
66.243360	10.775524
68.829201	11.613287
71.412189	10.555944
73.996604	12.174825
76.573889	12.663636
79.154741	12.270629
81.732744	7.621678
84.310037	12.750350
86.888757	12.774126
89.462494	12.010490
92.037658	13.459441
94.609979	15.702797
97.181593	11.737063
99.750366	8.726573
102.320566	5.449650
104.887927	5.400000
107.456715	3.923077
110.022666	4.148252
112.585782	5.197902
115.152454	12.616783
117.709904	15.453846
120.273040	24.193007
122.831217	38.354545
125.392948	55.372028
127.949722	80.829371
130.507922	123.707692
133.061170	181.434266
135.613720	257.204895
138.169820	341.156643
140.720972	429.014685
143.271427	514.006294
145.821184	591.389510
148.368122	649.323776
150.914365	692.590909
153.462033	719.616783
156.009005	727.711189
158.551041	725.950350
161.092385	723.846853
163.633035	718.643357
166.175110	718.099301
168.714375	709.973427
171.250830	706.941958
173.786595	697.857343
176.323785	692.400000
178.860284	685.380420
181.393977	680.818182
183.924866	678.118182
186.455067	673.731469
188.986694	672.949650
191.515519	672.662937
194.041545	673.425874
196.566885	675.104196
199.093650	675.230070
201.617619	675.820979
204.140902	669.382517
206.663501	671.469231
209.183307	674.432168
211.702430	675.680420
214.220870	681.146154
216.740735	691.520280
219.253597	701.409790
221.769991	711.169231
224.285704	722.653147
226.796526	735.061538
229.308773	747.011888
231.818237	749.913986
234.327023	750.953846
236.835131	754.658042
239.344663	753.064336
241.849314	749.865035
244.353289	746.214685
246.858688	742.601399
249.359212	741.307692
251.863259	739.275524
254.360336	736.297902
256.860935	736.165035
259.358763	735.869231
261.855918	734.638462
264.352401	737.886014
266.844020	747.193706
269.339159	751.560140
271.831531	758.007692
274.323233	764.170629
276.812172	772.159441
279.302534	780.534965
281.790135	789.506993
284.274976	795.693706
286.763332	802.972028
289.244748	813.251049
291.729678	830.978322
294.209762	845.413986
296.693359	861.769231
299.172114	866.760140
301.652291	867.034266
304.129717	862.516084
306.606479	857.906294
309.082577	851.687413
311.555927	849.554545
314.028616	842.730070
316.500643	839.144056
318.972008	832.717483
321.440630	832.063636
323.908592	820.831469
326.377977	809.127972
328.842539	784.489510
331.310605	758.682517
333.773850	737.083217
336.236439	719.510490
338.698371	706.070629
341.159646	699.109091
343.618186	694.565734
346.078149	696.193007
348.535380	692.123776
350.991956	694.497902
353.447878	689.052448
355.901070	685.248951
358.355685	673.362937
360.805498	666.177622
363.258807	659.990909
365.707317	650.685315
368.155177	639.037063
370.604459	633.558042
373.048946	629.086713
375.494856	626.725874
377.940117	621.725874
380.382659	618.655944
382.824553	617.594406
385.265799	615.279720
387.704331	609.751748
390.144283	608.400699
392.581522	605.510490
395.016049	600.130070
397.454064	592.144056
399.887303	590.420979
402.321962	585.413986
404.751849	576.938462
407.185221	571.093706
409.613823	566.355245
412.041783	564.744056
414.471164	559.762238
416.895781	556.798601
419.321818	553.679720
421.747216	554.559441
424.171973	553.496503
426.591971	551.641259
429.013391	549.188811
431.432114	546.230070
433.852258	538.930769
436.269707	531.225874
438.688577	521.189510
441.104752	512.697902
443.516181	503.974825
445.931086	494.311189
448.343301	486.367832
450.754882	480.751049
453.165830	467.941958
455.574090	459.084615
457.981719	452.161538
460.388715	445.490210
462.795080	438.460839
465.198762	434.304196
467.601814	432.655245
470.004236	433.024476
472.406028	439.322378
474.805142	445.953147
477.205676	453.814685
479.605581	460.558042
482.000764	465.758741
484.399412	473.552448
486.793341	481.052448
489.186644	490.346853
491.579322	502.306993
493.971373	515.802797
496.364844	538.984615
498.753602	594.809091
501.139694	723.873427
503.527206	990.437063
505.914095	1501.143357
508.298319	2218.425175
510.683963	3069.015385
513.066945	3897.684615
515.447265	4592.793706
517.829006	5050.097203
520.208087	5221.666434
522.588586	5089.838462
524.966429	4676.126573
527.341615	4059.644056
529.716184	3347.894406
532.092172	2693.430769
534.465507	2214.140559
536.840259	1881.794406
539.210325	1673.425175
541.579777	1518.339860
543.950646	1403.107692
546.316834	1299.819580
548.684441	1221.593706
551.049402	1156.809091
553.413751	1096.679720
555.777486	1049.208392
558.142639	1005.357343
560.503120	970.281119
562.865018	936.149650
565.224277	903.446853
567.580897	870.169231
569.940963	837.682517
572.294337	812.817483
574.651156	782.844056
577.005340	759.411888
579.358915	735.354545
581.711883	710.392308
584.062218	688.274126
586.413971	670.185315
588.759047	656.605594
591.109586	643.476224
593.453453	631.591608
595.802781	619.911189
598.147460	610.505594
600.489515	608.433566
602.832987	604.717483
605.173836	609.781119
607.514082	621.111888
609.851708	637.620280
612.192769	651.849650
614.529193	665.936364
616.867033	671.951748
619.202256	667.930769
621.534862	659.574126
623.868886	643.287413
626.200295	623.272727
628.531106	601.013986
630.861319	584.532168
633.190935	572.021678
635.515927	566.518881
637.846361	564.069231
640.172174	559.181818
642.495379	553.356643
644.820001	547.622378
647.142017	541.283916
649.463439	543.409091
651.782258	540.737762
654.102494	538.176224
656.422135	537.803497
658.739177	542.234266
661.055626	540.601399
663.369477	538.751748
665.684744	534.862937
667.997414	529.467832
670.311499	523.051049
672.620984	519.320979
674.931885	517.769930
677.240192	516.780420
679.547912	510.334266
681.857047	501.902797
684.161589	495.342657
686.465545	488.876224
688.768914	474.407692
691.073699	461.202797
693.373896	450.971329
695.675509	442.872727
697.976536	437.586713
700.272982	432.482517
702.570843	432.879720
704.868120	426.723776
707.164814	424.557343
709.456932	422.762937
711.752460	422.148951
714.043416	422.755944
716.335786	416.641958
718.625580	413.109091
720.914795	416.561538
723.203430	414.022378
725.489492	414.425874
727.776968	409.057343
730.061874	407.570629
732.346202	403.437063
734.627961	402.164336
736.911134	397.338462
739.193730	393.561538
741.471770	393.427273
743.751224	392.337762
746.030103	391.514685
748.308407	395.647552
750.582160	392.153846
752.857328	389.332168
755.131922	384.260839
757.403957	387.695105
759.677405	384.704895
761.948295	383.967133
764.216629	385.632867
766.486376	388.476923
768.753568	393.598601
771.020191	401.848252
773.286243	406.397902
775.549744	407.770629
777.814657	407.657343
780.079002	406.348951
782.338816	404.613287
784.600044	399.837762
786.860704	398.186713
789.118818	394.644056
791.374387	397.341958
793.633346	393.746853
795.885807	392.672727
798.143635	398.190210
800.396944	397.737063
802.647712	390.363636
804.899894	388.220979
807.149536	392.736364
809.400590	389.591608
811.647133	389.355944
813.895089	397.295105
816.140509	393.590909
818.387342	395.676923
820.633612	392.687413
822.875379	390.595804
825.120528	396.940559
827.359206	391.517483
829.601265	385.831469
831.838826	397.886713
834.077799	402.722378
836.314245	401.912587
838.552102	408.365734
840.787434	402.760839
843.020242	392.787413
845.254462	387.198601
847.486160	371.993007
849.717303	360.088811
851.947891	358.660839
854.177925	346.642657
856.407404	349.430769
858.632403	360.337762
860.860775	357.511888
863.084669	362.134266
865.309974	373.937063
867.530803	368.212587
869.755004	370.704895
871.974732	370.342657
874.195870	360.240559
876.416458	355.875524
878.634537	357.034965
880.854025	343.469930
883.069047	347.183217
885.283521	342.876224
887.497448	336.011189
889.710827	334.878322
891.923660	344.186014
894.135945	340.420979
896.345729	347.175524
898.554967	348.953846
900.763660	351.264336
902.969853	350.165035
905.177456	357.577622
907.382562	347.506993
909.587124	361.181818
911.789191	360.581119
913.992667	358.917483
916.193649	373.817483
918.394089	388.072028
920.595938	406.388112
922.791396	434.894406
924.990212	466.309790
927.184591	503.818881
929.382327	548.880420
931.575627	611.614685
933.770336	673.060140
935.962558	736.729371
938.154243	777.067832
940.345390	817.492308
942.534054	855.504196
944.722181	860.320280
946.907828	862.680420
949.096828	862.729371
951.281403	852.365035
953.465444	857.448252
955.652836	858.289510
957.831923	855.694406
960.014361	868.386014
962.196264	874.137063
964.375694	876.980420
966.552651	897.477622
968.731016	901.829371
970.910788	902.670629
973.084210	922.339161
975.260980	935.918182
977.433342	935.326573
979.607112	943.653846
981.776478	911.537063
983.949188	867.164336
986.119433	824.449650
988.289148	756.592308
990.458335	699.845455
992.623125	652.598601
994.791257	598.239161
996.954993	565.427273
999.120137	533.718182
1001.282821	485.609091
1003.444980	460.215385
1005.604682	438.061538
1007.763859	420.352448
1009.924443	409.807692
1012.082572	399.871329
1014.240178	402.793007
1016.397259	418.779720
1018.553818	421.015385
1020.705997	444.828671
1022.859583	466.086713
1025.012647	455.754545
1027.163262	434.888811
1029.315283	437.223776
1031.462932	427.122378
1033.613912	413.638462
1035.760521	412.820979
1037.906611	403.532168
1040.052183	426.427972
1042.199160	423.261538
1044.339848	440.279021
1046.483865	470.793007
1048.625443	466.573427
1050.766503	449.895105
1052.908969	427.997203
1055.045154	424.048951
1057.184666	410.148252
1059.319822	401.460839
1061.458303	388.372727
1063.592431	378.971329
1065.726045	404.969930
1067.861063	419.145455
1069.991732	446.102098
1072.123807	448.465734
1074.253451	437.251049
1076.382584	428.893007
1078.511206	420.774126
1080.639316	420.430070
1082.765000	404.395105
1084.890174	405.080420
1087.016752	367.538462
1089.138992	341.002098
1091.262637	324.123776
1093.381947	308.273427
1095.506486	280.283217
1097.624781	273.773427
1099.744479	273.614685
1101.861760	283.739161
1103.978533	294.993706
1106.094800	309.149650
1108.208652	313.573427
1110.323907	329.893706
1112.434840	327.872028
1114.549085	333.889510
1116.659009	318.160839
1118.770336	313.808392
1120.881160	311.756643
1122.987667	327.001399
1125.097483	331.938462
1127.202985	339.165734
1129.309891	335.188112
1131.410581	334.188112
1133.516483	330.137063
1135.618076	330.982517
1137.721071	337.655245
1139.823567	337.973427
1141.919855	319.918182
1144.021350	331.904895
1146.118543	331.369930
1148.215237	332.799301
1150.311434	326.054545
1152.407132	328.427972
1154.502333	315.960839
1156.595137	302.423776
1158.689343	280.064336
1160.777358	276.704196
1162.870571	267.293007
1164.957596	263.351049
1167.047921	266.337762
1169.133957	276.976923
1171.223291	281.523776
1173.306444	292.232168
1175.391000	303.004196
1177.476957	325.495105
1179.558632	328.671329
1181.641708	322.081818
1183.722399	311.909790
1185.802599	322.879021
1187.882307	320.848252
1189.961524	311.788811
1192.038358	302.594406
1194.112812	296.144755
1196.190558	285.376923
1198.264033	273.790210
1200.338910	270.555245
1202.409519	277.837063
1204.481529	279.465035
1206.551163	276.612587
1208.622198	283.683916
1210.692745	289.207692
1212.759032	293.762937
1214.826719	283.495804
1216.892033	282.983217
1218.958748	283.604196
1221.021207	283.118881
1223.086952	278.608392
1225.148442	286.210490
1227.211332	291.236364
1229.271855	298.818182
1231.331895	292.415385
1233.391451	292.939161
1235.448643	288.422378
1237.505352	284.208392
1239.559699	278.281818
1241.617326	279.837762
1243.672591	279.353147
1245.723615	280.462937
1247.776040	287.300000
1249.827984	298.611189
1251.877570	305.044056
1253.926677	313.616783
1255.975305	309.969930
1258.023455	313.830769
1260.071127	302.559441
1262.114568	299.693706
1264.161285	294.430769
1266.205648	288.318881
1268.249534	282.119580
1270.291070	278.211189
1272.330256	286.280420
1274.372715	290.512587
1276.410951	296.724476
1278.450586	299.786014
1280.489745	312.974126
1282.524687	321.660839
1284.561027	318.197902
1286.595022	323.188112
1288.630416	324.562238
1290.661596	318.938462
1292.694175	316.170629
1294.726282	309.990210
1296.756048	315.099301
1298.787211	320.323077
1300.814167	317.657343
1302.842522	320.055944
1304.866671	324.231469
1306.894086	316.560839
1308.917298	305.473427
1310.941908	305.069231
1312.964183	297.942657
1314.987856	288.846853
1317.009196	283.605594
1319.030069	278.129371
1321.050474	285.176923
1323.066686	287.204196
1325.084295	283.813287
1327.099576	289.232168
1329.118116	293.882517
1331.132466	291.491608
1333.144491	301.053147
1335.159774	311.833566
1337.170871	315.027972
1339.183364	321.848252
1341.191675	323.874825
1343.203242	317.132168
1345.208770	318.810490
1347.217553	310.195105
1349.222158	310.418182
1351.230017	309.576923
1353.237414	307.465734
1355.238780	310.523776
1357.241542	314.498601
1359.243845	313.088811
1361.245688	317.720280
1363.247071	325.257343
1365.246140	326.062238
1367.244751	325.515385
1369.242904	328.221678
1371.240599	333.013986
1373.234131	335.062238
1375.229058	326.446853
1377.223529	329.495804
1379.217543	329.256643
1381.209250	315.255944
1383.200501	312.874126
1385.189447	309.524476
1387.179788	311.703497
1389.169675	305.915385
1391.157257	296.870629
1393.144386	296.601399
1395.129213	297.954545
1397.115435	296.383217
1399.099356	294.892308
1401.082825	297.313986
1403.065842	291.167832
1405.046561	290.244755
1407.028674	294.703497
1409.008490	293.162937
1410.987856	298.264336
1412.963083	296.946853
1414.941548	286.502098
1416.917720	293.960140
1418.893442	291.344755
1420.868715	293.514685
1422.841698	290.084615
1424.814232	285.865734
1426.786318	284.290909
1428.757957	289.584615
1430.725467	295.262238
1432.698051	295.118881
1434.662829	302.741259
1436.632680	303.623077
1438.598406	301.364336
1440.565526	312.499301
1442.530362	312.066434
1444.491078	316.192308
1446.456862	319.381119
1448.416691	326.355944
1450.377914	323.626573
1452.340528	325.893706
1454.299028	322.592308
1456.257086	314.427273
1458.214701	311.952448
1460.171875	302.261538
1462.126773	297.832168
1464.083064	290.572727
1466.037080	292.925175
1467.990655	294.283916
1469.941958	299.653846
1471.894653	306.265734
1473.845077	301.530070
1475.795062	305.004895
1477.744608	298.694406
1479.691885	294.646853
1481.636894	286.345455
1483.583296	281.614685
1485.529260	285.918182
1487.474787	278.727972
1489.418048	293.230769
1491.360873	301.081818
1493.301435	311.240559
1495.243389	314.653147
1497.183080	316.534965
1499.122336	321.201399
1501.061158	316.146154
1502.997720	321.159441
1504.935673	317.662937
1506.871367	321.437762
1508.806628	323.165035
1510.739632	320.558741
1512.672204	326.729371
1514.604344	328.914685
1516.536052	324.582517
1518.465507	321.792308
1520.396352	318.490909
1522.326765	317.458741
1524.253106	331.748252
1526.180837	336.646853
1528.106319	338.932168
1530.031371	339.345455
1531.955993	342.148252
1533.880187	340.876224
1535.802134	349.297902
1537.725471	348.397902
1539.646561	347.750350
1541.565407	357.618881
1543.485643	357.702098
1545.403635	374.548252
1547.321201	400.548951
1549.236526	408.664336
1551.153240	423.320979
1553.065898	434.648951
1554.981761	448.479720
1556.895385	461.167133
1558.806770	482.337762
1560.719545	499.574126
1562.628270	524.547552
1564.538384	556.924476
1566.448075	587.436364
1568.357343	655.057343
1570.264376	719.862937
1572.169177	794.557343
1574.075367	890.000000
1575.979326	994.630070
1577.882863	1108.983916
1579.785980	1239.222378
1581.686867	1356.351748
1583.589143	1454.387413
1585.489190	1513.025175
1587.390626	1527.258741
1589.288027	1496.737762
1591.185011	1424.880420
1593.081576	1302.608392
1594.979528	1163.113287
1596.871646	1016.979720
1598.766958	870.508392
1600.661851	748.882517
1602.554524	657.537063
1604.446779	588.147552
1606.336815	530.741259
1608.226435	492.380420
1610.115640	473.658741
1612.004429	450.879021
1613.891002	427.977622
1615.778962	420.316783
1617.662905	403.888112
1619.548235	381.656643
1621.433152	369.680420
1623.315855	355.200699
1625.199945	338.527273
1627.080023	327.881818
1628.961488	313.809790
1630.840743	300.579021
1632.721385	291.641958
1634.596222	276.434266
1636.476040	280.257343
1638.351853	278.946154
1640.227257	276.335664
1642.104046	256.182517
1643.975038	253.353846
1645.849213	242.400699
1647.719388	232.133566
1649.592744	230.672028
1651.463897	230.727273
1653.332848	218.738462
1655.203185	212.006294
1657.069528	216.162238
1658.937258	214.297902
1660.802788	213.672727
1662.669704	220.649650
1664.532630	205.802797
1666.396943	198.229371
1668.259059	188.736364
1670.120770	192.970629
1671.983866	187.900000
1673.844768	183.318881
1675.703477	189.562238
1677.561782	188.824476
1679.421471	177.619580
1681.275394	177.289510
1683.132490	200.545455
1684.989182	207.269930
1686.841899	219.135664
1688.697787	207.954545
1690.549701	206.078322
1692.401214	205.591608
1694.252326	193.753846
1696.103037	182.038462
1697.953348	186.795105
1699.801475	173.093007
1701.650986	163.355245
1703.494747	173.142657
1705.343459	176.993706
1707.186424	175.625874
1709.032555	190.718182
1710.874725	182.300000
1712.720059	184.118881
1714.559653	186.309091
1716.400632	196.263636
1718.242993	194.736364
1720.081397	198.161538
1721.921185	193.637063
1723.758798	183.373427
1725.596016	189.674825
1727.431060	192.058042
1729.267487	196.766434
1731.101741	193.925175
1732.935602	197.424476
1734.769068	197.760839
1736.598588	205.618182
1738.431267	214.595804
1740.260002	208.253147
1742.091895	193.264336
1743.919845	188.732867
1745.747403	176.279021
1747.574570	166.219580
1749.401345	165.310490
1751.227728	162.252448
1753.050175	144.332867
1754.875777	157.030769
1756.697443	157.476224
1758.520492	168.179021
1760.341380	174.762238
1762.161878	182.940559
1763.983758	193.683916
1765.799938	202.579720
1767.619270	184.572727
1769.434675	170.133566
1771.253231	161.886014
1773.067861	162.119580
1774.882104	143.174126
1776.695961	153.993007
1778.509431	151.372028
1780.320747	159.813287
1782.133445	161.056643
1783.945756	168.681818
1785.754150	167.064336
1787.563925	160.013287
1789.369784	153.846853
1791.178790	145.280420
1792.983882	123.968531
1794.790355	153.010490
1796.596443	139.550350
1798.398622	148.733566
1800.203944	148.555944
1802.005358	169.160140
1803.808153	167.445455
1805.607041	176.495105
1807.407310	179.506993
1809.207197	175.986014
1811.004942	169.968531
1812.802307	168.753147
1814.599291	178.032867
1816.395895	190.023776
1818.190360	179.132867
1819.986205	187.743357
1821.776394	183.875524
1823.571480	201.902098
1825.360913	188.411189
1827.153484	195.129371
1828.943919	195.866434
1830.732219	185.086713
1832.523655	181.841259
1834.309446	198.920979
1836.096615	209.498601
1837.881654	202.127972
1839.669825	206.953147
1841.454111	197.628671
1843.236268	168.312587
1845.019804	158.440559
1846.801211	139.824476
1848.583996	154.696503
1850.362902	156.078322
1852.143186	166.582517
1853.921345	179.243357
1855.700881	205.544056
1857.478293	209.274126
1859.253582	198.670629
1861.030248	194.272028
1862.804792	183.799301
1864.580713	164.735664
1866.351015	162.338462
1868.124444	172.222378
1869.895753	185.948951
1871.666691	185.939161
1873.439007	196.458042
1875.205709	195.103497
1876.975536	206.129371
1878.741500	184.726573
1880.510588	173.909790
1882.275814	181.775524
1884.040672	176.338462
1885.806906	163.609091
1887.569282	155.416783
1889.331291	162.353147
1891.092933	164.680420
1892.854207	165.855245
1894.615115	164.560140
1896.375655	158.532867
1898.134087	165.025175
1899.892152	170.455944
1901.648110	177.453147
1903.405444	185.083916
1905.162413	170.430769
1906.917275	166.676923
1908.670032	167.051748
1910.422426	165.327273
1912.176196	170.627972
1913.927862	158.257343
1915.677425	142.525175
1917.428365	140.816084
1919.178941	146.552448
1920.925679	163.058042
1922.673792	161.602797
1924.419806	163.512587
1926.167196	164.752448
1927.912487	175.938462
1929.655681	183.039860
1931.400251	184.646154
1933.142724	193.532168
1934.884837	184.809790
1936.626591	180.728322
1938.367984	185.541259
1940.107284	166.438112
1941.846225	161.277622
1943.584807	145.986364
1945.321298	130.694406
1947.057430	125.780769
1948.794938	127.118182
1950.528623	128.308042
1952.263683	139.604895
1953.996654	145.651399
1955.729269	153.342657
1957.461527	157.867483
1959.193429	161.427273
1960.923246	152.525874
1962.650977	161.374825
1964.380083	163.262937
1966.108833	156.765734
1967.835500	162.079021
1969.561813	167.709790
1971.289500	164.485315
1973.011650	168.553846
1974.736901	171.272028
1976.458345	170.058741
1978.182889	164.850350
1979.905354	162.667133
1981.624015	151.918881
1983.345775	161.382517
1985.063733	163.712587
1986.783065	162.111189
1988.498597	164.790909
1990.218949	166.719580
1991.935503	170.099301
1993.648260	171.587413
1995.364113	177.013287
1997.077894	176.486713
1998.791325	171.470629
2000.502685	162.044755
2002.215417	153.034965
2003.924358	166.569231
2005.636393	168.746853
2007.342918	181.092308
2009.052536	182.155245
2010.760086	189.841958
2012.467289	199.188112
2014.172426	194.302797
2015.877216	195.024476
2017.583379	188.229371
2019.285758	179.272028
2020.989510	163.647552
2022.691199	155.358042
2024.392542	160.986014
2026.093541	157.732168
2027.792478	158.961538
2029.492787	161.819580
2031.189320	168.209790
2032.887225	178.501399
2034.583072	179.588112
2036.282004	180.925874
2037.975450	179.837762
2039.670267	176.312587
2041.364741	166.163636
2043.055448	161.002098
2044.749237	162.776923
2046.439261	160.618881
2048.130654	159.344755
2049.819995	166.362238
2051.510707	168.465734
2053.197655	175.823776
2054.884263	182.493706
2056.572242	179.537762
2058.256461	178.541259
2059.942050	169.835664
2061.627300	167.489510
2063.310502	170.955245
2064.995074	172.927273
2066.674182	172.122378
2068.358077	171.179021
2070.036510	171.196503
2071.718021	171.142657
2073.395780	171.753147
2075.073203	171.029371
2076.751995	163.202098
2078.428744	163.674825
2080.103452	162.202797
2081.779530	169.368531
2083.453566	171.967832
2085.127267	172.516783
2086.800634	167.657343
2088.471961	167.853147
2090.142954	161.588811
2091.813613	162.513986
2093.483938	164.176224
2095.153929	163.045455
2096.821883	170.432168
2098.489505	180.474126
2100.155093	181.789510
2101.822049	187.534266
2103.486972	187.061538
2105.151563	185.069231
2106.814122	171.904895
2108.478049	170.791608
2110.139945	168.331469
2111.801510	172.506294
2113.462745	167.688112
2115.121950	171.127972
2116.780826	177.329371
2118.439371	174.593706
2120.097587	177.816783
2121.752080	172.281119
2123.409637	171.390210
2125.066864	166.070629
2126.720371	155.117483
2128.375245	152.813986
2130.026400	151.402098
2131.680618	149.352448
2133.331118	148.788811
2134.982986	149.344755
2136.629445	145.586713
2138.280658	147.736364
2139.928159	155.767133
2141.577026	150.312587
2143.223874	156.909790
2144.870397	151.045455
2146.516594	142.552448
2148.159082	140.996503
2149.804629	150.065035
2151.446469	155.290909
2153.091366	154.423776
2154.732558	148.507692
2156.373426	143.669930
2158.013971	153.095105
2159.652503	153.812587
2161.292401	158.102098
2162.928599	160.098601
2164.566163	163.372727
2166.203405	170.698601
2167.838637	173.434266
2169.473547	180.866434
2171.108136	183.518182
2172.742404	182.548252
2174.372978	177.023776
2176.006604	169.978322
2177.636537	166.023077
2179.267837	157.525175
2180.897131	163.368531
2182.526106	158.423776
2184.154761	155.827273
2185.783097	147.028671
2187.409430	144.056643
2189.035445	138.998601
2190.659459	137.211189
2192.284838	144.639860
2193.908216	145.076224
2195.532959	147.797902
2197.154021	148.916783
2198.774766	165.869930
2200.396875	182.765035
2202.016987	177.363636
2203.635103	172.634266
2205.252903	162.025874
2206.870387	157.186713
2208.487556	145.685315
2210.104410	144.173427
2211.720949	149.190909
2213.335494	143.653147
2214.948048	143.039161
2216.561965	150.786713
2218.173891	161.755245
2219.787180	164.781119
2221.398478	160.333566
2223.007788	157.492308
2224.618460	158.020979
2226.227144	151.840559
2227.835516	158.348951
2229.441901	155.051748
2231.049648	150.962238
2232.655410	145.554545
2234.260860	143.626573
2235.864325	145.809790
2237.469153	142.612587
2239.071997	143.897902
2240.672858	147.262937
2242.275082	155.756643
2243.875324	164.328671
2245.476928	157.886713
2247.074879	168.062238
2248.674193	164.565734
2250.271527	173.603497
2251.868553	170.270629
2253.466940	159.126573
2255.061680	153.702098
2256.654442	147.432867
2258.248567	148.582517
2259.844053	153.184615
2261.435894	145.082517
2263.027429	140.261538
2264.620325	138.537762
2266.207912	142.736364
2267.800196	144.649650
2269.387172	151.224476
2270.977177	141.557343
2272.561877	127.397203
2274.151271	125.644056
2275.735362	127.347552
2277.320815	139.455245
2278.904299	138.381119
2280.490808	137.309790
2282.073684	141.538462
2283.656257	148.862238
2285.238526	154.527273
2286.817165	141.953846
2288.398829	136.079021
2289.976864	131.168531
2291.557922	124.599301
2293.135353	126.474126
2294.710821	132.502797
2296.289311	145.056643
2297.864177	144.753846
2299.438742	156.943357
2301.013006	150.969231
2302.586970	161.106993
2304.160634	159.561538
2305.733998	141.912587
2307.303742	142.934266
2308.873189	134.713986
2310.445653	139.497203
2312.012843	140.893706
2313.583050	145.828671
2315.149644	155.300000
2316.717596	167.503497
2318.283594	173.844755
2319.849294	178.654545
2321.414696	184.427972
2322.978145	185.381818
2324.542953	173.941958
2326.104152	160.783916
2327.668366	150.406294
2329.227319	162.493706
2330.789285	157.204196
2332.349301	149.779021
2333.909021	156.299301
2335.466792	164.093007
2337.024269	167.298601
2338.581451	173.081119
2340.136685	165.716084
2341.691625	162.606294
2343.246272	156.420280
2344.800625	162.613287
2346.354684	165.732168
2347.908450	173.554545
2349.460271	165.413287
2351.010149	167.708392
2352.563036	185.040559
2354.110679	189.181818
2355.661330	200.713986
2357.208391	193.511189
2358.756809	179.363636
2360.304935	165.365035
2361.849474	173.934266
2363.395370	164.426573
2364.939327	156.767832
2366.484642	144.959441
2368.026372	139.849650
2369.569460	149.699301
2371.110611	158.563636
2372.651473	162.069231
2374.192046	167.818182
2375.732330	165.670629
2377.272325	159.945455
2378.808741	149.509091
2380.348159	150.165734
2381.884000	140.676224
2383.421198	142.095804
2384.954820	129.665035
2386.491442	131.241958
2388.026134	127.869930
2389.558895	125.954545
2391.091371	133.590210
2392.621918	136.505594
2394.155463	146.867133
2395.683797	141.051748
2397.213487	147.620280
2398.742892	165.237063
2400.272012	167.537762
2401.800846	181.029371
2403.324476	191.645455
2404.852741	195.126573
2406.375803	187.900000
2407.903500	182.553147
2409.424357	184.300699
2410.949846	169.567832
2412.471776	156.811888
2413.995060	135.195105
2415.516424	131.555245
2417.035868	131.758042
2418.556667	123.490210
2420.075547	135.883916
2421.594146	143.588811
2423.110826	158.087413
2424.628862	180.811888
2426.146616	188.763636
2427.660818	206.043357
2429.174741	204.494406
2430.688383	208.072028
2432.203379	196.153846
2433.714828	193.559441
2435.227630	199.379021
2436.738520	199.266434
2438.249131	189.438462
2439.757830	197.885315
2441.269515	221.530769
2442.777657	238.356643
2444.285521	232.148252
2445.793106	243.441259
2447.297152	250.500699
2448.804182	247.960140
2450.309304	240.525874
2451.814149	244.374126
2453.317087	260.708392
2454.819748	260.698601
2456.322134	259.518182
2457.822613	261.346853
2459.324447	269.028671
2460.824375	264.432168
2462.324028	247.870629
2463.823406	235.153846
2465.320881	230.976923
2466.816454	215.746853
2468.315007	211.984615
2469.810032	219.829371
2471.306409	226.770629
2472.799260	228.195105
2474.293464	228.793706
2475.787394	226.600000
2477.277800	225.737762
2478.771184	217.140559
2480.262670	208.357343
2481.752259	198.928671
2483.241576	203.448951
2484.728997	206.290909
2486.219394	210.141958
2487.706273	215.338462
2489.194503	215.123776
2490.679216	208.523077
2492.163659	190.509790
2493.649454	188.186014
2495.133357	173.404196
2496.618610	162.672727
2498.098730	159.032168
2499.581822	150.791608
2501.063025	141.017483
2502.543958	144.816783
2504.023001	150.693007
2505.501777	146.637762
2506.980284	152.965035
2508.458522	151.034266
2509.936493	158.410490
2511.410958	176.543357
2512.888393	178.149650
2514.362323	185.930070
2515.837605	192.727273
2517.312619	185.387413
2518.784132	181.419580
2520.256996	187.157343
2521.727977	185.282517
2523.200308	170.372028
2524.667525	173.682517
2526.137709	166.725874
2527.606012	166.225874
2529.074049	170.330070
2530.541822	164.716783
2532.009330	165.245455
2533.476574	174.335664
2534.940325	168.919580
2536.405426	183.986014
2537.868650	187.274126
2539.333223	181.818881
2540.794308	172.913986
2542.256742	176.236364
2543.718913	170.387413
2545.177597	173.570629
2546.640854	182.412587
2548.099014	168.506294
2549.558523	168.867832
2551.012939	170.613287
2552.471925	158.138462
2553.929039	166.958741
2555.384281	170.079021
2556.839263	165.890909
2558.292375	176.032867
2559.746836	175.827972
2561.199428	176.055245
2562.651760	181.493706
2564.102224	182.757343
2565.555645	178.730769
2567.003983	178.932168
2568.455276	178.892308
2569.904703	179.841259
2571.350659	181.869231
2572.799569	184.667133
2574.245008	185.858042
2575.691796	189.767832
2577.136720	189.881119
2578.581387	189.434266
2580.027401	193.183916
2581.469948	181.462937
2582.913843	176.682517
2584.354273	165.834266
2585.796051	169.344755
2587.235969	167.722378
2588.677234	166.919580
2590.115037	172.894406
2591.555790	179.060140
2592.991481	192.516084
2594.430120	203.762238
2595.866903	199.384615
2597.301830	200.013287
2598.739704	184.205594
2600.172521	184.581818
2601.606685	179.825874
2603.038994	188.676224
2604.472651	196.648252
2605.904453	204.852448
2607.336003	212.874126
2608.767299	211.825874
2610.196744	227.844056
2611.625936	227.689510
2613.053277	232.771329
2614.481965	233.408392
2615.910400	225.880420
2617.335389	238.292308
2618.761723	236.068531
2620.186210	249.230070
2621.612041	256.115385
2623.034430	264.172028
2624.458163	271.923077
2625.880051	270.297902
2627.301688	283.553147
2628.721481	290.469930
2630.142619	305.420280
2631.563507	316.130769
2632.980956	319.567133
2634.401345	338.573427
2635.818297	350.685315
2637.235001	370.351748
2638.651456	388.913287
2640.067663	410.161538
2641.483622	425.540559
2642.897740	439.614685
2644.311610	455.371329
2645.723641	470.861538
2647.137017	502.953846
2648.546963	539.254545
2649.959845	562.245455
2651.369298	590.818881
2652.778505	620.920280
2654.185876	653.948951
2655.596181	696.590210
2657.004650	743.139860
2658.411284	788.485315
2659.817673	844.322378
2661.222229	887.137063
2662.628128	935.730769
2664.032193	1005.735664
2665.436015	1063.264336
2666.839592	1117.372028
2668.241338	1176.086014
2669.644427	1232.230070
2671.044098	1280.202797
2672.445113	1328.034266
2673.842712	1380.632168
2675.243240	1423.091608
2676.640354	1452.002797
2678.038811	1461.717483
2679.435440	1473.341259
2680.831828	1479.349650
2682.227973	1472.523077
2683.622292	1467.616084
2685.017954	1453.490210
2686.410207	1431.868531
2687.803802	1410.926573
2689.195573	1392.988811
2690.588687	1369.006993
2691.979976	1331.504196
2693.369444	1287.537063
2694.758671	1254.923077
2696.147658	1225.957343
2697.537988	1179.860140
2698.923334	1130.089510
2700.311603	1073.075524
2701.698052	1012.074825
2703.084262	959.862238
2704.470233	912.667133
2705.852806	859.316084
2707.236721	807.854545
2708.620397	770.649650
2710.003836	729.553846
2711.383879	699.557343
2712.765264	668.905594
2714.144833	627.737063
2715.525744	588.909091
2716.904840	554.244056
2718.282122	525.252448
2719.660745	492.612587
2721.037554	463.551748
2722.414128	448.532168
2723.790466	437.505594
2725.164992	428.811888
2726.540859	405.851049
2727.913339	383.276224
2729.288736	361.637063
2730.659172	344.019580
2732.030948	323.973427
2733.402491	307.962238
2734.772225	296.381119
2736.143299	274.500699
2737.512566	261.766434
2738.881599	257.089510
2740.248826	242.444056
2741.615819	237.078322
2742.982580	224.344755
2744.349108	221.807692
2745.713832	221.909091
2747.078323	221.104196
2748.442582	220.139860
2749.806610	217.165734
2751.170405	208.420280
2752.530828	205.551748
2753.894160	210.400000
2755.252550	200.202098
2756.613850	192.652448
2757.971780	189.576923
2759.332618	180.575524
2760.691656	183.696503
2762.047326	182.920280
2763.405905	179.384615
2764.761116	174.962238
2766.116098	169.768531
2767.469283	159.151748
2768.825375	159.233566
2770.178103	158.899301
2771.530602	153.437063
2772.882874	154.345455
2774.236483	154.874825
2775.586731	154.620280
2776.935186	153.083217
2778.286545	158.662937
2779.634545	165.609790
2780.983884	171.862238
2782.331430	173.604196
2783.678750	180.977622
2785.025842	182.123776
2786.371144	181.411888
2787.716220	183.229371
2789.061070	176.130769
2790.405694	166.678322
2791.746965	151.724476
2793.089575	133.925874
2794.431960	129.978322
2795.774119	127.527273
2797.112929	131.131469
2798.454639	133.758741
2799.793000	156.499301
2801.132699	161.579720
2802.470612	169.624476
2803.806741	176.253147
2805.142647	187.490210
2806.479889	178.613986
2807.815348	172.937063
2809.150584	169.211189
2810.484038	164.672028
2811.818828	167.185315
2813.150277	174.476224
2814.484622	164.168531
2815.814069	162.095105
2817.144853	153.909790
2818.475415	157.472028
2819.804198	154.447552
2821.134318	160.097203
2822.462659	144.095105
2823.790778	140.109091
2825.117121	137.694406
2826.444799	137.534965
2827.769145	154.014685
2829.094827	161.032867
2830.418733	155.611189
2831.742419	150.497203
2833.067441	143.597902
2834.389134	154.824476
2835.710608	152.110490
2837.031862	156.460839
2838.352898	144.388811
2839.672162	133.032168
2840.992761	135.601399
2842.311588	141.524476
2843.630197	148.483217
2844.947036	152.772028
2846.263657	155.379720
2847.580061	146.403497
2848.894695	147.561538
2850.210664	157.522378
2851.523314	159.232168
2852.837298	161.098601
2854.151066	148.182517
2855.464617	147.229371
2856.776402	153.039161
2858.086420	151.976923
2859.397773	144.801399
2860.705811	143.529371
2862.015183	141.423077
2863.324340	140.748252
2864.633282	137.879720
2865.940461	130.537762
2867.245876	128.918881
2868.552626	125.909790
2869.857614	123.693706
2871.162387	131.764336
2872.465400	134.118881
2873.771293	127.353147
2875.072332	129.941259
2876.374704	126.126573
2877.675318	122.862937
2878.977264	124.944755
2880.278998	112.699301
2881.577428	106.764336
2882.877191	104.670629
2884.175197	113.300000
2885.472991	114.181818
2886.769028	122.178322
2888.066399	118.079021
2889.362015	117.127273
2890.657419	130.224476
2891.952612	124.895804
2893.244508	121.092308
2894.539279	130.154545
2895.830755	123.799301
2897.123563	118.193007
2898.416161	113.646154
2899.705464	122.520280
2900.996101	122.027972
2902.284986	130.078322
2903.575203	123.390210
2904.862129	130.634965
2906.150387	126.299301
2907.436896	119.647552
2908.723196	114.377622
2910.009288	117.310490
2911.293632	111.691608
2912.580848	114.899301
2913.863237	116.709091
2915.146958	125.902797
2916.428932	132.989510
2917.710700	145.063636
2918.990722	148.617483
2920.273614	154.623077
2921.554761	141.631469
2922.832626	139.641259
2924.113360	133.653846
2925.390813	133.255245
2926.668061	136.172028
2927.943566	137.041958
2929.221939	125.828671
2930.495498	118.978322
2931.771924	120.449650
2933.046608	122.351748
2934.319553	117.700000
2935.593829	121.632867
2936.866364	117.477622
2938.138696	116.080420
2939.407755	119.949650
2940.679679	115.297203
2941.949865	122.249650
2943.219847	120.915385
2944.489626	127.099301
2945.757668	134.081119
2947.023975	140.669231
2948.290079	142.140559
2949.557514	138.203497
2950.823213	145.616084
2952.088710	148.024476
2953.354006	142.965734
2954.616036	140.013986
2955.879396	135.490909
2957.142555	137.073427
2958.403981	137.092308
2959.666738	146.523077
2960.927762	144.480420
2962.187056	131.445455
2963.446149	128.760140
2964.705042	122.564336
2965.963735	123.634266
2967.222228	127.377622
2968.478992	124.851049
2969.735557	115.684615
2970.990393	114.202797
2972.246559	109.944056
2973.499470	116.402797
2974.753709	120.741958
2976.007750	107.388811
2977.260065	96.949650
2978.512182	99.753147
2979.762574	99.225874
2981.015821	103.618881
2982.264291	105.492308
2983.515616	107.724476
2984.763691	109.557343
2986.011569	110.483217
2987.259251	110.322378
2988.506735	117.533566
2989.752498	114.159441
2990.998064	107.118881
2992.244959	109.599301
2993.488609	103.937762
2994.733586	105.186014
2995.975321	104.940559
2997.219907	109.814685
2998.462774	110.939161
2999.702400	117.265734
3000.944876	112.195804
3002.184112	110.643357
3003.424676	114.727972
3004.663523	106.185315
3005.902176	118.825874
3007.139113	116.977622
3008.377378	110.521678
3009.613927	111.137063
3010.850283	114.432168
3012.086445	118.900000
3013.320893	115.615385
3014.555148	126.058741
3015.789210	127.295804
3017.021560	130.900699
3018.252198	131.851748
3019.485682	125.602098
3020.717455	127.408392
3021.947516	114.962937
3023.177386	108.355944
3024.405546	96.165734
3025.635033	99.626573
3026.862810	91.848951
3028.090396	92.226573
3029.319308	98.893706
3030.543478	101.142657
3031.770491	107.128671
3032.994281	114.598601
3034.219396	124.448951
3035.442806	136.025175
3036.666025	146.166434
3037.887539	147.767133
3039.111894	156.092308
3040.331514	163.072028
3041.552460	153.734965
3042.773216	151.831469
3043.992270	145.550350
3045.212648	137.845455
3046.429810	126.789510
3047.648297	129.879021
3048.865083	129.074126
3050.081680	128.824476
3051.298090	129.846154
3052.511286	117.348252
3053.727320	124.469930
3054.940142	123.281119
3056.155801	117.569930
3057.366737	114.536364
3058.578999	103.511189
3059.791073	98.255245
3061.002961	97.820280
3062.213152	103.242657
3063.423156	100.133566
3064.632974	103.366434
3065.841096	106.197902
3067.049033	99.986014
3068.255274	106.939161
3069.462840	114.120280
3070.668711	99.722378
3071.874397	86.799301
3073.079899	72.737762
3074.283707	72.909790
3075.488839	77.113287
3076.692278	82.146154
3077.894025	96.493706
3079.095589	106.130769
3080.296969	118.819580
3081.498165	122.207692
3082.697671	127.400000
3083.896994	135.415385
3085.097640	117.096503
3086.296596	110.235664
3087.492357	93.922378
3088.690948	85.466434
3089.886345	75.758741
3091.083066	77.979021
3092.276594	81.631469
3093.472950	83.990210
3094.667619	85.022378
3095.859098	85.997203
3097.054908	96.195804
3098.246025	100.272028
3099.438465	106.229371
3100.627716	105.905594
3101.819794	97.502098
3103.010188	95.904196
3104.197396	84.393007
3105.385926	80.651748
3106.575779	81.917483
3107.762447	90.502098
3108.948936	92.174825
3110.135246	87.337762
3111.322877	84.521678
3112.507326	83.337063
3113.690096	88.583217
3114.875688	88.372028
3116.059601	93.681818
3117.241834	90.676923
3118.423890	76.098601
3119.605767	80.363636
3120.787466	81.906993
3121.967488	78.367832
3123.145833	70.856643
3124.326998	61.310490
3125.504988	63.929371
3126.682801	66.647552
3127.860437	72.745455
3129.036398	90.714685
3130.212183	102.535664
3131.389288	108.157343
3132.564720	113.420979
3133.738478	121.737762
3134.910563	114.797902
3136.083969	110.177622
3137.257200	100.011888
3138.428759	99.312587
3139.601638	95.848951
3140.771350	94.340559
3141.942383	98.213986
3143.111745	107.038462
3144.279438	104.420979
3145.449946	109.586014
3146.615795	110.269930
3147.785954	103.025175
3148.951455	91.779021
3150.116783	86.436364
3151.281937	77.212587
3152.446918	79.710490
3153.613218	75.560140
3154.774865	82.527273
3155.937833	82.632867
3157.100628	87.200000
3158.263249	80.971329
3159.424206	90.479720
3160.584991	89.397902
3161.745603	79.383916
3162.904551	75.323776
3164.063327	81.406294
3165.221932	84.936364
3166.380365	89.614685
3167.538626	88.693706
3168.695226	95.963636
3169.850164	98.351049
3171.006421	110.964336
3172.161017	108.987413
3173.315443	113.186713
3174.468208	112.262238
3175.620804	96.253846
3176.773230	93.341958
3177.925485	94.718182
3179.077571	84.829371
3180.226510	84.849650
3181.378256	85.695105
3182.528345	90.808392
3183.676776	88.054545
3184.825039	95.579021
3185.973133	96.149650
3187.121058	96.351748
3188.267327	99.401399
3189.413428	87.358741
3190.557875	82.406294
3191.702153	86.206294
3192.846264	83.872727
3193.991693	88.995804
3195.133983	88.306294
3196.276105	85.383217
3197.418061	76.129371
3198.559849	82.247552
3199.701470	87.776923
3200.839956	92.514685
3201.979759	104.066434
3203.120879	101.011888
3204.258866	95.532867
3205.395202	94.645455
3206.531374	92.426573
3207.668862	89.547552
3208.804702	86.090909
3209.941859	88.859441
3211.074403	90.102797
3212.211228	99.384615
3213.343443	105.116783
3214.476974	116.889510
3215.610340	116.720979
3216.740580	109.457343
3217.873617	100.903497
3219.003527	94.471329
3220.134755	89.046154
3221.262857	92.332168
3222.393757	91.418182
3223.523012	96.632867
3224.650624	103.815385
3225.775113	104.632168
3226.903878	113.479720
3228.029521	114.021678
3229.155001	110.725175
3230.278840	111.706993
3231.405474	118.587413
3232.527510	132.386014
3233.650862	149.717483
3234.774051	158.006993
3235.897079	153.774126
3237.018467	153.246853
3238.139694	154.979720
3239.259282	143.829371
3240.378709	145.675524
3241.496499	135.269930
3242.617080	124.417483
3243.734548	122.779021
3244.851855	120.267832
3245.969002	127.878322
3247.084512	126.651049
3248.201338	116.296503
3249.315053	105.454545
3250.431559	97.277622
3251.546429	97.896503
3252.658191	90.893706
3253.769794	89.488112
3254.882712	95.632168
3255.995470	97.244755
3257.105122	108.412587
3258.216089	105.608392
3259.326897	108.958741
3260.436073	95.847552
3261.543618	100.074126
3262.652478	96.544056
3263.761179	92.430769
3264.866778	96.731469
3265.973692	83.699301
3267.078976	81.165035
3268.185574	91.200699
3269.289072	95.130070
3270.393884	96.780420
3271.498539	97.011189
3272.600096	96.472727
3273.701496	89.202098
3274.804210	101.070629
3275.906768	104.183916
3277.006229	101.385315
3278.108474	101.959441
3279.207623	89.002098
3280.305147	89.908392
3281.402517	88.272028
3282.502668	82.851049
3283.599727	74.855944
3284.696630	69.827273
3285.793378	67.491608
3286.885567	70.787413
3287.982006	71.441259
3289.076822	68.800699
3290.171483	69.624476
3291.264523	73.985315
3292.357409	79.009790
3293.448674	94.051049
3294.541252	99.934965
3295.632210	101.179021
3296.721548	101.378322
3297.810733	96.883916
3298.901230	91.212587
3299.988643	91.278322
3301.075904	76.199301
3302.164477	64.324476
3303.252897	56.740559
3304.336771	51.134965
3305.424885	52.665734
3306.509919	63.515385
3307.593337	64.841958
3308.678067	62.557343
3309.761181	65.280420
3310.845607	56.070629
3311.926956	58.806294
3313.009616	66.038462
3314.090661	72.830769
3315.171556	69.414685
3316.250838	71.636364
3317.329969	71.909790
3318.410412	68.332168
3319.487780	71.458042
3320.566460	67.736364
3321.643528	60.773427
3322.720446	61.141958
3323.795754	55.018182
3324.870912	61.499301
3325.947381	69.574126
3327.020780	79.679720
3328.094029	83.788112
3329.168590	85.530769
3330.241542	84.630070
3331.312885	71.499301
3332.385539	72.594406
3333.455126	67.635664
3334.526024	62.583217
3335.595316	64.218881
3336.665917	60.625874
3337.734912	63.685315
3338.802302	67.500000
3339.868086	71.552448
3340.938096	86.544056
3342.005042	87.954545
3343.068928	86.780420
3344.135580	83.511189
3345.200629	87.979021
3346.264074	83.711189
3347.327373	80.916084
3348.390525	76.806294
3349.453531	70.228671
3350.516391	67.248252
3351.577648	57.085315
3352.635849	59.487413
3353.698271	71.198601
3354.757637	75.141259
3355.816857	78.808392
3356.877386	83.361538
3357.933407	81.182517
3358.992191	75.467133
3360.046468	72.069231
3361.103509	68.038462
3362.158951	66.039860
3363.215702	56.987413
3364.270856	47.143357
3365.324412	60.273427
3366.376371	62.818881
3367.431093	72.576224
3368.482765	80.993007
3369.534293	82.397203
3370.587131	78.429371
3371.636921	80.598601
3372.688020	85.592308
3373.736072	87.251748
3374.786885	82.397203
3375.834652	76.083217
3376.882277	74.565035
3377.929760	79.989510
3378.975650	73.055944
3380.022848	78.314685
3381.067003	72.356643
3382.113917	62.576923
3383.159240	59.881818
3384.201521	66.760140
3385.243661	65.593007
3386.287110	61.921678
3387.330417	61.793706
3388.372134	66.066434
3389.413711	72.353846
3390.455146	73.387413
3391.494993	83.965035
3392.533251	82.458741
3393.572817	78.390909
3394.612243	72.790909
3395.650081	68.861538
3396.686332	58.839860
3397.722443	49.546154
3398.759862	44.339161
3399.794248	47.688811
3400.829942	45.802797
3401.865496	55.048951
3402.898018	50.541958
3403.933294	60.784615
3404.965540	54.457343
3405.997646	61.144056
3407.028170	58.008392
3408.060000	56.910490
3409.091692	55.381818
3410.120356	61.688811
3411.148883	71.864336
3412.178716	77.346154
3413.208412	80.111888
3414.235082	87.348252
3415.263058	86.484615
3416.288010	85.282517
3417.315713	75.854545
3418.340391	78.511189
3419.366376	75.116783
3420.390782	77.474825
3421.415051	66.987413
3422.437741	65.127972
3423.460295	63.135664
3424.484155	56.797203
3425.504995	59.751748
3426.525699	61.856543
3427.547709	64.987812
3428.566701	68.903596
3429.585558	73.361938
3430.605721	78.120879
3431.622867	82.938462
