-117.633747	-0.678297
-114.964146	-2.209890
-112.297481	-3.224326
-109.631568	-3.795904
-106.968588	-3.998926
-104.304177	-3.907692
-101.642697	-3.596503
-98.979788	-6.423077
-96.321985	-1.572727
-93.662753	-1.361538
-91.004269	-0.406294
-88.348710	2.100000
-85.691721	3.330070
-83.039831	2.879021
-80.386511	6.210490
-77.736110	5.174825
-75.084281	7.809091
-72.437542	6.266434
-69.789373	6.171329
-67.141947	4.015385
-64.497436	5.587413
-61.851495	2.606993
-59.210636	4.288811
-56.568348	4.225874
-53.928969	5.015385
-51.288161	3.451748
-48.648092	7.460140
-46.013097	4.792308
-43.376672	8.926573
-40.743150	8.527273
-38.108200	12.500000
-35.478316	14.844056
-32.844838	16.772028
-30.216423	15.505594
-27.588742	17.900000
-24.959632	8.137762
-22.335580	-24.879720
-19.707937	-144.960140
-17.085349	-505.902098
-14.463491	-797.901399
-11.842364	461.192308
-9.221968	2432.829371
-6.604459	4034.136364
-3.985522	5148.931469
-1.369471	5773.887413
1.245853	5905.213986
3.860448	5548.544056
6.472162	4708.174825
9.085303	3410.389510
11.693412	1741.558042
14.305101	-22.900000
16.911760	-1048.098601
19.519848	-531.840559
22.127210	-24.313986
24.729548	21.281119
27.335464	18.560140
29.936359	18.984615
32.538681	15.765035
35.135985	12.160140
37.736866	12.058042
40.332731	11.122378
42.930024	10.639161
45.526598	10.756643
48.118163	6.869231
50.711157	7.432168
53.301289	1.594406
55.892848	1.716783
58.481549	-0.454545
61.071676	1.338462
63.656804	1.984615
66.243360	5.367133
68.829201	6.880420
71.412189	11.378322
73.996604	13.269231
76.573889	14.549650
79.154741	11.874825
81.732744	12.410490
84.310037	8.083916
86.888757	8.673427
89.462494	5.904196
92.037658	5.366434
94.609979	1.941259
97.181593	3.596503
99.750366	2.374825
102.320566	5.168531
104.887927	5.634266
107.456715	5.443357
110.022666	4.017483
112.585782	7.430769
115.152454	9.244056
117.709904	14.103497
120.273040	21.965035
122.831217	32.740559
125.392948	48.254545
127.949722	79.255245
130.507922	126.106993
133.061170	192.688811
135.613720	275.874825
138.169820	368.530070
140.720972	465.704196
143.271427	567.618182
145.821184	654.867832
148.368122	730.579021
150.914365	785.967832
153.462033	816.026573
156.009005	826.551748
158.551041	824.383916
161.092385	814.705594
163.633035	805.900699
166.175110	795.946154
168.714375	786.606294
171.250830	778.436364
173.786595	775.697203
176.323785	767.553147
178.860284	769.427972
181.393977	764.544755
183.924866	759.718182
186.455067	755.555944
188.986694	756.376923
191.515519	752.999301
194.041545	754.210490
196.566885	750.102797
199.093650	753.066434
201.617619	752.841958
204.140902	752.697203
206.663501	751.313986
209.183307	756.534965
211.702430	758.471329
214.220870	764.799301
216.740735	774.176224
219.253597	788.880420
221.769991	800.856643
224.285704	815.131469
226.796526	822.706993
229.308773	835.443357
231.818237	842.901399
234.327023	849.451748
236.835131	848.834266
239.344663	848.416783
241.849314	846.490909
244.353289	846.678322
246.858688	845.069231
249.359212	845.142657
251.863259	842.943357
254.360336	842.194406
256.860935	836.419580
259.358763	836.518881
261.855918	833.364336
264.352401	836.288811
266.844020	830.620979
269.339159	834.690909
271.831531	836.728671
274.323233	843.851049
276.812172	843.747552
279.302534	849.591608
281.790135	851.309790
284.274976	857.193706
286.763332	864.991608
289.244748	882.778322
291.729678	900.780420
294.209762	927.750350
296.693359	946.024476
299.172114	963.962937
301.652291	966.892308
304.129717	964.218182
306.606479	950.503497
309.082577	936.981119
311.555927	920.300000
314.028616	909.762937
316.500643	902.325874
318.972008	898.639860
321.440630	890.736364
323.908592	886.919580
326.377977	874.458741
328.842539	859.160140
331.310605	837.594406
333.773850	812.234965
336.236439	792.753147
338.698371	777.809790
341.159646	768.168531
343.618186	764.440559
346.078149	758.032168
348.535380	752.175524
350.991956	743.827273
353.447878	739.740559
355.901070	733.299301
358.355685	725.221678
360.805498	716.344056
363.258807	707.346154
365.707317	701.469930
368.155177	694.315385
370.604459	685.937063
373.048946	675.875524
375.494856	664.004895
377.940117	653.009091
380.382659	641.766434
382.824553	636.499301
385.265799	634.092308
387.704331	627.823776
390.144283	624.330769
392.581522	624.703497
395.016049	620.711888
397.454064	623.406294
399.887303	624.183916
402.321962	621.219580
404.751849	615.909091
407.185221	615.042657
409.613823	610.230769
412.041783	607.420979
414.471164	602.714685
416.895781	596.277622
419.321818	588.934266
421.747216	585.416084
424.171973	577.138462
426.591971	576.114685
429.013391	571.898601
431.432114	566.795105
433.852258	554.673427
436.269707	549.491608
438.688577	534.574825
441.104752	521.570629
443.516181	506.232168
445.931086	489.952448
448.343301	474.810490
450.754882	463.808392
453.165830	450.746853
455.574090	442.862937
457.981719	436.374825
460.388715	434.897902
462.795080	431.909790
465.198762	435.377622
467.601814	436.461538
470.004236	440.681818
472.406028	445.020280
474.805142	450.059441
477.205676	456.847552
479.605581	466.198601
482.000764	470.686014
484.399412	480.532168
486.793341	493.029371
489.186644	509.573427
491.579322	531.075524
493.971373	561.070629
496.364844	605.780420
498.753602	684.302098
501.139694	848.744056
503.527206	1182.829371
505.914095	1765.453846
508.298319	2577.376923
510.683963	3505.713986
513.066945	4393.890909
515.447265	5119.131469
517.829006	5585.334266
520.208087	5741.669231
522.588586	5577.362238
524.966429	5116.609790
527.341615	4442.943357
529.716184	3683.537063
532.092172	3002.743357
534.465507	2493.164336
536.840259	2156.506993
539.210325	1927.118182
541.579777	1747.344755
543.950646	1602.443357
546.316834	1477.330769
548.684441	1374.886014
551.049402	1292.829371
553.413751	1225.420979
555.777486	1167.689510
558.142639	1112.669930
560.503120	1070.853846
562.865018	1028.958042
565.224277	998.881818
567.580897	965.358042
569.940963	940.220280
572.294337	912.379021
574.651156	887.881119
577.005340	865.407692
579.358915	843.359441
581.711883	822.395105
584.062218	800.713986
586.413971	775.831469
588.759047	756.936364
591.109586	735.091608
593.453453	719.802797
595.802781	701.696503
598.147460	692.380420
600.489515	679.445455
602.832987	680.135664
605.173836	687.909091
607.514082	704.610490
609.851708	724.383916
612.192769	739.901399
614.529193	746.677622
616.867033	754.270629
619.202256	749.216783
621.534862	738.388112
623.868886	716.541259
626.200295	695.114685
628.531106	671.974126
630.861319	661.923077
633.190935	650.851748
635.515927	646.580420
637.846361	639.278322
640.172174	633.572028
642.495379	629.396503
644.820001	626.416084
647.142017	616.572028
649.463439	606.845455
651.782258	595.274126
654.102494	585.608392
656.422135	581.017483
658.739177	579.335664
661.055626	575.896503
663.369477	577.248252
665.684744	572.939161
667.997414	576.955245
670.311499	576.893706
672.620984	575.864336
674.931885	571.841958
677.240192	567.395804
679.547912	559.744755
681.857047	553.174825
684.161589	546.473427
686.465545	542.151748
688.768914	532.915385
691.073699	525.591608
693.373896	510.121678
695.675509	500.533566
697.976536	486.539161
700.272982	476.959441
702.570843	468.430769
704.868120	465.620979
707.164814	464.039860
709.456932	461.855944
711.752460	459.403497
714.043416	462.167832
716.335786	456.516084
718.625580	456.766434
720.914795	452.774825
723.203430	452.999301
725.489492	448.736364
727.776968	449.386014
730.061874	452.883916
732.346202	455.330070
734.627961	454.535664
736.911134	451.918881
739.193730	446.895105
741.471770	444.529371
743.751224	437.809790
746.030103	438.335664
748.308407	432.584615
750.582160	431.889510
752.857328	424.478322
755.131922	422.790909
757.403957	423.909091
759.677405	423.444755
761.948295	425.703497
764.216629	429.617483
766.486376	428.625874
768.753568	433.560140
771.020191	439.424476
773.286243	443.940559
775.549744	441.295105
777.814657	442.159441
780.079002	436.036364
782.338816	437.711189
784.600044	440.950350
786.860704	443.281119
789.118818	446.620280
791.374387	447.839860
793.633346	445.743357
795.885807	449.383217
798.143635	448.370629
800.396944	445.374825
802.647712	440.906993
804.899894	436.616084
807.149536	431.958741
809.400590	435.271329
811.647133	435.334266
813.895089	436.581119
816.140509	437.879720
818.387342	434.669231
820.633612	431.874825
822.875379	426.481119
825.120528	419.711888
827.359206	415.259441
829.601265	409.774825
831.838826	403.511189
834.077799	397.742657
836.314245	403.685315
838.552102	407.252448
840.787434	416.746853
843.020242	421.636364
845.254462	422.894406
847.486160	423.530070
849.717303	431.009091
851.947891	429.051748
854.177925	424.190909
856.407404	416.211189
858.632403	409.718182
860.860775	401.413986
863.084669	397.179021
865.309974	396.488811
867.530803	396.462238
869.755004	390.705594
871.974732	393.518881
874.195870	396.886713
876.416458	407.772028
878.634537	406.122378
880.854025	405.540559
883.069047	397.503497
885.283521	398.005594
887.497448	393.856643
889.710827	383.320280
891.923660	380.418881
894.135945	380.054545
896.345729	375.539161
898.554967	385.053846
900.763660	385.239161
902.969853	399.263636
905.177456	406.732867
907.382562	412.341958
909.587124	418.749650
911.789191	430.046154
913.992667	443.558741
916.193649	449.634266
918.394089	457.423776
920.595938	477.435664
922.791396	492.135664
924.990212	526.256643
927.184591	564.766434
929.382327	622.081818
931.575627	687.326573
933.770336	760.279021
935.962558	826.495804
938.154243	888.351049
940.345390	941.826573
942.534054	976.869231
944.722181	992.918881
946.907828	1002.706294
949.096828	992.534965
951.281403	984.216783
953.465444	972.552448
955.652836	970.358741
957.831923	971.612587
960.014361	975.370629
962.196264	972.596503
964.375694	990.533566
966.552651	990.581119
968.731016	1000.103497
970.910788	1010.532867
973.084210	1019.916783
975.260980	1018.636364
977.433342	1013.644056
979.607112	994.576923
981.776478	971.462238
983.949188	927.100000
986.119433	873.509790
988.289148	806.297902
990.458335	754.949650
992.623125	690.873427
994.791257	644.654545
996.954993	606.155944
999.120137	569.183217
1001.282821	544.623077
1003.444980	515.397203
1005.604682	503.256643
1007.763859	505.283916
1009.924443	504.017483
1012.082572	504.981119
1014.240178	515.172028
1016.397259	526.500000
1018.553818	528.068531
1020.705997	515.970629
1022.859583	509.283217
1025.012647	481.599301
1027.163262	451.659441
1029.315283	427.736364
1031.462932	421.059441
1033.613912	425.542657
1035.760521	428.923077
1037.906611	424.120979
1040.052183	430.241259
1042.199160	407.702098
1044.339848	383.155245
1046.483865	359.547552
1048.625443	351.678322
1050.766503	327.811888
1052.908969	333.317483
1055.045154	332.838462
1057.184666	341.074126
1059.319822	371.909091
1061.458303	393.500000
1063.592431	394.295105
1065.726045	387.597203
1067.861063	377.890909
1069.991732	368.245455
1072.123807	355.224476
1074.253451	368.727273
1076.382584	380.973427
1078.511206	368.856643
1080.639316	332.712587
1082.765000	325.274126
1084.890174	333.211189
1087.016752	321.159441
1089.138992	310.123077
1091.262637	289.503497
1093.381947	313.358042
1095.506486	312.785315
1097.624781	329.034266
1099.744479	359.362238
1101.861760	362.762937
1103.978533	334.618182
1106.094800	319.149650
1108.208652	307.402098
1110.323907	312.311888
1112.434840	295.150350
1114.549085	297.651049
1116.659009	303.542657
1118.770336	322.976923
1120.881160	318.193706
1122.987667	328.453846
1125.097483	331.972727
1127.202985	322.810490
1129.309891	307.473427
1131.410581	297.900000
1133.516483	295.177622
1135.618076	300.520280
1137.721071	293.551748
1139.823567	297.647552
1141.919855	303.801399
1144.021350	301.228671
1146.118543	299.251049
1148.215237	302.118881
1150.311434	302.755245
1152.407132	288.583217
1154.502333	283.785315
1156.595137	290.584615
1158.689343	298.827972
1160.777358	299.107692
1162.870571	294.869231
1164.957596	296.718881
1167.047921	305.490210
1169.133957	302.080420
1171.223291	304.712587
1173.306444	305.584615
1175.391000	299.893007
1177.476957	296.966434
1179.558632	302.622378
1181.641708	303.748951
1183.722399	303.785315
1185.802599	299.233566
1187.882307	291.982517
1189.961524	297.194406
1192.038358	301.904895
1194.112812	292.286713
1196.190558	288.288112
1198.264033	284.923776
1200.338910	274.450350
1202.409519	280.151049
1204.481529	273.732168
1206.551163	267.395105
1208.622198	263.822378
1210.692745	264.776224
1212.759032	267.938462
1214.826719	272.756643
1216.892033	285.304895
1218.958748	289.072028
1221.021207	282.439860
1223.086952	287.453846
1225.148442	287.582517
1227.211332	296.285315
1229.271855	288.731469
1231.331895	283.488112
1233.391451	281.691608
1235.448643	280.115385
1237.505352	276.859441
1239.559699	268.332168
1241.617326	274.771329
1243.672591	268.589510
1245.723615	268.214685
1247.776040	275.718881
1249.827984	284.074825
1251.877570	293.209091
1253.926677	300.161538
1255.975305	306.039860
1258.023455	307.794406
1260.071127	306.213986
1262.114568	305.797902
1264.161285	302.102797
1266.205648	309.397203
1268.249534	307.995105
1270.291070	309.855245
1272.330256	310.251049
1274.372715	311.560839
1276.410951	312.874825
1278.450586	305.286713
1280.489745	299.561538
1282.524687	293.958042
1284.561027	291.116084
1286.595022	292.414685
1288.630416	294.303497
1290.661596	303.413287
1292.694175	299.719580
1294.726282	297.118182
1296.756048	295.914685
1298.787211	290.351049
1300.814167	287.872727
1302.842522	284.918881
1304.866671	277.390909
1306.894086	267.304196
1308.917298	270.494406
1310.941908	272.188112
1312.964183	278.639161
1314.987856	287.858042
1317.009196	291.069231
1319.030069	297.370629
1321.050474	301.907692
1323.066686	298.085315
1325.084295	306.547552
1327.099576	309.634965
1329.118116	304.046154
1331.132466	301.414685
1333.144491	307.090909
1335.159774	301.647552
1337.170871	305.991608
1339.183364	307.374825
1341.191675	304.856643
1343.203242	296.676923
1345.208770	291.596503
1347.217553	276.281818
1349.222158	278.127972
1351.230017	275.548252
1353.237414	273.102797
1355.238780	278.981119
1357.241542	280.835664
1359.243845	284.192308
1361.245688	283.667133
1363.247071	284.726573
1365.246140	278.688811
1367.244751	275.394406
1369.242904	282.855245
1371.240599	277.986713
1373.234131	276.583217
1375.229058	269.176923
1377.223529	270.492308
1379.217543	277.716783
1381.209250	273.211888
1383.200501	270.869231
1385.189447	266.465035
1387.179788	261.887413
1389.169675	248.171329
1391.157257	246.091608
1393.144386	245.018881
1395.129213	243.707692
1397.115435	241.820979
1399.099356	241.151748
1401.082825	246.831469
1403.065842	245.939161
1405.046561	251.725175
1407.028674	256.512587
1409.008490	261.717483
1410.987856	258.913986
1412.963083	258.765035
1414.941548	261.059441
1416.917720	262.165035
1418.893442	272.325175
1420.868715	274.404895
1422.841698	278.569231
1424.814232	281.672727
1426.786318	279.885315
1428.757957	279.117483
1430.725467	276.410490
1432.698051	274.453147
1434.662829	274.325175
1436.632680	277.377622
1438.598406	273.152448
1440.565526	274.430070
1442.530362	279.185315
1444.491078	282.481818
1446.456862	279.317483
1448.416691	270.360839
1450.377914	259.058042
1452.340528	249.730769
1454.299028	250.783916
1456.257086	252.858042
1458.214701	254.187413
1460.171875	254.030070
1462.126773	255.324476
1464.083064	262.646154
1466.037080	266.628671
1467.990655	274.526573
1469.941958	273.598601
1471.894653	275.447552
1473.845077	273.700699
1475.795062	271.264336
1477.744608	275.467133
1479.691885	274.016084
1481.636894	266.003497
1483.583296	256.257343
1485.529260	252.537063
1487.474787	245.238462
1489.418048	236.890909
1491.360873	237.505594
1493.301435	225.632867
1495.243389	217.995105
1497.183080	211.896503
1499.122336	209.963636
1501.061158	219.237762
1502.997720	217.952448
1504.935673	225.092308
1506.871367	228.766434
1508.806628	242.086014
1510.739632	249.588112
1512.672204	247.926573
1514.604344	248.609091
1516.536052	247.570629
1518.465507	252.426573
1520.396352	259.835664
1522.326765	265.523776
1524.253106	272.234965
1526.180837	266.041958
1528.106319	269.296503
1530.031371	267.458741
1531.955993	268.410490
1533.880187	262.982517
1535.802134	253.079021
1537.725471	249.775524
1539.646561	257.923077
1541.565407	265.779720
1543.485643	273.376224
1545.403635	284.951049
1547.321201	289.744755
1549.236526	299.630769
1551.153240	311.320280
1553.065898	332.893007
1554.981761	343.528671
1556.895385	362.781818
1558.806770	381.411189
1560.719545	393.680420
1562.628270	412.618881
1564.538384	443.390909
1566.448075	482.774126
1568.357343	543.957343
1570.264376	618.881119
1572.169177	735.411189
1574.075367	861.141259
1575.979326	994.150350
1577.882863	1101.116084
1579.785980	1177.374825
1581.686867	1201.379021
1583.589143	1169.248951
1585.489190	1101.100699
1587.390626	1007.946853
1589.288027	876.049650
1591.185011	744.967832
1593.081576	629.498601
1594.979528	554.391608
1596.871646	484.754545
1598.766958	445.932867
1600.661851	409.230769
1602.554524	372.053846
1604.446779	350.804196
1606.336815	342.421678
1608.226435	340.727972
1610.115640	330.167832
1612.004429	309.297902
1613.891002	303.323776
1615.778962	306.156643
1617.662905	308.242657
1619.548235	301.638462
1621.433152	308.686713
1623.315855	295.152448
1625.199945	279.693706
1627.080023	280.402098
1628.961488	280.830769
1630.840743	274.793007
1632.721385	267.662937
1634.596222	271.787413
1636.476040	264.101399
1638.351853	240.067133
1640.227257	231.251049
1642.104046	221.567133
1643.975038	215.075524
1645.849213	199.049650
1647.719388	196.950350
1649.592744	200.729371
1651.463897	204.068531
1653.332848	224.544056
1655.203185	244.911888
1657.069528	253.505594
1658.937258	242.533566
1660.802788	229.887413
1662.669704	242.300699
1664.532630	241.409790
1666.396943	244.546154
1668.259059	245.861538
1670.120770	237.886713
1671.983866	236.816084
1673.844768	227.835664
1675.703477	220.572727
1677.561782	213.632867
1679.421471	198.388112
1681.275394	182.518182
1683.132490	165.983916
1684.989182	169.888112
1686.841899	176.116783
1688.697787	200.730070
1690.549701	199.827972
1692.401214	190.874825
1694.252326	206.011189
1696.103037	199.870629
1697.953348	187.737063
1699.801475	189.266434
1701.650986	191.886713
1703.494747	197.073427
1705.343459	196.907692
1707.186424	195.664336
1709.032555	206.888811
1710.874725	215.302098
1712.720059	210.722378
1714.559653	219.093007
1716.400632	215.254545
1718.242993	204.495105
1720.081397	191.449650
1721.921185	193.054545
1723.758798	202.097203
1725.596016	217.185315
1727.431060	215.262238
1729.267487	197.986713
1731.101741	200.765734
1732.935602	202.612587
1734.769068	210.237063
1736.598588	210.154545
1738.431267	202.593007
1740.260002	203.651049
1742.091895	204.016783
1743.919845	202.547552
1745.747403	205.025175
1747.574570	218.549650
1749.401345	222.027273
1751.227728	207.744056
1753.050175	196.973427
1754.875777	196.258741
1756.697443	185.546154
1758.520492	202.340559
1760.341380	201.175524
1762.161878	197.187413
1763.983758	195.534266
1765.799938	202.023776
1767.619270	211.558042
1769.434675	213.595804
1771.253231	216.176923
1773.067861	199.375524
1774.882104	189.476224
1776.695961	188.904895
1778.509431	191.035664
1780.320747	212.794406
1782.133445	195.956643
1783.945756	203.267832
1785.754150	201.762238
1787.563925	208.065734
1789.369784	208.839860
1791.178790	201.991608
1792.983882	205.684615
1794.790355	203.670629
1796.596443	199.190210
1798.398622	199.930769
1800.203944	198.693706
1802.005358	196.481818
1803.808153	201.420979
1805.607041	211.346154
1807.407310	212.311189
1809.207197	222.753846
1811.004942	221.262937
1812.802307	219.070629
1814.599291	219.668531
1816.395895	224.318182
1818.190360	212.700000
1819.986205	210.298601
1821.776394	203.655245
1823.571480	197.626573
1825.360913	201.898601
1827.153484	211.692308
1828.943919	202.754545
1830.732219	188.586014
1832.523655	178.930070
1834.309446	175.953846
1836.096615	172.638462
1837.881654	175.791608
1839.669825	169.679720
1841.454111	180.971329
1843.236268	189.402797
1845.019804	198.100000
1846.801211	207.216084
1848.583996	221.146853
1850.362902	210.704895
1852.143186	213.497902
1853.921345	207.688811
1855.700881	208.065035
1857.478293	200.823077
1859.253582	191.705594
1861.030248	180.908392
1862.804792	185.098601
1864.580713	185.818881
1866.351015	189.835664
1868.124444	193.805594
1869.895753	207.541958
1871.666691	224.402098
1873.439007	230.681818
1875.205709	223.434965
1876.975536	235.658741
1878.741500	222.844056
1880.510588	213.783217
1882.275814	195.165734
1884.040672	189.656643
1885.806906	179.414685
1887.569282	178.170629
1889.331291	172.651748
1891.092933	176.441259
1892.854207	184.920280
1894.615115	187.897203
1896.375655	186.104895
1898.134087	186.237762
1899.892152	181.788112
1901.648110	189.222378
1903.405444	190.530769
1905.162413	203.337063
1906.917275	206.152448
1908.670032	206.934266
1910.422426	198.389510
1912.176196	192.479021
1913.927862	190.409790
1915.677425	187.165734
1917.428365	171.806294
1919.178941	158.869930
1920.925679	155.727273
1922.673792	157.243357
1924.419806	163.679720
1926.167196	171.399301
1927.912487	174.362238
1929.655681	171.538462
1931.400251	174.778322
1933.142724	182.203497
1934.884837	180.735664
1936.626591	184.086014
1938.367984	180.574126
1940.107284	186.614685
1941.846225	194.998601
1943.584807	193.306294
1945.321298	197.603497
1947.057430	193.525874
1948.794938	190.211189
1950.528623	180.420979
1952.263683	180.725175
1953.996654	179.017483
1955.729269	162.343357
1957.461527	157.667832
1959.193429	157.427972
1960.923246	164.385315
1962.650977	164.056643
1964.380083	160.144755
1966.108833	158.018881
1967.835500	157.844755
1969.561813	159.218881
1971.289500	157.327972
1973.011650	163.513986
1974.736901	153.806294
1976.458345	152.818881
1978.182889	157.012587
1979.905354	155.140559
1981.624015	159.145455
1983.345775	158.475524
1985.063733	164.165734
1986.783065	166.516084
1988.498597	179.090909
1990.218949	179.941958
1991.935503	181.074126
1993.648260	180.866434
1995.364113	180.848252
1997.077894	186.160140
1998.791325	188.390210
2000.502685	182.646154
2002.215417	178.616084
2003.924358	175.188112
2005.636393	180.996503
2007.342918	184.428671
2009.052536	187.020979
2010.760086	183.574825
2012.467289	178.630769
2014.172426	178.494406
2015.877216	174.676224
2017.583379	167.466434
2019.285758	163.611888
2020.989510	159.543357
2022.691199	155.675524
2024.392542	153.997902
2026.093541	158.514685
2027.792478	163.336364
2029.492787	168.048951
2031.189320	165.881119
2032.887225	163.963636
2034.583072	160.541259
2036.282004	155.080420
2037.975450	152.037762
2039.670267	150.406993
2041.364741	155.359441
2043.055448	158.603497
2044.749237	154.908392
2046.439261	163.260839
2048.130654	170.703497
2049.819995	178.705594
2051.510707	171.344056
2053.197655	177.711189
2054.884263	174.665734
2056.572242	176.847552
2058.256461	174.274825
2059.942050	179.213287
2061.627300	186.175524
2063.310502	185.059441
2064.995074	169.079720
2066.674182	167.941958
2068.358077	156.265035
2070.036510	149.697203
2071.718021	141.227273
2073.395780	147.059441
2075.073203	148.929371
2076.751995	160.111888
2078.428744	169.679720
2080.103452	183.537762
2081.779530	191.222378
2083.453566	190.221678
2085.127267	176.265734
2086.800634	172.116084
2088.471961	157.995804
2090.142954	149.497203
2091.813613	148.297902
2093.483938	146.250350
2095.153929	150.467832
2096.821883	156.013287
2098.489505	154.874126
2100.155093	164.730070
2101.822049	166.731469
2103.486972	171.124476
2105.151563	168.381119
2106.814122	165.553147
2108.478049	160.091608
2110.139945	153.637762
2111.801510	155.390909
2113.462745	155.133566
2115.121950	155.760839
2116.780826	155.488112
2118.439371	154.985315
2120.097587	159.101399
2121.752080	161.206993
2123.409637	168.895105
2125.066864	165.422378
2126.720371	169.389510
2128.375245	167.316783
2130.026400	161.949650
2131.680618	164.502797
2133.331118	166.269231
2134.982986	161.490210
2136.629445	159.262238
2138.280658	150.216783
2139.928159	146.479720
2141.577026	143.837762
2143.223874	150.297203
2144.870397	150.015385
2146.516594	154.260839
2148.159082	151.669231
2149.804629	156.812587
2151.446469	155.192308
2153.091366	157.813287
2154.732558	149.416084
2156.373426	143.032867
2158.013971	134.360140
2159.652503	135.571329
2161.292401	139.742657
2162.928599	149.396503
2164.566163	157.071329
2166.203405	158.676923
2167.838637	170.417483
2169.473547	169.016783
2171.108136	157.552448
2172.742404	158.744056
2174.372978	146.344056
2176.006604	143.604895
2177.636537	141.177622
2179.267837	143.498601
2180.897131	143.888811
2182.526106	141.617483
2184.154761	152.134965
2185.783097	152.419580
2187.409430	155.779720
2189.035445	148.559441
2190.659459	144.008392
2192.284838	143.155245
2193.908216	141.701399
2195.532959	146.455944
2197.154021	142.755245
2198.774766	137.819580
2200.396875	135.647552
2202.016987	140.916084
2203.635103	149.386713
2205.252903	157.271329
2206.870387	160.628671
2208.487556	163.785315
2210.104410	159.722378
2211.720949	171.379720
2213.335494	177.681818
2214.948048	178.211888
2216.561965	164.174126
2218.173891	151.083217
2219.787180	142.133566
2221.398478	143.988112
2223.007788	141.320979
2224.618460	138.056643
2226.227144	137.206294
2227.835516	139.581119
2229.441901	148.243357
2231.049648	172.772028
2232.655410	174.902797
2234.260860	181.153147
2235.864325	177.479021
2237.469153	171.292308
2239.071997	170.690909
2240.672858	171.669930
2242.275082	158.562238
2243.875324	144.034965
2245.476928	146.731469
2247.074879	140.272727
2248.674193	132.859441
2250.271527	137.076923
2251.868553	133.730769
2253.466940	143.784615
2255.061680	147.869231
2256.654442	151.247552
2258.248567	149.825874
2259.844053	152.033566
2261.435894	141.151748
2263.027429	139.938462
2264.620325	150.481119
2266.207912	148.006294
2267.800196	144.744755
2269.387172	160.999301
2270.977177	167.864336
2272.561877	179.693007
2274.151271	174.075524
2275.735362	177.729371
2277.320815	163.154545
2278.904299	148.889510
2280.490808	133.062238
2282.073684	126.769231
2283.656257	122.820979
2285.238526	115.731469
2286.817165	120.426573
2288.398829	132.904196
2289.976864	137.489510
2291.557922	147.574126
2293.135353	138.465734
2294.710821	148.207692
2296.289311	142.472727
2297.864177	134.162937
2299.438742	137.355944
2301.013006	119.832168
2302.586970	114.190210
2304.160634	110.897203
2305.733998	120.067133
2307.303742	122.367832
2308.873189	119.851748
2310.445653	127.375524
2312.012843	125.726573
2313.583050	132.183217
2315.149644	139.182517
2316.717596	152.326573
2318.283594	153.809091
2319.849294	145.402098
2321.414696	161.290210
2322.978145	169.962937
2324.542953	173.326573
2326.104152	167.000699
2327.668366	172.514685
2329.227319	171.266434
2330.789285	162.188811
2332.349301	149.548951
2333.909021	156.259441
2335.466792	157.279720
2337.024269	145.653147
2338.581451	148.134266
2340.136685	162.734965
2341.691625	156.318881
2343.246272	146.959441
2344.800625	154.329371
2346.354684	159.012587
2347.908450	158.881119
2349.460271	140.588112
2351.010149	133.699301
2352.563036	140.657343
2354.110679	148.713287
2355.661330	165.641259
2357.208391	176.321678
2358.756809	179.423077
2360.304935	174.780420
2361.849474	177.658741
2363.395370	187.404196
2364.939327	188.604196
2366.484642	186.701399
2368.026372	155.989510
2369.569460	149.546853
2371.110611	141.695105
2372.651473	149.067832
2374.192046	157.064336
2375.732330	146.793007
2377.272325	138.876224
2378.808741	142.535664
2380.348159	137.904196
2381.884000	145.928671
2383.421198	157.365734
2384.954820	148.966434
2386.491442	142.362937
2388.026134	140.046853
2389.558895	140.923077
2391.091371	140.641958
2392.621918	135.426573
2394.155463	133.252448
2395.683797	142.087413
2397.213487	153.448252
2398.742892	150.476224
2400.272012	160.490210
2401.800846	168.447552
2403.324476	163.693706
2404.852741	169.081119
2406.375803	156.413986
2407.903500	163.776923
2409.424357	158.020979
2410.949846	156.459441
2412.471776	171.335664
2413.995060	183.665734
2415.516424	183.968531
2417.035868	185.544056
2418.556667	191.073427
2420.075547	188.836364
2421.594146	191.135664
2423.110826	189.821678
2424.628862	170.062238
2426.146616	178.074126
2427.660818	180.965734
2429.174741	183.366434
2430.688383	194.146154
2432.203379	194.021678
2433.714828	197.110490
2435.227630	205.176224
2436.738520	213.346154
2438.249131	208.397203
2439.757830	221.467133
2441.269515	229.787413
2442.777657	230.032168
2444.285521	237.071329
2445.793106	254.158741
2447.297152	268.544755
2448.804182	275.965035
2450.309304	277.776923
2451.814149	279.516783
2453.317087	276.330070
2454.819748	284.215385
2456.322134	270.094406
2457.822613	259.774126
2459.324447	257.662238
2460.824375	238.258741
2462.324028	218.702098
2463.823406	200.239860
2465.320881	180.888811
2466.816454	178.198601
2468.315007	179.837762
2469.810032	181.236364
2471.306409	185.234266
2472.799260	203.127273
2474.293464	195.352448
2475.787394	203.323077
2477.277800	208.439860
2478.771184	195.562937
2480.262670	187.809790
2481.752259	166.572028
2483.241576	164.520979
2484.728997	178.317483
2486.219394	168.157343
2487.706273	177.775524
2489.194503	188.651049
2490.679216	197.087413
2492.163659	184.744056
2493.649454	202.021678
2495.133357	192.808392
2496.618610	180.151049
2498.098730	167.601399
2499.581822	157.398601
2501.063025	155.297902
2502.543958	155.715385
2504.023001	135.683916
2505.501777	169.260140
2506.980284	183.320979
2508.458522	178.684615
2509.936493	183.467133
2511.410958	193.196503
2512.888393	180.823077
2514.362323	167.995105
2515.837605	143.414685
2517.312619	140.075524
2518.784132	131.780420
2520.256996	123.629371
2521.727977	104.220979
2523.200308	121.562238
2524.667525	113.790210
2526.137709	121.848951
2527.606012	144.517483
2529.074049	146.325874
2530.541822	155.006993
2532.009330	156.847552
2533.476574	157.084615
2534.940325	170.663636
2536.405426	172.258042
2537.868650	180.338462
2539.333223	170.725175
2540.794308	153.709790
2542.256742	148.674825
2543.718913	155.833566
2545.177597	150.460839
2546.640854	142.010490
2548.099014	143.593706
2549.558523	140.530769
2551.012939	145.190210
2552.471925	157.281818
2553.929039	168.355944
2555.384281	192.471329
2556.839263	182.831469
2558.292375	180.843357
2559.746836	177.968531
2561.199428	181.365035
2562.651760	162.900000
2564.102224	161.966434
2565.555645	162.675524
2567.003983	158.926573
2568.455276	155.068531
2569.904703	164.018881
2571.350659	162.930769
2572.799569	179.830769
2574.245008	174.366434
2575.691796	180.353147
2577.136720	173.438462
2578.581387	174.636364
2580.027401	170.960839
2581.469948	169.696503
2582.913843	157.290909
2584.354273	153.412587
2585.796051	150.652448
2587.235969	156.482517
2588.677234	154.130769
2590.115037	159.358741
2591.555790	163.545455
2592.991481	164.462238
2594.430120	163.040559
2595.866903	154.214685
2597.301830	157.825874
2598.739704	147.405594
2600.172521	141.420280
2601.606685	159.927972
2603.038994	170.087413
2604.472651	177.534266
2605.904453	179.079720
2607.336003	192.255944
2608.767299	203.669930
2610.196744	201.699301
2611.625936	193.791608
2613.053277	187.895804
2614.481965	184.716783
2615.910400	181.876923
2617.335389	183.095105
2618.761723	193.397203
2620.186210	203.756643
2621.612041	207.202797
2623.034430	219.062238
2624.458163	233.390210
2625.880051	236.517483
2627.301688	251.125175
2628.721481	250.632867
2630.142619	260.723077
2631.563507	246.449650
2632.980956	246.156643
2634.401345	234.897902
2635.818297	233.954545
2637.235001	246.394406
2638.651456	247.014685
2640.067663	259.392308
2641.483622	282.509091
2642.897740	298.368531
2644.311610	338.526573
2645.723641	357.749650
2647.137017	382.668531
2648.546963	393.805594
2649.959845	413.985315
2651.369298	424.547552
2652.778505	447.910490
2654.185876	479.546853
2655.596181	504.022378
2657.004650	538.204895
2658.411284	585.293706
2659.817673	624.483916
2661.222229	676.158042
2662.628128	730.906993
2664.032193	788.506993
2665.436015	861.646853
2666.839592	930.204196
2668.241338	1010.330769
2669.644427	1120.866434
2671.044098	1226.302797
2672.445113	1331.632168
2673.842712	1438.767133
2675.243240	1561.321678
2676.640354	1677.034266
2678.038811	1774.674825
2679.435440	1875.295105
2680.831828	1942.018881
2682.227973	1982.240559
2683.622292	1998.647552
2685.017954	1991.900699
2686.410207	1970.045455
2687.803802	1904.634965
2689.195573	1835.476923
2690.588687	1739.543357
2691.979976	1652.088811
2693.369444	1563.808392
2694.758671	1455.106993
2696.147658	1352.731469
2697.537988	1244.337762
2698.923334	1142.224476
2700.311603	1048.563636
2701.698052	957.234965
2703.084262	862.976923
2704.470233	776.410490
2705.852806	699.600699
2707.236721	620.584615
2708.620397	571.541259
2710.003836	524.100000
2711.383879	478.612587
2712.765264	449.450350
2714.144833	432.027972
2715.525744	422.377622
2716.904840	407.295804
2718.282122	399.052448
2719.660745	378.082517
2721.037554	355.964336
2722.414128	339.867832
2723.790466	317.616084
2725.164992	300.911888
2726.540859	282.440559
2727.913339	271.392308
2729.288736	264.115385
2730.659172	259.359441
2732.030948	252.327273
2733.402491	244.204196
2734.772225	233.201399
2736.143299	238.511189
2737.512566	224.300699
2738.881599	214.814685
2740.248826	195.550350
2741.615819	195.874126
2742.982580	191.136364
2744.349108	186.435664
2745.713832	183.466434
2747.078323	187.824476
2748.442582	186.097902
2749.806610	179.148252
2751.170405	175.755944
2752.530828	185.497902
2753.894160	165.586014
2755.252550	154.066434
2756.613850	146.531469
2757.971780	158.566434
2759.332618	154.653147
2760.691656	158.822378
2762.047326	159.109091
2763.405905	164.108392
2764.761116	165.449650
2766.116098	163.859441
2767.469283	163.961538
2768.825375	179.767133
2770.178103	165.597902
2771.530602	168.039161
2772.882874	175.818881
2774.236483	182.864336
2775.586731	178.600000
2776.935186	172.411189
2778.286545	169.262937
2779.634545	154.367133
2780.983884	145.123776
2782.331430	129.219580
2783.678750	123.734965
2785.025842	129.089510
2786.371144	116.374126
2787.716220	132.646154
2789.061070	147.373427
2790.405694	151.496503
2791.746965	143.519580
2793.089575	146.113986
2794.431960	146.401399
2795.774119	128.648252
2797.112929	116.147552
2798.454639	122.000000
2799.793000	131.576923
2801.132699	130.037063
2802.470612	136.606294
2803.806741	153.564336
2805.142647	156.769930
2806.479889	158.677622
2807.815348	147.123776
2809.150584	146.744755
2810.484038	145.841958
2811.818828	129.527273
2813.150277	128.637063
2814.484622	140.614685
2815.814069	135.011189
2817.144853	115.190909
2818.475415	112.705594
2819.804198	108.823077
2821.134318	100.590210
2822.462659	108.074825
2823.790778	114.112587
2825.117121	126.949650
2826.444799	141.874825
2827.769145	133.776224
2829.094827	147.954545
2830.418733	138.710490
2831.742419	127.658741
2833.067441	107.966434
2834.389134	106.477622
2835.710608	115.598601
2837.031862	109.702797
2838.352898	127.640559
2839.672162	144.969231
2840.992761	149.881818
2842.311588	148.295804
2843.630197	143.726573
2844.947036	142.862238
2846.263657	124.697902
2847.580061	117.502797
2848.894695	110.762937
2850.210664	115.762238
2851.523314	119.513287
2852.837298	122.000699
2854.151066	151.200000
2855.464617	161.771329
2856.776402	152.002098
2858.086420	151.275524
2859.397773	151.467832
2860.705811	146.417483
2862.015183	134.809091
2863.324340	137.401399
2864.633282	131.379021
2865.940461	121.728671
2867.245876	107.680420
2868.552626	100.900000
2869.857614	116.637762
2871.162387	104.819580
2872.465400	101.831469
2873.771293	104.376923
2875.072332	109.893007
2876.374704	119.565734
2877.675318	118.683916
2878.977264	135.111189
2880.278998	137.648252
2881.577428	139.297203
2882.877191	126.609790
2884.175197	132.246154
2885.472991	146.300699
2886.769028	142.355944
2888.066399	150.310490
2889.362015	152.323776
2890.657419	148.318182
2891.952612	140.994406
2893.244508	145.181119
2894.539279	141.591608
2895.830755	135.765734
2897.123563	119.952448
2898.416161	117.790210
2899.705464	123.678322
2900.996101	118.932867
2902.284986	124.034965
2903.575203	128.237063
2904.862129	133.302797
2906.150387	119.595105
2907.436896	112.934965
2908.723196	122.398601
2910.009288	115.451748
2911.293632	121.726573
2912.580848	114.669930
2913.863237	122.193706
2915.146958	128.211189
2916.428932	132.057343
2917.710700	129.493706
2918.990722	127.949650
2920.273614	117.112587
2921.554761	98.181818
2922.832626	90.738462
2924.113360	94.592308
2925.390813	99.559441
2926.668061	107.257343
2927.943566	105.672727
2929.221939	115.942657
2930.495498	136.767133
2931.771924	131.070629
2933.046608	129.657343
2934.319553	127.960140
2935.593829	129.506993
2936.866364	132.782517
2938.138696	137.525874
2939.407755	145.671329
2940.679679	132.767133
2941.949865	129.242657
2943.219847	123.036364
2944.489626	129.237762
2945.757668	123.727273
2947.023975	118.709091
2948.290079	119.710490
2949.557514	120.172028
2950.823213	122.280420
2952.088710	120.218182
2953.354006	119.127972
2954.616036	118.668531
2955.879396	102.260140
2957.142555	105.106294
2958.403981	91.811189
2959.666738	102.100000
2960.927762	100.670629
2962.187056	108.813986
2963.446149	110.200699
2964.705042	115.865035
2965.963735	106.506294
2967.222228	101.094406
2968.478992	107.500000
2969.735557	118.697203
2970.990393	115.009091
2972.246559	125.788112
2973.499470	120.959441
2974.753709	127.061538
2976.007750	125.276224
2977.260065	116.027972
2978.512182	119.587413
2979.762574	124.317483
2981.015821	115.800000
2982.264291	111.779720
2983.515616	109.630070
2984.763691	108.115385
2986.011569	98.069231
2987.259251	101.916783
2988.506735	100.685315
2989.752498	97.786014
2990.998064	101.923776
2992.244959	101.299301
2993.488609	118.361538
2994.733586	126.963636
2995.975321	121.083217
2997.219907	114.874825
2998.462774	111.793706
2999.702400	115.237762
3000.944876	125.970629
3002.184112	127.895804
3003.424676	138.451049
3004.663523	137.839161
3005.902176	130.375524
3007.139113	136.196503
3008.377378	134.286014
3009.613927	127.922378
3010.850283	111.920280
3012.086445	97.927972
3013.320893	95.572727
3014.555148	94.369231
3015.789210	91.307692
3017.021560	81.343357
3018.252198	84.978322
3019.485682	79.497902
3020.717455	80.432168
3021.947516	89.223077
3023.177386	83.641958
3024.405546	82.448951
3025.635033	73.844755
3026.862810	77.948951
3028.090396	76.037762
3029.319308	76.527273
3030.543478	79.274126
3031.770491	90.229371
3032.994281	105.305594
3034.219396	114.082517
3035.442806	116.871329
3036.666025	118.998601
3037.887539	118.535664
3039.111894	118.032168
3040.331514	106.701399
3041.552460	113.413986
3042.773216	89.938462
3043.992270	87.952448
3045.212648	81.924476
3046.429810	85.405594
3047.648297	84.290909
3048.865083	87.002797
3050.081680	86.334965
3051.298090	75.998601
3052.511286	71.134266
3053.727320	84.023077
3054.940142	70.811888
3056.155801	82.812587
3057.366737	77.268531
3058.578999	95.213986
3059.791073	106.573427
3061.002961	124.713287
3062.213152	136.504196
3063.423156	147.680070
3064.632974	144.810490
3065.841096	126.577273
3067.049033	123.530070
3068.255274	117.199650
3069.462840	99.627273
3070.668711	97.591958
3071.874397	89.832867
3073.079899	97.182867
3074.283707	100.846853
3075.488839	108.669580
3076.692278	112.104895
3077.894025	117.988462
3079.095589	122.072028
3080.296969	117.675524
3081.498165	113.015385
3082.697671	108.102098
3083.896994	102.717483
3085.097640	96.238462
3086.296596	82.539161
3087.492357	92.351049
3088.690948	88.267133
3089.886345	86.116783
3091.083066	77.511888
3092.276594	80.007692
3093.472950	72.037762
3094.667619	70.333566
3095.859098	63.434965
3097.054908	58.782517
3098.246025	58.426573
3099.438465	69.113986
3100.627716	72.698601
3101.819794	83.744755
3103.010188	74.077622
3104.197396	73.979720
3105.385926	78.581818
3106.575779	79.745455
3107.762447	73.625874
3108.948936	73.488811
3110.135246	65.280420
3111.322877	63.558741
3112.507326	72.323077
3113.690096	71.011189
3114.875688	66.752448
3116.059601	66.510490
3117.241834	69.579720
3118.423890	75.237063
3119.605767	83.030769
3120.787466	85.607692
3121.967488	79.646154
3123.145833	89.294406
3124.326998	85.903497
3125.504988	88.476224
3126.682801	87.825874
3127.860437	80.319580
3129.036398	86.435664
3130.212183	93.344056
3131.389288	91.405594
3132.564720	92.141958
3133.738478	93.364336
3134.910563	93.491608
3136.083969	87.072727
3137.257200	96.441958
3138.428759	87.239161
3139.601638	96.225874
3140.771350	95.875524
3141.942383	91.661538
3143.111745	92.646154
3144.279438	86.483217
3145.449946	77.713986
3146.615795	72.218182
3147.785954	61.865734
3148.951455	70.550350
3150.116783	70.461538
3151.281937	75.413287
3152.446918	72.567133
3153.613218	75.094406
3154.774865	72.957343
3155.937833	69.258042
3157.100628	70.903497
3158.263249	78.918881
3159.424206	79.395804
3160.584991	77.354545
3161.745603	75.478322
3162.904551	87.344755
3164.063327	81.311888
3165.221932	90.379720
3166.380365	89.585315
3167.538626	92.353846
3168.695226	97.331469
3169.850164	99.920979
3171.006421	100.906294
3172.161017	108.904895
3173.315443	97.342657
3174.468208	85.875524
3175.620804	72.369930
3176.773230	73.933566
3177.925485	71.140559
3179.077571	87.007692
3180.226510	91.585315
3181.378256	105.395804
3182.528345	105.681119
3183.676776	103.281818
3184.825039	99.569231
3185.973133	101.327972
3187.121058	88.891608
3188.267327	85.565734
3189.413428	90.243357
3190.557875	91.185315
3191.702153	88.866434
3192.846264	97.159441
3193.991693	94.420979
3195.133983	105.618182
3196.276105	90.637063
3197.418061	82.400000
3198.559849	80.776224
3199.701470	72.436364
3200.839956	62.800000
3201.979759	65.583916
3203.120879	74.595804
3204.258866	63.060140
3205.395202	57.441259
3206.531374	62.077622
3207.668862	57.283916
3208.804702	69.627972
3209.941859	68.162937
3211.074403	79.940559
3212.211228	94.634266
3213.343443	89.325175
3214.476974	95.808392
3215.610340	109.200000
3216.740580	106.550350
3217.873617	87.458741
3219.003527	79.644755
3220.134755	77.322378
3221.262857	69.897902
3222.393757	81.702098
3223.523012	74.574126
3224.650624	83.091608
3225.775113	87.816084
3226.903878	97.361538
3228.029521	108.596503
3229.155001	112.434965
3230.278840	115.925175
3231.405474	120.000699
3232.527510	133.979720
3233.650862	144.796503
3234.774051	148.002098
3235.897079	160.848252
3237.018467	149.523077
3238.139694	147.422378
3239.259282	140.481119
3240.378709	138.841259
3241.496499	128.393706
3242.617080	126.633566
3243.734548	129.030070
3244.851855	122.064336
3245.969002	121.582517
3247.084512	112.325874
3248.201338	99.091608
3249.315053	104.300000
3250.431559	104.741259
3251.546429	113.309091
3252.658191	120.862238
3253.769794	126.539161
3254.882712	128.821678
3255.995470	134.089510
3257.105122	121.525874
3258.216089	112.935664
3259.326897	99.084615
3260.436073	85.760839
3261.543618	58.809790
3262.652478	42.388112
3263.761179	33.039161
3264.866778	41.347552
3265.973692	43.335664
3267.078976	49.888112
3268.185574	54.493007
3269.289072	60.904196
3270.393884	63.479720
3271.498539	76.571329
3272.600096	83.437762
3273.701496	92.490909
3274.804210	77.225874
3275.906768	61.308392
3277.006229	53.480420
3278.108474	60.610490
3279.207623	61.095105
3280.305147	71.113986
3281.402517	71.260140
3282.502668	69.638462
3283.599727	61.802797
3284.696630	64.369231
3285.793378	65.913986
3286.885567	67.885315
3287.982006	64.455245
3289.076822	61.588112
3290.171483	58.932867
3291.264523	59.986014
3292.357409	66.841259
3293.448674	77.203497
3294.541252	67.897203
3295.632210	69.016783
3296.721548	65.563636
3297.810733	62.076923
3298.901230	71.423077
3299.988643	77.813287
3301.075904	79.441958
3302.164477	76.611189
3303.252897	66.779021
3304.336771	67.342657
3305.424885	62.927273
3306.509919	63.362937
3307.593337	53.180420
3308.678067	59.285315
3309.761181	49.816084
3310.845607	43.419580
3311.926956	47.328671
3313.009616	55.227972
3314.090661	66.017483
3315.171556	67.904196
3316.250838	67.982517
3317.329969	72.511189
3318.410412	61.777622
3319.487780	68.564336
3320.566460	67.693706
3321.643528	70.620280
3322.720446	65.398601
3323.795754	73.161538
3324.870912	65.154545
3325.947381	70.859441
3327.020780	74.088112
3328.094029	63.208392
3329.168590	66.540559
3330.241542	62.312587
3331.312885	58.841259
3332.385539	56.271329
3333.455126	55.989510
3334.526024	64.741259
3335.595316	72.906993
3336.665917	83.284615
3337.734912	85.331469
3338.802302	90.494406
3339.868086	93.581818
3340.938096	88.001399
3342.005042	95.769231
3343.068928	84.380420
3344.135580	84.292308
3345.200629	86.183916
3346.264074	87.841958
3347.327373	99.463636
3348.390525	105.452448
3349.453531	112.558741
3350.516391	116.173427
3351.577648	103.940559
3352.635849	89.968531
3353.698271	76.148951
3354.757637	68.441958
3355.816857	52.985315
3356.877386	42.616084
3357.933407	35.500000
3358.992191	31.261538
3360.046468	38.662937
3361.103509	46.568531
3362.158951	47.956643
3363.215702	55.949650
3364.270856	61.896503
3365.324412	76.082517
3366.376371	96.755245
3367.431093	97.106993
3368.482765	94.371329
3369.534293	84.286014
3370.587131	86.488811
3371.636921	90.879021
3372.688020	85.055245
3373.736072	80.097902
3374.786885	61.282517
3375.834652	57.873427
3376.882277	63.084615
3377.929760	74.854545
3378.975650	84.268531
3380.022848	87.396503
3381.067003	104.028671
3382.113917	110.801399
3383.159240	137.867832
3384.201521	135.185315
3385.243661	125.400000
3386.287110	108.537762
3387.330417	95.028671
3388.372134	79.740559
3389.413711	80.204196
3390.455146	73.959441
3391.494993	73.272028
3392.533251	82.264336
3393.572817	84.443357
3394.612243	74.518182
3395.650081	73.847552
3396.686332	63.987413
3397.722443	55.059441
3398.759862	53.965734
3399.794248	68.360140
3400.829942	56.887413
3401.865496	59.561538
3402.898018	53.879021
3403.933294	68.171329
3404.965540	67.347552
3405.997646	67.548252
3407.028170	55.214685
3408.060000	54.805594
3409.091692	60.913986
3410.120356	60.653147
3411.148883	61.695105
3412.178716	66.705594
3413.208412	57.162238
3414.235082	58.276923
3415.263058	61.502797
3416.288010	70.851748
3417.315713	66.237063
3418.340391	69.639161
3419.366376	63.389510
3420.390782	68.236364
3421.415051	74.669930
3422.437741	77.473427
3423.460295	77.383916
3424.484155	79.166434
3425.504995	71.148951
3426.525699	65.409091
3427.547709	57.084515
3428.566701	45.884316
3429.585558	31.517582
3430.605721	13.693407
3431.622867	-7.879121
