Raman shift (cm-1) - Current Spectrum	Intensity (Counts) - Current Spectrum	
102.32	34	
104.89	51	
107.46	77	
110.02	23	
112.59	124	
115.15	48	
117.71	0	
120.27	57	
122.83	92	
125.39	69	
127.95	103	
130.51	53	
133.06	138	
135.61	159	
138.17	175	
140.72	261	
143.27	225	
145.82	320	
148.37	296	
150.91	278	
153.46	391	
156.01	328	
158.55	277	
161.09	297	
163.63	192	
166.18	285	
168.71	287	
171.25	315	
173.79	275	
176.32	281	
178.86	286	
181.39	281	
183.92	292	
186.46	281	
188.99	221	
191.52	260	
194.04	288	
196.57	281	
199.09	250	
201.62	231	
204.14	377	
206.66	263	
209.18	195	
211.7	314	
214.22	279	
216.74	266	
219.25	290	
221.77	316	
224.29	266	
226.8	269	
229.31	244	
231.82	286	
234.33	249	
236.84	304	
239.34	315	
241.85	291	
244.35	308	
246.86	318	
249.36	347	
251.86	314	
254.36	288	
256.86	329	
259.36	304	
261.86	261	
264.35	336	
266.84	287	
269.34	336	
271.83	317	
274.32	354	
276.81	315	
279.3	286	
281.79	337	
284.27	354	
286.76	298	
289.24	308	
291.73	350	
294.21	241	
296.69	366	
299.17	290	
301.65	353	
304.13	336	
306.61	320	
309.08	336	
311.56	356	
314.03	392	
316.5	419	
318.97	433	
321.44	419	
323.91	345	
326.38	397	
328.84	365	
331.31	339	
333.77	425	
336.24	383	
338.7	385	
341.16	418	
343.62	341	
346.08	370	
348.54	369	
350.99	372	
353.45	362	
355.9	290	
358.36	340	
360.81	336	
363.26	333	
365.71	386	
368.16	274	
370.6	335	
373.05	299	
375.49	327	
377.94	374	
380.38	366	
382.82	368	
385.27	334	
387.7	344	
390.14	380	
392.58	352	
395.02	377	
397.45	336	
399.89	423	
402.32	357	
404.75	343	
407.19	330	
409.61	365	
412.04	394	
414.47	356	
416.9	345	
419.32	412	
421.75	352	
424.17	436	
426.59	377	
429.01	335	
431.43	325	
433.85	371	
436.27	449	
438.69	390	
441.1	388	
443.52	394	
445.93	392	
448.34	381	
450.75	370	
453.17	313	
455.57	366	
457.98	373	
460.39	415	
462.8	426	
465.2	375	
467.6	400	
470	304	
472.41	352	
474.81	378	
477.21	339	
479.61	265	
482	341	
484.4	383	
486.79	370	
489.19	340	
491.58	385	
493.97	375	
496.36	333	
498.75	400	
501.14	349	
503.53	326	
505.91	293	
508.3	269	
510.68	301	
513.07	244	
515.45	278	
517.83	268	
520.21	287	
522.59	220	
524.97	263	
527.34	300	
529.72	247	
532.09	269	
534.47	303	
536.84	224	
539.21	255	
541.58	247	
543.95	232	
546.32	233	
548.68	271	
551.05	297	
553.41	240	
555.78	181	
558.14	189	
560.5	220	
562.87	209	
565.22	255	
567.58	245	
569.94	227	
572.29	229	
574.65	224	
577.01	229	
579.36	193	
581.71	255	
584.06	190	
586.41	193	
588.76	235	
591.11	264	
593.45	208	
595.8	202	
598.15	294	
600.49	250	
602.83	227	
605.17	251	
607.51	204	
609.85	210	
612.19	194	
614.53	156	
616.87	194	
619.2	225	
621.53	232	
623.87	244	
626.2	249	
628.53	182	
630.86	218	
633.19	203	
635.52	191	
637.85	246	
640.17	302	
642.5	224	
644.82	185	
647.14	205	
649.46	264	
651.78	224	
654.1	189	
656.42	201	
658.74	192	
661.06	215	
663.37	253	
665.68	202	
668	214	
670.31	251	
672.62	214	
674.93	256	
677.24	214	
679.55	280	
681.86	220	
684.16	256	
686.47	285	
688.77	198	
691.07	259	
693.37	263	
695.68	261	
697.98	241	
700.27	294	
702.57	257	
704.87	310	
707.16	317	
709.46	282	
711.75	238	
714.04	322	
716.34	308	
718.63	341	
720.91	266	
723.2	366	
725.49	420	
727.78	391	
730.06	344	
732.35	446	
734.63	388	
736.91	425	
739.19	504	
741.47	517	
743.75	512	
746.03	625	
748.31	660	
750.58	631	
752.86	764	
755.13	733	
757.4	777	
759.68	847	
761.95	854	
764.22	981	
766.49	980	
768.75	1019	
771.02	1254	
773.29	1280	
775.55	1443	
777.81	1493	
780.08	1568	
782.34	1616	
784.6	1765	
786.86	1791	
789.12	1832	
791.37	2007	
793.63	2163	
795.89	2303	
798.14	2387	
800.4	2453	
802.65	2601	
804.9	2567	
807.15	2780	
809.4	2783	
811.65	2955	
813.9	3054	
816.14	3005	
818.39	3189	
820.63	3279	
822.88	3310	
825.12	3500	
827.36	3423	
829.6	3466	
831.84	3455	
834.08	3592	
836.31	3609	
838.55	3630	
840.79	3770	
843.02	3734	
845.25	3795	
847.49	3790	
849.72	3946	
851.95	3938	
854.18	3990	
856.41	3927	
858.63	4044	
860.86	4128	
863.08	4288	
865.31	4326	
867.53	4434	
869.76	4615	
871.97	4467	
874.2	4665	
876.42	4628	
878.63	4698	
880.85	4915	
883.07	4863	
885.28	5071	
887.5	5239	
889.71	5276	
891.92	5337	
894.14	5511	
896.35	5646	
898.55	5690	
900.76	6113	
902.97	5990	
905.18	6245	
907.38	6428	
909.59	6460	
911.79	6829	
913.99	6952	
916.19	7104	
918.39	7361	
920.6	7389	
922.79	7887	
924.99	7971	
927.18	8495	
929.38	8426	
931.58	8767	
933.77	9027	
935.96	9492	
938.15	9713	
940.35	9982	
942.53	10260	
944.72	10964	
946.91	11279	
949.1	11854	
951.28	12338	
953.47	12447	
955.65	13073	
957.83	13740	
960.01	14304	
962.2	14614	
964.38	15202	
966.55	16084	
968.73	16693	
970.91	17385	
973.08	18246	
975.26	18858	
977.43	19745	
979.61	20538	
981.78	21256	
983.95	22436	
986.12	23454	
988.29	24549	
990.46	25338	
992.62	26285	
994.79	27777	
996.95	28944	
999.12	29792	
1001.28	31898	
1003.44	32899	
1005.6	34756	
1007.76	35779	
1009.92	37673	
1012.08	38784	
1014.24	40142	
1016.4	42041	
1018.55	43803	
1020.71	45728	
1022.86	47239	
1025.01	48880	
1027.16	50618	
1029.32	52060	
1031.46	53675	
1033.61	55238	
1035.76	56117	
1037.91	56968	
1040.05	58235	
1042.2	58946	
1044.34	59872	
1046.48	60011	
1048.63	60569	
1050.77	60573	
1052.91	60754	
1055.05	61107	
1057.18	61130	
1059.32	61058	
1061.46	60479	
1063.59	59994	
1065.73	60125	
1067.86	58756	
1069.99	58302	
1072.12	57423	
1074.25	56544	
1076.38	55617	
1078.51	54307	
1080.64	52890	
1082.76	51631	
1084.89	50533	
1087.02	49137	
1089.14	47353	
1091.26	45714	
1093.38	43656	
1095.51	42017	
1097.62	40575	
1099.74	39839	
1101.86	38240	
1103.98	36847	
1106.09	35262	
1108.21	34114	
1110.32	32910	
1112.43	31577	
1114.55	30421	
1116.66	29514	
1118.77	28310	
1120.88	27378	
1122.99	26583	
1125.1	25990	
1127.2	24412	
1129.31	23788	
1131.41	22942	
1133.52	22277	
1135.62	21420	
1137.72	20801	
1139.82	20645	
1141.92	19816	
1144.02	19111	
1146.12	18527	
1148.22	18075	
1150.31	17428	
1152.41	17055	
1154.5	16780	
1156.6	16265	
1158.69	15913	
1160.78	15357	
1162.87	14766	
1164.96	14735	
1167.05	14355	
1169.13	13913	
1171.22	13754	
1173.31	13380	
1175.39	13085	
1177.48	12750	
1179.56	12401	
1181.64	12102	
1183.72	11699	
1185.8	11648	
1187.88	11438	
1189.96	11416	
1192.04	11276	
1194.11	10899	
1196.19	10671	
1198.26	10660	
1200.34	10253	
1202.41	10369	
1204.48	10048	
1206.55	10135	
1208.62	9745	
1210.69	9774	
1212.76	9614	
1214.83	9473	
1216.89	9329	
1218.96	9181	
1221.02	9188	
1223.09	9258	
1225.15	8991	
1227.21	8989	
1229.27	8857	
1231.33	8853	
1233.39	8966	
1235.45	8649	
1237.51	8882	
1239.56	8633	
1241.62	8761	
1243.67	8806	
1245.72	8826	
1247.78	8724	
1249.83	8978	
1251.88	8980	
1253.93	8964	
1255.98	8984	
1258.02	9309	
1260.07	9458	
1262.11	9951	
1264.16	9691	
1266.21	10097	
1268.25	10433	
1270.29	10738	
1272.33	11421	
1274.37	11625	
1276.41	12350	
1278.45	12975	
1280.49	13384	
1282.52	14195	
1284.56	14491	
1286.6	15086	
1288.63	15406	
1290.66	15575	
1292.69	15571	
1294.73	15650	
1296.76	15140	
1298.79	14906	
1300.81	14388	
1302.84	13615	
1304.87	13316	
1306.89	12551	
1308.92	11934	
1310.94	11549	
1312.96	10998	
1314.99	10233	
1317.01	10052	
1319.03	9814	
1321.05	9510	
1323.07	9040	
1325.08	8797	
1327.1	8637	
1329.12	8322	
1331.13	7996	
1333.14	8007	
1335.16	7818	
1337.17	7703	
1339.18	7358	
1341.19	7283	
1343.2	7293	
1345.21	7052	
1347.22	7051	
1349.22	7008	
1351.23	7009	
1353.24	7005	
1355.24	6889	
1357.24	6769	
1359.24	6779	
1361.25	6733	
1363.25	6534	
1365.25	6881	
1367.24	6622	
1369.24	6633	
1371.24	6573	
1373.23	6544	
1375.23	6605	
1377.22	6546	
1379.22	6574	
1381.21	6507	
1383.2	6287	
1385.19	6347	
1387.18	6294	
1389.17	6380	
1391.16	6394	
1393.14	6427	
1395.13	6491	
1397.12	6416	
1399.1	6435	
1401.08	6540	
1403.07	6616	
1405.05	6510	
1407.03	6479	
1409.01	6578	
1410.99	6539	
1412.96	6583	
1414.94	6522	
1416.92	6680	
1418.89	6576	
1420.87	6679	
1422.84	6676	
1424.81	6800	
1426.79	6809	
1428.76	6611	
1430.73	6817	
1432.7	6753	
1434.66	6787	
1436.63	6801	
1438.6	6953	
1440.57	6976	
1442.53	6850	
1444.49	6995	
1446.46	6942	
1448.42	7187	
1450.38	7179	
1452.34	7308	
1454.3	7307	
1456.26	7526	
1458.21	7486	
1460.17	7523	
1462.13	7571	
1464.08	7455	
1466.04	7546	
1467.99	7866	
1469.94	7758	
1471.89	7937	
1473.85	7915	
1475.8	8044	
1477.74	8062	
1479.69	8170	
1481.64	8332	
1483.58	8201	
1485.53	8417	
1487.47	8710	
1489.42	8696	
1491.36	8863	
1493.3	8686	
1495.24	8816	
1497.18	8940	
1499.12	9119	
1501.06	9216	
1503	9156	
1504.94	9403	
1506.87	9597	
1508.81	9585	
1510.74	9749	
1512.67	9609	
1514.6	9991	
1516.54	9829	
1518.47	10216	
1520.4	10413	
1522.33	10619	
1524.25	10866	
1526.18	10709	
1528.11	11101	
1530.03	10952	
1531.96	11307	
1533.88	11306	
1535.8	11434	
1537.73	11750	
1539.65	11991	
1541.57	11927	
1543.49	12298	
1545.4	12334	
1547.32	12634	
1549.24	12655	
1551.15	13029	
1553.07	12934	
1554.98	13114	
1556.9	13482	
1558.81	13270	
1560.72	13891	
1562.63	13854	
1564.54	14218	
1566.45	14460	
1568.36	14878	
1570.26	15064	
1572.17	15100	
1574.08	15968	
1575.98	16231	
1577.88	16436	
1579.79	17037	
1581.69	17233	
1583.59	17217	
1585.49	17226	
1587.39	17375	
1589.29	17471	
1591.19	17481	
1593.08	18157	
1594.98	18526	
1596.87	18243	
1598.77	18723	
1600.66	19394	
1602.55	19739	
1604.45	19686	
1606.34	20118	
1608.23	20521	
1610.12	20802	
1612	20960	
1613.89	21746	
1615.78	22376	
1617.66	22373	
1619.55	22622	
1621.43	23319	
1623.32	23348	
1625.2	23917	
1627.08	24389	
1628.96	24858	
1630.84	25410	
1632.72	25789	
1634.6	25922	
1636.48	26901	
1638.35	27210	
1640.23	27362	
1642.1	27774	
1643.98	28754	
1645.85	29347	
1647.72	29794	
1649.59	30376	
1651.46	30982	
1653.33	31440	
1655.2	32017	
1657.07	32596	
1658.94	33325	
1660.8	33782	
1662.67	34497	
1664.53	34823	
1666.4	35059	
1668.26	35660	
1670.12	36588	
1671.98	36883	
1673.84	37708	
1675.7	38370	
1677.56	38935	
1679.42	39455	
1681.28	39570	
1683.13	40913	
1684.99	41150	
1686.84	41905	
1688.7	42614	
1690.55	43400	
1692.4	43665	
1694.25	43760	
1696.1	44211	
1697.95	45620	
1699.8	45531	
1701.65	46023	
1703.49	46609	
1705.34	47262	
1707.19	47577	
1709.03	47875	
1710.87	48203	
1712.72	49142	
1714.56	49506	
1716.4	49816	
1718.24	50272	
1720.08	50623	
1721.92	50886	
1723.76	51238	
1725.6	51365	
1727.43	51449	
1729.27	51661	
1731.1	52740	
1732.94	52446	
1734.77	52612	
1736.6	52669	
1738.43	52387	
1740.26	52917	
1742.09	52760	
1743.92	52819	
1745.75	52365	
1747.57	52676	
1749.4	52714	
1751.23	52329	
1753.05	52717	
1754.88	52405	
1756.7	52371	
1758.52	51792	
1760.34	51957	
1762.16	51612	
1763.98	51224	
1765.8	50796	
1767.62	50561	
1769.43	49975	
1771.25	49853	
1773.07	50117	
1774.88	48891	
1776.7	48365	
1778.51	48539	
1780.32	47487	
1782.13	47105	
1783.95	47128	
1785.75	46088	
1787.56	45754	
1789.37	45337	
1791.18	44558	
1792.98	44375	
1794.79	43423	
1796.6	43284	
1798.4	42717	
1800.2	42148	
1802.01	41727	
1803.81	40878	
1805.61	40179	
1807.41	39737	
1809.21	39273	
1811	38779	
1812.8	38282	
1814.6	37200	
1816.4	36620	
1818.19	35892	
1819.99	35648	
1821.78	35462	
1823.57	35151	
1825.36	34235	
1827.15	33851	
1828.94	33269	
1830.73	32864	
1832.52	32421	
1834.31	31416	
1836.1	31568	
1837.88	31122	
1839.67	30283	
1841.45	29657	
1843.24	29215	
1845.02	29223	
1846.8	28504	
1848.58	28147	
1850.36	27634	
1852.14	27593	
1853.92	26917	
1855.7	26531	
1857.48	26016	
1859.25	25862	
1861.03	25672	
1862.8	25149	
1864.58	24839	
1866.35	24399	
1868.12	24068	
1869.9	23931	
1871.67	23760	
1873.44	22983	
1875.21	22986	
1876.98	22799	
1878.74	22649	
1880.51	22107	
1882.28	22281	
1884.04	21670	
1885.81	21319	
1887.57	21376	
1889.33	20723	
1891.09	20627	
1892.85	20352	
1894.62	20103	
1896.38	19947	
1898.13	19849	
1899.89	19839	
1901.65	19483	
1903.41	18987	
1905.16	19267	
1906.92	18911	
1908.67	18626	
1910.42	18589	
1912.18	17921	
1913.93	18145	
1915.68	17897	
1917.43	17336	
1919.18	17697	
1920.93	17890	
1922.67	17217	
1924.42	17318	
1926.17	17333	
1927.91	17031	
1929.66	16746	
1931.4	16578	
1933.14	16242	
1934.88	16582	
1936.63	16499	
1938.37	16208	
1940.11	16082	
1941.85	16002	
1943.58	15888	
1945.32	15922	
1947.06	15828	
1948.79	15734	
1950.53	15460	
1952.26	15341	
1954	15372	
1955.73	15099	
1957.46	14946	
1959.19	15311	
1960.92	14947	
1962.65	14749	
1964.38	14903	
1966.11	14524	
1967.84	14746	
1969.56	14423	
1971.29	14411	
1973.01	14298	
1974.74	14253	
1976.46	13944	
1978.18	13698	
1979.91	13777	
1981.62	13938	
1983.35	13630	
1985.06	13669	
1986.78	13368	
1988.5	13652	
1990.22	13282	
1991.94	13152	
1993.65	13197	
1995.36	13081	
1997.08	12999	
1998.79	13002	
2000.5	12929	
2002.22	12642	
2003.92	12541	
2005.64	12633	
2007.34	12694	
2009.05	12401	
2010.76	12354	
2012.47	12638	
2014.17	12395	
2015.88	12154	
2017.58	12158	
2019.29	12112	
2020.99	12070	
2022.69	12016	
2024.39	11664	
2026.09	11832	
2027.79	11787	
2029.49	11874	
2031.19	11707	
2032.89	11591	
2034.58	11477	
2036.28	11525	
2037.98	11758	
2039.67	11523	
2041.36	11313	
2043.06	11582	
2044.75	11274	
2046.44	11434	
2048.13	11153	
2049.82	11330	
2051.51	11570	
2053.2	11362	
2054.88	11366	
2056.57	11171	
2058.26	11438	
2059.94	11256	
2061.63	11070	
2063.31	10980	
2065	11267	
2066.67	10876	
2068.36	11401	
2070.04	11026	
2071.72	11029	
2073.4	10952	
2075.07	10983	
2076.75	10804	
2078.43	10866	
2080.1	10890	
2081.78	11047	
2083.45	10869	
2085.13	10869	
2086.8	10950	
2088.47	10798	
2090.14	10773	
2091.81	10930	
2093.48	10997	
2095.15	10806	
2096.82	10972	
2098.49	10993	
2100.16	10880	
2101.82	11187	
2103.49	11212	
2105.15	11095	
2106.81	11143	
2108.48	11419	
2110.14	11331	
2111.8	11211	
2113.46	11231	
2115.12	11412	
2116.78	11099	
2118.44	11537	
2120.1	11505	
2121.75	11225	
2123.41	11389	
2125.07	11663	
2126.72	11546	
2128.38	11510	
2130.03	11707	
2131.68	11681	
2133.33	11584	
2134.98	11674	
2136.63	11728	
2138.28	11849	
2139.93	11833	
2141.58	12097	
2143.22	11856	
2144.87	11923	
2146.52	11950	
2148.16	12080	
2149.8	12110	
2151.45	12221	
2153.09	12018	
2154.73	12428	
2156.37	12295	
2158.01	12210	
2159.65	12288	
2161.29	12710	
2162.93	12701	
2164.57	12603	
2166.2	12668	
2167.84	12833	
2169.47	12908	
2171.11	12931	
2172.74	12935	
2174.37	12655	
2176.01	13149	
2177.64	13255	
2179.27	12961	
2180.9	13274	
2182.53	13541	
2184.15	13282	
2185.78	13527	
2187.41	13537	
2189.04	13616	
2190.66	13832	
2192.28	13976	
2193.91	14118	
2195.53	14014	
2197.15	14097	
2198.77	14319	
2200.4	14403	
2202.02	14492	
2203.64	14446	
2205.25	14615	
2206.87	14671	
2208.49	15200	
2210.1	15151	
2211.72	15084	
2213.34	15212	
2214.95	15518	
2216.56	15791	
2218.17	15820	
2219.79	15837	
2221.4	16001	
2223.01	16062	
2224.62	16368	
2226.23	16517	
2227.84	16451	
2229.44	16432	
2231.05	16476	
2232.66	17331	
2234.26	17057	
2235.86	17245	
2237.47	17475	
2239.07	17719	
2240.67	17654	
2242.28	17961	
2243.88	18116	
2245.48	18290	
2247.07	18665	
2248.67	18562	
2250.27	19017	
2251.87	19189	
2253.47	19342	
2255.06	19395	
2256.65	19870	
2258.25	19904	
2259.84	20445	
2261.44	20208	
2263.03	20611	
2264.62	20598	
2266.21	21005	
2267.8	21032	
2269.39	21571	
2270.98	21721	
2272.56	21638	
2274.15	22330	
2275.74	22325	
2277.32	22492	
2278.9	22901	
2280.49	22974	
2282.07	22762	
2283.66	23108	
2285.24	23797	
2286.82	23714	
2288.4	24034	
2289.98	24088	
2291.56	24363	
2293.14	24580	
2294.71	24796	
2296.29	24940	
2297.86	25253	
2299.44	25611	
2301.01	25741	
2302.59	26659	
2304.16	26341	
2305.73	26748	
2307.3	27044	
2308.87	26965	
2310.45	27496	
2312.01	28264	
2313.58	28123	
2315.15	28313	
2316.72	28700	
2318.28	29769	
2319.85	29757	
2321.41	30026	
2322.98	30316	
2324.54	30587	
2326.1	30991	
2327.67	30892	
2329.23	31562	
2330.79	32193	
2332.35	32449	
2333.91	31833	
2335.47	32979	
2337.02	33438	
2338.58	33870	
2340.14	33881	
2341.69	34083	
2343.25	35126	
2344.8	35062	
2346.35	35270	
2347.91	35434	
2349.46	35437	
2351.01	35358	
2352.56	36488	
2354.11	36410	
2355.66	36896	
2357.21	37093	
2358.76	37272	
2360.3	37947	
2361.85	37862	
2363.4	37775	
2364.94	38020	
2366.48	37985	
2368.03	38637	
2369.57	39218	
2371.11	38863	
2372.65	39691	
2374.19	39814	
2375.73	39897	
2377.27	39730	
2378.81	40485	
2380.35	40533	
2381.88	41062	
2383.42	40713	
2384.95	41138	
2386.49	40956	
2388.03	41157	
2389.56	40848	
2391.09	41675	
2392.62	41620	
2394.16	42097	
2395.68	42201	
2397.21	42201	
2398.74	42217	
2400.27	41761	
2401.8	42522	
2403.32	42824	
2404.85	42888	
2406.38	42666	
2407.9	42686	
2409.42	42658	
2410.95	43281	
2412.47	42779	
2414	43282	
2415.52	43098	
2417.04	42856	
2418.56	43295	
2420.08	43328	
2421.59	42910	
2423.11	43384	
2424.63	43271	
2426.15	43047	
2427.66	43267	
2429.17	43160	
2430.69	43583	
2432.2	43046	
2433.71	43450	
2435.23	42623	
2436.74	42401	
2438.25	42215	
2439.76	42414	
2441.27	42436	
2442.78	42520	
2444.29	41739	
2445.79	41607	
2447.3	42178	
2448.8	41789	
2450.31	41659	
2451.81	41507	
2453.32	41244	
2454.82	41180	
2456.32	40583	
2457.82	40297	
2459.32	40431	
2460.82	40359	
2462.32	39885	
2463.82	39548	
2465.32	39639	
2466.82	39336	
2468.32	39244	
2469.81	39277	
2471.31	39343	
2472.8	38695	
2474.29	38321	
2475.79	38215	
2477.28	38235	
2478.77	38419	
2480.26	37492	
2481.75	37850	
2483.24	37812	
2484.73	37593	
2486.22	37331	
2487.71	37411	
2489.19	37092	
2490.68	37231	
2492.16	36687	
2493.65	36846	
2495.13	36410	
2496.62	36611	
2498.1	35876	
2499.58	36411	
2501.06	35962	
2502.54	36318	
2504.02	36365	
2505.5	35971	
2506.98	35648	
2508.46	35676	
2509.94	35544	
2511.41	35420	
2512.89	35021	
2514.36	35185	
2515.84	35063	
2517.31	34571	
2518.78	34877	
2520.26	34627	
2521.73	34453	
2523.2	34358	
2524.67	34172	
2526.14	34176	
2527.61	33923	
2529.07	33930	
2530.54	33460	
2532.01	33407	
2533.48	33295	
2534.94	33304	
2536.41	32898	
2537.87	32899	
2539.33	33196	
2540.79	32809	
2542.26	32591	
2543.72	32826	
2545.18	32657	
2546.64	32693	
2548.1	32629	
2549.56	32348	
2551.01	32208	
2552.47	32324	
2553.93	31910	
2555.38	31885	
2556.84	31651	
2558.29	31581	
2559.75	31347	
2561.2	31448	
2562.65	31674	
2564.1	31334	
2565.56	31463	
2567	31194	
2568.46	31181	
2569.9	30990	
2571.35	30754	
2572.8	30311	
2574.25	30840	
2575.69	30384	
2577.14	30336	
2578.58	30322	
2580.03	30379	
2581.47	30067	
2582.91	30173	
2584.35	29729	
2585.8	29592	
2587.24	29637	
2588.68	29611	
2590.12	29695	
2591.56	29770	
2592.99	29559	
2594.43	29249	
2595.87	29515	
2597.3	29279	
2598.74	29278	
2600.17	29149	
2601.61	29119	
2603.04	29222	
2604.47	28760	
2605.9	29072	
2607.34	29120	
2608.77	28087	
2610.2	28820	
2611.63	28859	
2613.05	28755	
2614.48	28343	
2615.91	28836	
2617.34	28931	
2618.76	28578	
2620.19	28320	
2621.61	28387	
2623.03	28395	
2624.46	28078	
2625.88	28098	
2627.3	28273	
2628.72	27964	
2630.14	28163	
2631.56	27954	
2632.98	27864	
2634.4	27906	
2635.82	28159	
2637.24	27971	
2638.65	27916	
2640.07	27937	
2641.48	27714	
2642.9	27671	
2644.31	27810	
2645.72	27777	
2647.14	27749	
2648.55	27714	
2649.96	27943	
2651.37	27858	
2652.78	27538	
2654.19	27811	
2655.6	27780	
2657	27641	
2658.41	27912	
2659.82	27860	
2661.22	27705	
2662.63	27671	
2664.03	27474	
2665.44	27863	
2666.84	27353	
2668.24	27451	
2669.64	27716	
2671.04	27502	
2672.45	27793	
2673.84	27765	
2675.24	27341	
2676.64	27407	
2678.04	27538	
2679.44	27322	
2680.83	27496	
2682.23	27561	
2683.62	27230	
2685.02	27354	
2686.41	27012	
2687.8	27389	
2689.2	27465	
2690.59	27314	
2691.98	27044	
2693.37	27305	
2694.76	27360	
2696.15	27118	
2697.54	27264	
2698.92	27127	
2700.31	27229	
2701.7	26995	
2703.08	27076	
2704.47	27091	
2705.85	27087	
2707.24	27050	
2708.62	27191	
2710	27185	
2711.38	26773	
2712.77	27071	
2714.14	27066	
2715.53	26832	
2716.9	26919	
2718.28	27473	
2719.66	26921	
2721.04	27200	
2722.41	27017	
2723.79	27372	
2725.16	27056	
2726.54	27060	
2727.91	27179	
2729.29	27459	
2730.66	26903	
2732.03	27133	
2733.4	27193	
2734.77	27452	
2736.14	27078	
2737.51	26976	
2738.88	27052	
2740.25	27122	
2741.62	27063	
2742.98	27016	
2744.35	27125	
2745.71	27187	
2747.08	27212	
2748.44	26917	
2749.81	27083	
2751.17	27071	
2752.53	26984	
2753.89	27005	
2755.25	26630	
2756.61	26775	
2757.97	26827	
2759.33	26817	
2760.69	26469	
2762.05	26138	
2763.41	26706	
2764.76	26489	
2766.12	26241	
2767.47	26521	
2768.83	26666	
2770.18	26806	
2771.53	26867	
2772.88	26810	
2774.24	26531	
2775.59	26908	
2776.94	26842	
2778.29	27072	
2779.63	26460	
2780.98	26943	
2782.33	26957	
2783.68	26818	
2785.03	26701	
2786.37	26463	
2787.72	26566	
2789.06	26523	
2790.41	26480	
2791.75	26485	
2793.09	26739	
2794.43	26614	
2795.77	26855	
2797.11	26647	
2798.45	26615	
2799.79	26707	
2801.13	26884	
2802.47	26774	
2803.81	27073	
2805.14	26811	
2806.48	26662	
2807.82	26983	
2809.15	27054	
2810.48	26607	
2811.82	26997	
2813.15	27140	
2814.48	26932	
2815.81	26674	
2817.14	27098	
2818.48	26914	
2819.8	26721	
2821.13	27063	
2822.46	26774	
2823.79	27208	
2825.12	26904	
2826.44	27258	
2827.77	27019	
2829.09	26558	
2830.42	26813	
2831.74	26961	
2833.07	27024	
2834.39	27021	
2835.71	27086	
2837.03	27132	
2838.35	27179	
2839.67	26771	
2840.99	27066	
2842.31	26856	
2843.63	26701	
2844.95	27203	
2846.26	26952	
2847.58	26568	
2848.89	27355	
2850.21	27027	
2851.52	27058	
2852.84	26939	
2854.15	27145	
2855.46	27454	
2856.78	26809	
2858.09	27056	
2859.4	27293	
2860.71	27210	
2862.02	27496	
2863.32	27494	
2864.63	27607	
2865.94	27530	
2867.25	27560	
2868.55	27929	
2869.86	27696	
2871.16	28049	
2872.47	27920	
2873.77	27741	
2875.07	27790	
2876.37	27541	
2877.68	28154	
2878.98	28145	
2880.28	27700	
2881.58	28048	
2882.88	27952	
2884.18	27710	
2885.47	28264	
2886.77	27771	
2888.07	27917	
2889.36	27847	
2890.66	27798	
2891.95	27745	
2893.24	28109	
2894.54	27224	
2895.83	27944	
2897.12	27392	
2898.42	27684	
2899.71	27579	
2901	27603	
2902.28	27673	
2903.58	27313	
2904.86	27583	
2906.15	27425	
2907.44	27529	
2908.72	27507	
2910.01	27812	
2911.29	27331	
2912.58	27576	
2913.86	27530	
2915.15	27505	
2916.43	27111	
2917.71	27205	
2918.99	27883	
2920.27	27158	
2921.55	27304	
2922.83	27272	
2924.11	27163	
2925.39	27143	
2926.67	27002	
2927.94	27053	
2929.22	26965	
2930.5	26977	
2931.77	26700	
2933.05	26770	
2934.32	26784	
2935.59	26794	
2936.87	26550	
2938.14	26673	
2939.41	26836	
2940.68	26923	
2941.95	26360	
2943.22	26492	
2944.49	26003	
2945.76	26195	
2947.02	26284	
2948.29	26271	
2949.56	26515	
2950.82	25973	
2952.09	25679	
2953.35	26045	
2954.62	25836	
2955.88	25884	
2957.14	25606	
2958.4	26179	
2959.67	25251	
2960.93	25677	
2962.19	26081	
2963.45	25688	
2964.71	25402	
2965.96	25389	
2967.22	25380	
2968.48	25251	
2969.74	25363	
2970.99	25294	
2972.25	25108	
2973.5	24981	
2974.75	24726	
2976.01	24748	
2977.26	24920	
2978.51	24423	
2979.76	24452	
2981.02	24872	
2982.26	24445	
2983.52	24637	
2984.76	24479	
2986.01	24387	
2987.26	24169	
2988.51	24255	
2989.75	23888	
2991	23773	
2992.24	24121	
2993.49	24052	
2994.73	24122	
2995.98	23803	
2997.22	23862	
2998.46	23732	
2999.7	23907	
3000.94	23318	
3002.18	23202	
3003.42	23418	
3004.66	23265	
3005.9	23131	
3007.14	22686	
3008.38	22938	
3009.61	23326	
3010.85	22729	
3012.09	22641	
3013.32	22558	
3014.56	22386	
3015.79	22688	
3017.02	22573	
3018.25	22426	
3019.49	22374	
3020.72	22346	
3021.95	22501	
3023.18	22278	
3024.41	21956	
3025.64	21964	
3026.86	22032	
3028.09	22094	
3029.32	21888	
3030.54	21943	
3031.77	21739	
3032.99	21827	
3034.22	21794	
3035.44	21475	
3036.67	21517	
3037.89	21285	
3039.11	21243	
3040.33	21270	
3041.55	21193	
3042.77	21081	
3043.99	21007	
3045.21	20794	
3046.43	20876	
3047.65	20847	
3048.87	20869	
3050.08	21098	
3051.3	20240	
3052.51	20811	
3053.73	20624	
3054.94	20272	
3056.16	20506	
3057.37	20179	
3058.58	20155	
3059.79	19985	
3061	19923	
3062.21	20194	
3063.42	19834	
3064.63	19541	
3065.84	19692	
3067.05	19541	
3068.26	19602	
3069.46	19512	
3070.67	19548	
3071.87	19585	
3073.08	19659	
3074.28	19554	
3075.49	19413	
3076.69	19300	
3077.89	19471	
3079.1	19300	
3080.3	19304	
3081.5	19202	
3082.7	19343	
3083.9	19149	
3085.1	19377	
3086.3	18597	
3087.49	18684	
3088.69	19231	
3089.89	18687	
3091.08	18722	
3092.28	18632	
3093.47	18647	
3094.67	18405	
3095.86	18606	
3097.05	18672	
3098.25	18413	
3099.44	18577	
3100.63	18623	
3101.82	18624	
3103.01	18069	
3104.2	18655	
3105.39	18307	
3106.58	18506	
3107.76	18121	
3108.95	18101	
3110.14	18087	
3111.32	17611	
3112.51	17732	
3113.69	17649	
3114.88	17968	
3116.06	17594	
3117.24	18160	
3118.42	17883	
3119.61	17876	
3120.79	17851	
3121.97	17596	
3123.15	17629	
3124.33	17678	
3125.5	17727	
3126.68	17925	
3127.86	17837	
3129.04	17590	
3130.21	17404	
3131.39	17199	
3132.56	17613	
3133.74	17526	
3134.91	17544	
3136.08	17315	
3137.26	17704	
3138.43	17463	
3139.6	17578	
3140.77	17353	
3141.94	17664	
3143.11	17455	
3144.28	17709	
3145.45	17552	
3146.62	17733	
3147.79	17425	
3148.95	17577	
3150.12	17735	
3151.28	17437	
3152.45	17412	
3153.61	17585	
3154.77	17451	
3155.94	17197	
3157.1	17210	
3158.26	17265	
3159.42	17288	
3160.58	17125	
3161.75	17208	
3162.9	17260	
3164.06	17213	
3165.22	17185	
3166.38	17207	
3167.54	17039	
3168.7	17125	
3169.85	16902	
3171.01	17018	
3172.16	17372	
3173.32	17150	
3174.47	17031	
3175.62	17172	
3176.77	17152	
3177.93	17033	
3179.08	16980	
3180.23	16956	
3181.38	17153	
3182.53	17235	
3183.68	17018	
3184.83	17243	
3185.97	17279	
3187.12	17491	
3188.27	17114	
3189.41	17524	
3190.56	17767	
3191.7	17471	
3192.85	17498	
3193.99	17428	
3195.13	17311	
3196.28	17629	
3197.42	17455	
3198.56	17638	
3199.7	17625	
3200.84	17574	
3201.98	17608	
3203.12	17358	
3204.26	17382	
3205.4	17646	
3206.53	17396	
3207.67	17621	
3208.8	17676	
3209.94	17530	
3211.07	17600	
3212.21	17641	
3213.34	17401	
3214.48	17499	
3215.61	17380	
3216.74	17433	
3217.87	17432	
3219	17563	
3220.13	17244	
3221.26	17403	
3222.39	17199	
3223.52	17279	
3224.65	17398	
3225.78	17523	
3226.9	17456	
3228.03	17415	
3229.16	17414	
3230.28	17464	
3231.41	17580	
3232.53	17761	
3233.65	17604	
3234.77	17560	
3235.9	17193	
3237.02	17649	
3238.14	17511	
3239.26	17531	
3240.38	17713	
3241.5	17738	
3242.62	17573	
3243.73	17567	
3244.85	17565	
3245.97	17801	
3247.08	17808	
3248.2	17779	
3249.32	17991	
3250.43	18144	
3251.55	18015	
3252.66	18055	
3253.77	18135	
3254.88	18290	
3256	18165	
3257.11	17733	
3258.22	18110	
3259.33	17950	
3260.44	17884	
3261.54	18131	
3262.65	17917	
3263.76	17700	
3264.87	17782	
3265.97	18271	
3267.08	18010	
3268.19	18314	
3269.29	17933	
3270.39	18082	
3271.5	18043	
3272.6	18260	
3273.7	18340	
3274.8	18022	
3275.91	18274	
3277.01	18462	
3278.11	18275	
3279.21	18457	
3280.31	17816	
3281.4	18512	
3282.5	18338	
3283.6	17953	
3284.7	17977	
3285.79	17831	
3286.89	17777	
3287.98	17974	
3289.08	18179	
3290.17	18168	
3291.26	18136	
3292.36	18110	
3293.45	18124	
3294.54	17938	
3295.63	17973	
3296.72	17763	
3297.81	17924	
3298.9	17827	
3299.99	17800	
3301.08	17812	
3302.16	17911	
3303.25	17773	
3304.34	17852	
3305.42	17957	
3306.51	17779	
3307.59	18175	
3308.68	17995	
3309.76	17777	
3310.85	18008	
3311.93	17815	
3313.01	17934	
3314.09	17775	
3315.17	17932	
3316.25	17917	
3317.33	17830	
3318.41	17636	
3319.49	17699	
3320.57	17801	
3321.64	17872	
3322.72	17530	
3323.8	17785	
3324.87	17614	
3325.95	17776	
3327.02	17851	
3328.09	17706	
3329.17	17760	
3330.24	17558	
3331.31	17769	
3332.39	17584	
3333.46	17472	
3334.53	17259	
3335.6	17432	
3336.67	17553	
3337.73	17259	
3338.8	17253	
3339.87	17197	
3340.94	17063	
3342.01	17134	
3343.07	17182	
3344.14	17089	
3345.2	17146	
3346.26	17093	
3347.33	16966	
3348.39	17020	
3349.45	16888	
3350.52	16850	
3351.58	17002	
3352.64	16930	
3353.7	17101	
3354.76	16725	
3355.82	16910	
3356.88	17112	
3357.93	17086	
3358.99	17046	
3360.05	17031	
3361.1	16760	
3362.16	16965	
3363.22	16734	
3364.27	16764	
3365.32	16801	
3366.38	16683	
3367.43	16720	
3368.48	16554	
3369.53	16359	
3370.59	16481	
3371.64	16684	
3372.69	16623	
3373.74	16602	
3374.79	16400	
3375.83	16708	
3376.88	16479	
3377.93	16513	
3378.98	16526	
3380.02	16413	
3381.07	16327	
3382.11	16206	
3383.16	16067	
3384.2	16148	
3385.24	15951	
3386.29	15931	
3387.33	15926	
3388.37	15720	
3389.41	16187	
3390.46	16018	
3391.49	16199	
3392.53	16042	
3393.57	15867	
3394.61	15912	
3395.65	15972	
3396.69	15987	
3397.72	15366	
3398.76	16195	
3399.79	15561	
3400.83	15933	
3401.87	15340	
3402.9	15560	
3403.93	15842	
3404.97	15614	
3406	15384	
3407.03	15425	
3408.06	15337	
3409.09	15368	
3410.12	15632	
3411.15	15575	
3412.18	15176	
3413.21	15342	
3414.24	15279	
3415.26	15007	
3416.29	15177	
3417.32	15135	
3418.34	15164	
3419.37	15320	
3420.39	14880	
3421.42	15091	
3422.44	15090	
3423.46	15027	
3424.48	14813	
3425.5	14827	
3426.53	14483	
3427.55	14728	
3428.57	14502	
3429.59	14487	
3430.61	14425	
3431.62	14514	
