-117.633747	17.319231
-114.964146	18.912088
-112.297481	19.156543
-109.631568	18.413087
-106.968588	17.042208
-104.304177	15.404396
-101.642697	13.860140
-98.979788	16.150350
-96.321985	13.718182
-93.662753	15.031469
-91.004269	15.036364
-88.348710	18.483916
-85.691721	18.355245
-83.039831	17.494406
-80.386511	18.613986
-77.736110	19.469231
-75.084281	17.858042
-72.437542	16.962238
-69.789373	16.363636
-67.141947	17.648252
-64.497436	15.429371
-61.851495	18.232867
-59.210636	18.237063
-56.568348	21.702098
-53.928969	17.685315
-51.288161	19.580420
-48.648092	19.758741
-46.013097	21.705594
-43.376672	23.797902
-40.743150	29.846154
-38.108200	32.121678
-35.478316	35.690210
-32.844838	37.499301
-30.216423	43.301399
-27.588742	46.447552
-24.959632	34.081818
-22.335580	-63.553147
-19.707937	-376.778322
-17.085349	-1240.456643
-14.463491	-2137.002797
-11.842364	964.780420
-9.221968	6250.213986
-6.604459	10559.448252
-3.985522	13583.508392
-1.369471	15303.936364
1.245853	15719.055944
3.860448	14829.303497
6.472162	12650.540559
9.085303	9236.465734
11.693412	4837.038462
14.305101	165.823776
16.911760	-2784.520979
19.519848	-1559.941259
22.127210	-85.504895
24.729548	48.136364
27.335464	47.178322
29.936359	44.454545
32.538681	42.993706
35.135985	40.802098
37.736866	39.519580
40.332731	38.607692
42.930024	38.853846
45.526598	38.176224
48.118163	34.837063
50.711157	32.644755
53.301289	29.059441
55.892848	26.625175
58.481549	23.141958
61.071676	21.034965
63.656804	22.813986
66.243360	21.834266
68.829201	22.358741
71.412189	24.563636
73.996604	23.712587
76.573889	24.453147
79.154741	23.558042
81.732744	24.618881
84.310037	22.614685
86.888757	21.937762
89.462494	20.296503
92.037658	18.575524
94.609979	23.451049
97.181593	24.301399
99.750366	23.465734
102.320566	25.960839
104.887927	25.753846
107.456715	24.938462
110.022666	25.330769
112.585782	27.637762
115.152454	30.428671
117.709904	34.272727
120.273040	40.065734
122.831217	51.150350
125.392948	72.747552
127.949722	98.660839
130.507922	136.053147
133.061170	190.264336
135.613720	253.777622
138.169820	323.487413
140.720972	400.546154
143.271427	476.103497
145.821184	551.467832
148.368122	614.554545
150.914365	667.100699
153.462033	702.987413
156.009005	723.210490
158.551041	734.032168
161.092385	733.382517
163.633035	727.630070
166.175110	713.776923
168.714375	698.537762
171.250830	686.624476
173.786595	678.034965
176.323785	673.595804
178.860284	669.095804
181.393977	670.725175
183.924866	668.313287
186.455067	665.009091
188.986694	667.657343
191.515519	666.087413
194.041545	666.131469
196.566885	665.395105
199.093650	667.929371
201.617619	670.577622
204.140902	670.726573
206.663501	672.033566
209.183307	671.429371
211.702430	671.837762
214.220870	675.737762
216.740735	672.467832
219.253597	675.565734
221.769991	671.893007
224.285704	670.613287
226.796526	668.931469
229.308773	667.805594
231.818237	667.467832
234.327023	664.360140
236.835131	665.932168
239.344663	666.554545
241.849314	671.930070
244.353289	679.618182
246.858688	681.470629
249.359212	704.998601
251.863259	787.095804
254.360336	963.575524
256.860935	1205.313287
259.358763	1445.744755
261.855918	1636.252448
264.352401	1750.623077
266.844020	1786.595105
269.339159	1736.184615
271.831531	1610.495804
274.323233	1423.616783
276.812172	1208.401399
279.302534	1010.706993
281.790135	891.374126
284.274976	847.865734
286.763332	842.588811
289.244748	827.064336
291.729678	798.127972
294.209762	762.016084
296.693359	725.221678
299.172114	688.497902
301.652291	660.272727
304.129717	642.527972
306.606479	641.628671
309.082577	652.460839
311.555927	680.395804
314.028616	705.188112
316.500643	729.784615
318.972008	750.862937
321.440630	766.124476
323.908592	773.372028
326.377977	773.307692
328.842539	767.156643
331.310605	752.911888
333.773850	735.280420
336.236439	720.281818
338.698371	708.232867
341.159646	704.623077
343.618186	698.892308
346.078149	698.569930
348.535380	697.085315
350.991956	694.327972
353.447878	690.344056
355.901070	688.246853
358.355685	686.744755
360.805498	683.397902
363.258807	679.541259
365.707317	673.701399
368.155177	670.083217
370.604459	663.757343
373.048946	657.325175
375.494856	651.355944
377.940117	645.795105
380.382659	643.548252
382.824553	638.590909
385.265799	637.342657
387.704331	637.359441
390.144283	633.920979
392.581522	632.907692
395.016049	631.767832
397.454064	636.868531
399.887303	634.083916
402.321962	633.027972
404.751849	638.536364
407.185221	643.373427
409.613823	647.273427
412.041783	647.940559
414.471164	651.424476
416.895781	650.970629
419.321818	647.780420
421.747216	644.378322
424.171973	643.691608
426.591971	645.141958
429.013391	645.479720
431.432114	648.739161
433.852258	658.697203
436.269707	661.901399
438.688577	664.048252
441.104752	664.845455
443.516181	666.984615
445.931086	666.355944
448.343301	665.738462
450.754882	663.002797
453.165830	660.876923
455.574090	658.947552
457.981719	658.680420
460.388715	657.439860
462.795080	656.797902
465.198762	649.934965
467.601814	646.409091
470.004236	643.502098
472.406028	646.301399
474.805142	648.579720
477.205676	652.782517
479.605581	657.558042
482.000764	659.479021
484.399412	658.704196
486.793341	656.488112
489.186644	654.295105
491.579322	650.460140
493.971373	640.322378
496.364844	637.940559
498.753602	628.990909
501.139694	622.365734
503.527206	614.575524
505.914095	602.593706
508.298319	591.233566
510.683963	577.513986
513.066945	564.282517
515.447265	554.050350
517.829006	548.073427
520.208087	548.942657
522.588586	548.506294
524.966429	554.412587
527.341615	556.576923
529.716184	557.281818
532.092172	553.293706
534.465507	543.394406
536.840259	534.150350
539.210325	523.127273
541.579777	512.966434
543.950646	501.539161
546.316834	494.025175
548.684441	489.957343
551.049402	488.654545
553.413751	488.447552
555.777486	492.144755
558.142639	495.248951
560.503120	491.716084
562.865018	492.495105
565.224277	488.552448
567.580897	486.232168
569.940963	487.947552
572.294337	484.759441
574.651156	481.093007
577.005340	477.562937
579.358915	475.469930
581.711883	471.221678
584.062218	471.941958
586.413971	469.652448
588.759047	464.325175
591.109586	464.465734
593.453453	462.295804
595.802781	466.446154
598.147460	469.176923
600.489515	474.708392
602.832987	478.019580
605.173836	481.158042
607.514082	478.576923
609.851708	475.696503
612.192769	475.797902
614.529193	470.272028
616.867033	464.432867
619.202256	461.193007
621.534862	456.829371
623.868886	453.809790
626.200295	450.064336
628.531106	455.446154
630.861319	456.329371
633.190935	455.471329
635.515927	456.234266
637.846361	457.374126
640.172174	459.147552
642.495379	458.474825
644.820001	458.930769
647.142017	460.369930
649.463439	458.453147
651.782258	456.805594
654.102494	454.585315
656.422135	453.491608
658.739177	452.688811
661.055626	450.542657
663.369477	453.181818
665.684744	449.928671
667.997414	451.574825
670.311499	452.999301
672.620984	454.825175
674.931885	455.879021
677.240192	457.484615
679.547912	459.762238
681.857047	459.753846
684.161589	459.858741
686.465545	459.351049
688.768914	457.472727
691.073699	453.548252
693.373896	447.805594
695.675509	447.838462
697.976536	443.089510
700.272982	440.128671
702.570843	434.516783
704.868120	432.771329
707.164814	430.369930
709.456932	428.995804
711.752460	427.673427
714.043416	426.429371
716.335786	425.238462
718.625580	422.711189
720.914795	422.153147
723.203430	422.979720
725.489492	427.115385
727.776968	431.367133
730.061874	432.034965
732.346202	434.223776
734.627961	432.908392
736.911134	435.569930
739.193730	432.868531
741.471770	432.546154
743.751224	429.956643
746.030103	428.009790
748.308407	428.779021
750.582160	429.273427
752.857328	433.209790
755.131922	439.158042
757.403957	441.922378
759.677405	444.667133
761.948295	447.583217
764.216629	456.302098
766.486376	457.397902
768.753568	461.037063
771.020191	461.070629
773.286243	462.060839
775.549744	463.390210
777.814657	461.786713
780.079002	460.112587
782.338816	463.268531
784.600044	465.181818
786.860704	469.233566
789.118818	475.625175
791.374387	484.395105
793.633346	487.498601
795.885807	490.989510
798.143635	489.557343
800.396944	492.450350
802.647712	493.504895
804.899894	490.041259
807.149536	489.345455
809.400590	492.637063
811.647133	493.071329
813.895089	495.847552
816.140509	493.655245
818.387342	492.766434
820.633612	492.623077
822.875379	491.053846
825.120528	487.953147
827.359206	491.504196
829.601265	487.279720
831.838826	482.674825
834.077799	491.919580
836.314245	500.737063
838.552102	495.586014
840.787434	504.751049
843.020242	504.540559
845.254462	511.324476
847.486160	511.465734
849.717303	506.958042
851.947891	506.238462
854.177925	510.134965
856.407404	507.236364
858.632403	506.429371
860.860775	509.602098
863.084669	506.179720
865.309974	498.779021
867.530803	503.127972
869.755004	501.437063
871.974732	506.081818
874.195870	505.378322
876.416458	510.937762
878.634537	523.520979
880.854025	535.996503
883.069047	541.932867
885.283521	550.231469
887.497448	550.897203
889.710827	551.591608
891.923660	563.518182
894.135945	570.087413
896.345729	559.348252
898.554967	560.829371
900.763660	556.248252
902.969853	562.858741
905.177456	568.591608
907.382562	565.299301
909.587124	571.085315
911.789191	578.324476
913.992667	587.907692
916.193649	595.701399
918.394089	606.755245
920.595938	610.777622
922.791396	608.674126
924.990212	619.768531
927.184591	616.241958
929.382327	629.327972
931.575627	641.020280
933.770336	653.083217
935.962558	677.040559
938.154243	674.902797
940.345390	694.664336
942.534054	703.048252
944.722181	706.323077
946.907828	723.366434
949.096828	750.931469
951.281403	765.390909
953.465444	769.299301
955.652836	783.646154
957.831923	809.188811
960.014361	830.437063
962.196264	863.125874
964.375694	867.784615
966.552651	910.634965
968.731016	940.423077
970.910788	951.312587
973.084210	962.163636
975.260980	991.089510
977.433342	997.549650
979.607112	1000.611189
981.776478	993.862937
983.949188	1011.683217
986.119433	1055.628671
988.289148	1112.867832
990.458335	1145.839161
992.623125	1221.239860
994.791257	1285.093007
996.954993	1343.086014
999.120137	1394.490909
1001.282821	1423.230769
1003.444980	1449.385315
1005.604682	1469.371329
1007.763859	1474.945455
1009.924443	1497.861538
1012.082572	1536.109790
1014.240178	1541.893007
1016.397259	1554.127273
1018.553818	1618.175524
1020.705997	1670.803497
1022.859583	1734.505594
1025.012647	1786.497902
1027.163262	1871.763636
1029.315283	1950.148951
1031.462932	2027.102797
1033.613912	2064.408392
1035.760521	2118.839860
1037.906611	2151.011189
1040.052183	2153.219580
1042.199160	2168.933566
1044.339848	2197.396503
1046.483865	2194.067133
1048.625443	2221.590909
1050.766503	2232.410490
1052.908969	2279.593706
1055.045154	2257.477622
1057.184666	2259.723776
1059.319822	2233.834266
1061.458303	2251.016084
1063.592431	2251.569930
1065.726045	2246.261538
1067.861063	2245.358741
1069.991732	2247.495804
1072.123807	2246.731469
1074.253451	2240.118182
1076.382584	2205.203497
1078.511206	2187.579720
1080.639316	2139.129371
1082.765000	2114.520280
1084.890174	2062.853147
1087.016752	2028.334266
1089.138992	2011.760140
1091.262637	1964.870629
1093.381947	1904.688811
1095.506486	1879.745455
1097.624781	1839.974126
1099.744479	1779.375524
1101.861760	1735.842657
1103.978533	1687.987413
1106.094800	1625.747552
1108.208652	1573.262937
1110.323907	1518.927972
1112.434840	1496.669231
1114.549085	1462.627273
1116.659009	1409.008392
1118.770336	1365.785315
1120.881160	1352.906294
1122.987667	1308.567133
1125.097483	1258.941958
1127.202985	1228.567133
1129.309891	1182.863636
1131.410581	1132.739860
1133.516483	1101.087413
1135.618076	1087.160839
1137.721071	1072.883217
1139.823567	1045.232168
1141.919855	1027.986713
1144.021350	1003.897203
1146.118543	986.843357
1148.215237	954.855944
1150.311434	931.333566
1152.407132	924.472028
1154.502333	895.431469
1156.595137	884.220979
1158.689343	875.927273
1160.777358	868.809790
1162.870571	868.866434
1164.957596	864.651049
1167.047921	849.512587
1169.133957	833.630769
1171.223291	816.900699
1173.306444	802.563636
1175.391000	794.867133
1177.476957	784.344056
1179.558632	774.748252
1181.641708	786.523077
1183.722399	785.262238
1185.802599	794.398601
1187.882307	795.544755
1189.961524	794.954545
1192.038358	793.492308
1194.112812	781.437762
1196.190558	771.560839
1198.264033	761.976224
1200.338910	756.887413
1202.409519	755.348252
1204.481529	739.392308
1206.551163	725.977622
1208.622198	707.323776
1210.692745	686.855944
1212.759032	667.364336
1214.826719	667.448951
1216.892033	663.588112
1218.958748	664.123077
1221.021207	663.300699
1223.086952	659.172727
1225.148442	679.095105
1227.211332	688.162937
1229.271855	683.995105
1231.331895	687.161538
1233.391451	676.308392
1235.448643	660.865035
1237.505352	656.009790
1239.559699	668.544056
1241.617326	665.939161
1243.672591	666.753147
1245.723615	651.084615
1247.776040	638.498601
1249.827984	635.853846
1251.877570	635.093706
1253.926677	639.333566
1255.975305	651.862937
1258.023455	644.249650
1260.071127	645.009790
1262.114568	651.372727
1264.161285	663.662937
1266.205648	667.220979
1268.249534	681.127972
1270.291070	689.351049
1272.330256	702.053147
1274.372715	726.064336
1276.410951	743.352448
1278.450586	763.707692
1280.489745	786.309790
1282.524687	795.506993
1284.561027	805.608392
1286.595022	811.429371
1288.630416	828.472727
1290.661596	854.409091
1292.694175	873.516783
1294.726282	897.116084
1296.756048	918.812587
1298.787211	934.323077
1300.814167	916.660140
1302.842522	906.169930
1304.866671	885.688112
1306.894086	856.146154
1308.917298	817.605594
1310.941908	786.230769
1312.964183	759.630070
1314.987856	727.400000
1317.009196	697.336364
1319.030069	680.856643
1321.050474	674.600699
1323.066686	665.580420
1325.084295	649.939860
1327.099576	655.460839
1329.118116	649.319580
1331.132466	642.670629
1333.144491	640.193007
1335.159774	638.997902
1337.170871	629.303497
1339.183364	614.742657
1341.191675	606.468531
1343.203242	603.979720
1345.208770	600.960140
1347.217553	593.990909
1349.222158	593.807692
1351.230017	593.841259
1353.237414	587.763636
1355.238780	575.798601
1357.241542	566.997902
1359.243845	568.348252
1361.245688	556.351049
1363.247071	549.864336
1365.246140	555.292308
1367.244751	564.002098
1369.242904	571.247552
1371.240599	586.826573
1373.234131	594.618182
1375.229058	600.592308
1377.223529	602.237762
1379.217543	584.015385
1381.209250	582.805594
1383.200501	580.297902
1385.189447	563.879720
1387.179788	568.161538
1389.169675	574.904895
1391.157257	576.579720
1393.144386	576.704196
1395.129213	581.398601
1397.115435	574.222378
1399.099356	579.428671
1401.082825	575.884615
1403.065842	568.941259
1405.046561	574.106993
1407.028674	577.002098
1409.008490	575.804895
1410.987856	582.315385
1412.963083	583.884615
1414.941548	582.402797
1416.917720	584.085315
1418.893442	593.197902
1420.868715	586.666434
1422.841698	589.658741
1424.814232	583.728671
1426.786318	585.022378
1428.757957	589.807692
1430.725467	585.679021
1432.698051	574.385315
1434.662829	567.347552
1436.632680	569.306993
1438.598406	576.507692
1440.565526	575.380420
1442.530362	580.065734
1444.491078	566.654545
1446.456862	570.735664
1448.416691	575.803497
1450.377914	577.100699
1452.340528	594.832168
1454.299028	596.972028
1456.257086	604.785315
1458.214701	614.536364
1460.171875	631.619580
1462.126773	648.524476
1464.083064	647.869930
1466.037080	640.532867
1467.990655	631.620979
1469.941958	632.048252
1471.894653	629.681119
1473.845077	618.161538
1475.795062	629.113287
1477.744608	620.605594
1479.691885	616.964336
1481.636894	626.596503
1483.583296	630.627972
1485.529260	651.895804
1487.474787	650.774126
1489.418048	646.983217
1491.360873	665.093706
1493.301435	676.914685
1495.243389	682.642657
1497.183080	681.758741
1499.122336	693.597203
1501.061158	686.241259
1502.997720	678.739161
1504.935673	690.867832
1506.871367	680.685315
1508.806628	689.145455
1510.739632	681.315385
1512.672204	670.932168
1514.604344	679.747552
1516.536052	689.548951
1518.465507	686.640559
1520.396352	686.170629
1522.326765	697.081818
1524.253106	690.389510
1526.180837	688.658042
1528.106319	705.384615
1530.031371	708.891608
1531.955993	723.102098
1533.880187	728.895105
1535.802134	738.712587
1537.725471	748.465734
1539.646561	761.065035
1541.565407	776.455245
1543.485643	786.097902
1545.403635	790.304196
1547.321201	780.810490
1549.236526	782.285315
1551.153240	778.641259
1553.065898	782.392308
1554.981761	797.284615
1556.895385	793.499301
1558.806770	794.626573
1560.719545	787.531469
1562.628270	799.869231
1564.538384	821.593706
1566.448075	830.000699
1568.357343	832.503497
1570.264376	835.767133
1572.169177	831.221678
1574.075367	815.607692
1575.979326	819.638462
1577.882863	827.780420
1579.785980	813.252448
1581.686867	822.653846
1583.589143	842.845455
1585.489190	849.193007
1587.390626	856.803497
1589.288027	880.367832
1591.185011	900.758741
1593.081576	909.580420
1594.979528	917.569930
1596.871646	937.035664
1598.766958	953.440559
1600.661851	945.407692
1602.554524	946.348252
1604.446779	948.932168
1606.336815	951.883916
1608.226435	941.976923
1610.115640	939.419580
1612.004429	950.366434
1613.891002	964.715385
1615.778962	984.569930
1617.662905	1020.200699
1619.548235	1039.037063
1621.433152	1053.941958
1623.315855	1029.109091
1625.199945	1030.918881
1627.080023	1021.999301
1628.961488	1025.547552
1630.840743	1035.027273
1632.721385	1037.748252
1634.596222	1062.785315
1636.476040	1087.689510
1638.351853	1115.376224
1640.227257	1142.095804
1642.104046	1151.155245
1643.975038	1163.328671
1645.849213	1134.286014
1647.719388	1137.836364
1649.592744	1154.688811
1651.463897	1165.509091
1653.332848	1194.825175
1655.203185	1231.653846
1657.069528	1285.617483
1658.937258	1304.506294
1660.802788	1337.537063
1662.669704	1349.206294
1664.532630	1350.298601
1666.396943	1363.390210
1668.259059	1357.186014
1670.120770	1379.850350
1671.983866	1390.168531
1673.844768	1368.401399
1675.703477	1385.688112
1677.561782	1391.593007
1679.421471	1411.488112
1681.275394	1415.908392
1683.132490	1425.219580
1684.989182	1432.069231
1686.841899	1455.455944
1688.697787	1499.500000
1690.549701	1517.308392
1692.401214	1554.779021
1694.252326	1556.483916
1696.103037	1570.006294
1697.953348	1576.045455
1699.801475	1582.971329
1701.650986	1620.583916
1703.494747	1632.901399
1705.343459	1639.207692
1707.186424	1651.134965
1709.032555	1656.287413
1710.874725	1669.825175
1712.720059	1658.856643
1714.559653	1683.995105
1716.400632	1681.994406
1718.242993	1683.692308
1720.081397	1702.299301
1721.921185	1735.453147
1723.758798	1758.620979
1725.596016	1761.562238
1727.431060	1754.823077
1729.267487	1754.690909
1731.101741	1747.946853
1732.935602	1744.063636
1734.769068	1732.077622
1736.598588	1735.390909
1738.431267	1723.790909
1740.260002	1727.674126
1742.091895	1768.187413
1743.919845	1774.979720
1745.747403	1785.553846
1747.574570	1793.911189
1749.401345	1791.444755
1751.227728	1790.335664
1753.050175	1781.102098
1754.875777	1763.975524
1756.697443	1762.587413
1758.520492	1726.247552
1760.341380	1705.267832
1762.161878	1704.862238
1763.983758	1715.237762
1765.799938	1730.227273
1767.619270	1747.574126
1769.434675	1746.428671
1771.253231	1738.990210
1773.067861	1740.849650
1774.882104	1739.230070
1776.695961	1724.854545
1778.509431	1715.212587
1780.320747	1691.704895
1782.133445	1673.346154
1783.945756	1680.410490
1785.754150	1667.208392
1787.563925	1672.938462
1789.369784	1653.996503
1791.178790	1618.797902
1792.983882	1593.824476
1794.790355	1580.535664
1796.596443	1548.267133
1798.398622	1529.038462
1800.203944	1500.295105
1802.005358	1469.064336
1803.808153	1454.981818
1805.607041	1444.711189
1807.407310	1443.528671
1809.207197	1457.282517
1811.004942	1458.094406
1812.802307	1459.895804
1814.599291	1462.306294
1816.395895	1462.665035
1818.190360	1438.281818
1819.986205	1403.900699
1821.776394	1362.070629
1823.571480	1328.462937
1825.360913	1328.197203
1827.153484	1294.963636
1828.943919	1296.716084
1830.732219	1294.307692
1832.523655	1301.811888
1834.309446	1293.411189
1836.096615	1295.751748
1837.881654	1286.975524
1839.669825	1258.749650
1841.454111	1250.504196
1843.236268	1249.157343
1845.019804	1237.695105
1846.801211	1228.062937
1848.583996	1200.960140
1850.362902	1195.195804
1852.143186	1174.563636
1853.921345	1152.086713
1855.700881	1131.063636
1857.478293	1132.500699
1859.253582	1115.872028
1861.030248	1113.984615
1862.804792	1112.945455
1864.580713	1096.507692
1866.351015	1096.514685
1868.124444	1085.222378
1869.895753	1072.665035
1871.666691	1061.435664
1873.439007	1045.337762
1875.205709	1018.941958
1876.975536	1003.465035
1878.741500	987.683916
1880.510588	965.397902
1882.275814	955.879720
1884.040672	932.941958
1885.806906	927.958741
1887.569282	925.389510
1889.331291	908.654545
1891.092933	897.793706
1892.854207	900.280420
1894.615115	900.409790
1896.375655	878.932867
1898.134087	885.043357
1899.892152	887.541958
1901.648110	898.306993
1903.405444	902.227273
1905.162413	908.284615
1906.917275	920.758042
1908.670032	920.475524
1910.422426	920.421678
1912.176196	909.008392
1913.927862	898.142657
1915.677425	896.348951
1917.428365	872.479021
1919.178941	855.315385
1920.925679	837.534965
1922.673792	818.209790
1924.419806	808.763636
1926.167196	815.426573
1927.912487	806.206294
1929.655681	799.224476
1931.400251	807.840559
1933.142724	812.393706
1934.884837	810.662238
1936.626591	836.158392
1938.367984	839.932168
1940.107284	831.997552
1941.846225	831.962937
1943.584807	843.823427
1945.321298	872.466434
1947.057430	875.026923
1948.794938	853.416783
1950.528623	847.332517
1952.263683	849.222378
1953.996654	848.470979
1955.729269	839.635664
1957.461527	837.000350
1959.193429	816.076923
1960.923246	784.285315
1962.650977	783.400699
1964.380083	790.029371
1966.108833	798.979720
1967.835500	793.048951
1969.561813	790.366434
1971.289500	785.361538
1973.011650	792.377622
1974.736901	793.196503
1976.458345	780.321678
1978.182889	767.730070
1979.905354	749.526573
1981.624015	738.458042
1983.345775	750.030070
1985.063733	746.886713
1986.783065	750.365734
1988.498597	758.581119
1990.218949	767.497902
1991.935503	767.620979
1993.648260	781.237762
1995.364113	775.109790
1997.077894	771.449650
1998.791325	766.151049
2000.502685	755.790909
2002.215417	750.087413
2003.924358	760.894406
2005.636393	750.132867
2007.342918	746.344056
2009.052536	756.410490
2010.760086	753.932867
2012.467289	744.834965
2014.172426	742.555944
2015.877216	732.357343
2017.583379	737.872727
2019.285758	728.692308
2020.989510	729.501399
2022.691199	728.489510
2024.392542	721.043357
2026.093541	726.519580
2027.792478	730.065734
2029.492787	744.795804
2031.189320	725.814685
2032.887225	723.173427
2034.583072	713.502797
2036.282004	711.279021
2037.975450	709.780420
2039.670267	700.820280
2041.364741	697.534965
2043.055448	684.769231
2044.749237	677.515385
2046.439261	689.686014
2048.130654	692.758042
2049.819995	696.512587
2051.510707	692.815385
2053.197655	705.310490
2054.884263	703.254545
2056.572242	717.500699
2058.256461	718.555245
2059.942050	719.058042
2061.627300	719.307692
2063.310502	718.939161
2064.995074	711.362238
2066.674182	711.781119
2068.358077	714.037762
2070.036510	705.460839
2071.718021	706.532168
2073.395780	699.162937
2075.073203	690.868531
2076.751995	693.350350
2078.428744	693.481119
2080.103452	676.813287
2081.779530	668.079720
2083.453566	665.574126
2085.127267	654.832168
2086.800634	670.309790
2088.471961	686.024476
2090.142954	686.630070
2091.813613	677.968531
2093.483938	670.674825
2095.153929	669.183217
2096.821883	675.808392
2098.489505	672.805594
2100.155093	652.248951
2101.822049	643.115385
2103.486972	635.471329
2105.151563	629.413287
2106.814122	648.325874
2108.478049	660.004196
2110.139945	670.081119
2111.801510	670.286014
2113.462745	694.074825
2115.121950	713.437063
2116.780826	733.416783
2118.439371	723.586713
2120.097587	714.639161
2121.752080	713.175524
2123.409637	707.271329
2125.066864	708.299301
2126.720371	702.848951
2128.375245	700.613986
2130.026400	700.231469
2131.680618	701.427273
2133.331118	716.773427
2134.982986	722.277622
2136.629445	727.010490
2138.280658	724.918182
2139.928159	726.319580
2141.577026	736.944755
2143.223874	739.563636
2144.870397	731.535664
2146.516594	713.360839
2148.159082	704.147552
2149.804629	699.156643
2151.446469	693.301399
2153.091366	694.166434
2154.732558	690.170629
2156.373426	700.955245
2158.013971	705.506993
2159.652503	697.539860
2161.292401	706.320280
2162.928599	709.478322
2164.566163	712.223776
2166.203405	711.709091
2167.838637	720.953147
2169.473547	734.955944
2171.108136	728.065734
2172.742404	751.251049
2174.372978	756.613287
2176.006604	771.108392
2177.636537	771.790210
2179.267837	766.391608
2180.897131	768.207692
2182.526106	757.657343
2184.154761	753.220280
2185.783097	737.274825
2187.409430	745.221678
2189.035445	736.303497
2190.659459	734.896503
2192.284838	764.233566
2193.908216	781.886014
2195.532959	792.397902
2197.154021	806.604196
2198.774766	793.251748
2200.396875	785.518881
2202.016987	788.469231
2203.635103	780.400699
2205.252903	786.532867
2206.870387	807.489510
2208.487556	805.919580
2210.104410	831.243357
2211.720949	832.886713
2213.335494	846.976923
2214.948048	823.890909
2216.561965	822.925874
2218.173891	803.225874
2219.787180	795.498601
2221.398478	799.688811
2223.007788	789.259441
2224.618460	792.402797
2226.227144	807.024476
2227.835516	799.211189
2229.441901	811.711189
2231.049648	800.709091
2232.655410	808.013986
2234.260860	809.738462
2235.864325	832.181119
2237.469153	831.227972
2239.071997	849.146154
2240.672858	859.774126
2242.275082	852.493007
2243.875324	860.483217
2245.476928	883.420979
2247.074879	873.255245
2248.674193	880.756643
2250.271527	876.806294
2251.868553	873.779021
2253.466940	887.272028
2255.061680	886.753147
2256.654442	872.504895
2258.248567	887.461538
2259.844053	889.086713
2261.435894	894.745455
2263.027429	912.090909
2264.620325	926.845455
2266.207912	931.412587
2267.800196	935.788811
2269.387172	947.176224
2270.977177	944.283217
2272.561877	941.918182
2274.151271	942.620280
2275.735362	942.002098
2277.320815	940.190909
2278.904299	947.079021
2280.490808	945.031469
2282.073684	915.024476
2283.656257	916.419231
2285.238526	929.114685
2286.817165	947.855594
2288.398829	979.081119
2289.976864	996.559790
2291.557922	1020.576923
2293.135353	1038.595455
2294.710821	1036.772028
2296.289311	1041.264685
2297.864177	1043.548951
2299.438742	1013.248601
2301.013006	994.052448
2302.586970	998.526224
2304.160634	1013.102098
2305.733998	1023.438462
2307.303742	1060.053147
2308.873189	1082.160140
2310.445653	1096.778322
2312.012843	1094.748252
2313.583050	1078.442657
2315.149644	1086.047552
2316.717596	1086.694406
2318.283594	1082.662937
2319.849294	1106.572028
2321.414696	1110.753846
2322.978145	1111.784615
2324.542953	1111.867133
2326.104152	1142.644056
2327.668366	1145.129371
2329.227319	1130.185315
2330.789285	1131.676224
2332.349301	1130.802098
2333.909021	1136.223077
2335.466792	1164.208392
2337.024269	1179.693007
2338.581451	1199.190210
2340.136685	1229.181818
2341.691625	1240.286014
2343.246272	1240.771329
2344.800625	1253.863636
2346.354684	1258.352448
2347.908450	1255.080420
2349.460271	1264.174126
2351.010149	1268.661538
2352.563036	1263.718182
2354.110679	1260.862238
2355.661330	1266.411888
2357.208391	1278.667832
2358.756809	1311.977622
2360.304935	1306.879720
2361.849474	1311.788112
2363.395370	1338.216783
2364.939327	1342.825175
2366.484642	1332.888811
2368.026372	1325.634965
2369.569460	1340.086713
2371.110611	1323.170629
2372.651473	1302.236364
2374.192046	1292.146853
2375.732330	1308.231469
2377.272325	1321.392308
2378.808741	1320.027972
2380.348159	1325.625874
2381.884000	1316.263636
2383.421198	1291.504895
2384.954820	1303.102797
2386.491442	1326.006993
2388.026134	1376.095804
2389.558895	1382.964336
2391.091371	1391.600699
2392.621918	1422.607692
2394.155463	1440.390210
2395.683797	1454.420979
2397.213487	1467.992308
2398.742892	1449.296503
2400.272012	1434.491608
2401.800846	1422.675524
2403.324476	1440.428671
2404.852741	1460.133566
2406.375803	1504.223077
2407.903500	1513.853147
2409.424357	1504.815385
2410.949846	1522.486014
2412.471776	1503.281818
2413.995060	1510.111888
2415.516424	1501.932168
2417.035868	1462.654545
2418.556667	1460.607692
2420.075547	1440.120979
2421.594146	1451.011189
2423.110826	1470.688112
2424.628862	1480.302098
2426.146616	1473.871329
2427.660818	1460.630769
2429.174741	1476.565734
2430.688383	1472.792308
2432.203379	1466.723077
2433.714828	1461.226573
2435.227630	1480.353147
2436.738520	1488.488112
2438.249131	1469.689510
2439.757830	1473.086713
2441.269515	1483.441259
2442.777657	1468.820979
2444.285521	1444.482517
2445.793106	1448.191608
2447.297152	1419.390210
2448.804182	1396.498601
2450.309304	1375.967133
2451.814149	1381.846154
2453.317087	1398.483916
2454.819748	1384.701399
2456.322134	1386.048252
2457.822613	1397.271329
2459.324447	1398.068531
2460.824375	1413.683217
2462.324028	1418.073427
2463.823406	1433.241958
2465.320881	1406.302098
2466.816454	1412.310490
2468.315007	1367.745455
2469.810032	1349.143357
2471.306409	1337.423776
2472.799260	1333.788811
2474.293464	1337.364336
2475.787394	1323.162937
2477.277800	1307.713287
2478.771184	1332.899301
2480.262670	1345.205594
2481.752259	1356.239161
2483.241576	1363.111189
2484.728997	1354.997902
2486.219394	1314.902797
2487.706273	1305.308392
2489.194503	1303.906993
2490.679216	1302.920979
2492.163659	1287.527972
2493.649454	1260.662238
2495.133357	1248.267832
2496.618610	1233.407692
2498.098730	1230.704196
2499.581822	1234.939860
2501.063025	1237.871329
2502.543958	1236.962238
2504.023001	1237.800000
2505.501777	1261.402098
2506.980284	1284.847552
2508.458522	1301.261538
2509.936493	1305.661538
2511.410958	1290.650350
2512.888393	1276.295804
2514.362323	1269.823077
2515.837605	1270.046853
2517.312619	1284.662937
2518.784132	1278.806294
2520.256996	1249.337762
2521.727977	1220.247552
2523.200308	1226.948951
2524.667525	1201.521678
2526.137709	1187.870629
2527.606012	1173.427972
2529.074049	1136.581119
2530.541822	1135.647552
2532.009330	1171.272727
2533.476574	1205.437063
2534.940325	1255.174825
2536.405426	1270.283916
2537.868650	1279.686713
2539.333223	1301.558042
2540.794308	1325.912587
2542.256742	1299.313986
2543.718913	1282.856643
2545.177597	1260.141958
2546.640854	1240.924476
2548.099014	1219.558741
2549.558523	1218.352448
2551.012939	1230.369231
2552.471925	1217.902797
2553.929039	1204.559441
2555.384281	1216.469231
2556.839263	1233.804895
2558.292375	1257.404196
2559.746836	1237.466434
2561.199428	1231.868531
2562.651760	1214.890210
2564.102224	1211.392308
2565.555645	1202.748252
2567.003983	1168.195105
2568.455276	1166.716084
2569.904703	1124.179021
2571.350659	1123.332867
2572.799569	1127.966434
2574.245008	1159.309790
2575.691796	1192.569231
2577.136720	1204.723077
2578.581387	1205.976224
2580.027401	1202.825175
2581.469948	1207.229371
2582.913843	1218.907692
2584.354273	1180.235664
2585.796051	1181.836364
2587.235969	1163.474126
2588.677234	1175.952448
2590.115037	1186.550350
2591.555790	1207.229371
2592.991481	1226.074126
2594.430120	1231.493007
2595.866903	1220.908392
2597.301830	1236.427972
2598.739704	1235.548951
2600.172521	1235.055245
2601.606685	1212.974126
2603.038994	1215.162937
2604.472651	1215.886014
2605.904453	1222.753147
2607.336003	1214.095804
2608.767299	1196.939860
2610.196744	1200.257343
2611.625936	1178.093706
2613.053277	1160.425874
2614.481965	1168.111888
2615.910400	1125.429371
2617.335389	1095.921678
2618.761723	1083.481818
2620.186210	1077.960140
2621.612041	1080.464336
2623.034430	1086.444755
2624.458163	1095.118182
2625.880051	1109.622378
2627.301688	1141.584615
2628.721481	1135.398601
2630.142619	1146.039860
2631.563507	1151.692308
2632.980956	1113.490909
2634.401345	1111.233566
2635.818297	1109.909790
2637.235001	1095.753846
2638.651456	1083.287413
2640.067663	1060.174126
2641.483622	1051.393007
2642.897740	1056.941958
2644.311610	1058.289510
2645.723641	1039.925874
2647.137017	1063.613287
2648.546963	1073.140559
2649.959845	1074.416783
2651.369298	1081.891608
2652.778505	1090.919580
2654.185876	1096.635664
2655.596181	1096.504196
2657.004650	1103.544056
2658.411284	1112.281818
2659.817673	1144.302797
2661.222229	1125.139860
2662.628128	1123.591608
2664.032193	1151.304196
2665.436015	1154.284615
2666.839592	1141.823776
2668.241338	1117.365035
2669.644427	1102.937063
2671.044098	1104.193007
2672.445113	1108.049650
2673.842712	1103.818182
2675.243240	1112.265734
2676.640354	1125.358042
2678.038811	1103.955944
2679.435440	1121.981119
2680.831828	1123.677622
2682.227973	1118.727273
2683.622292	1115.536364
2685.017954	1111.144755
2686.410207	1105.186713
2687.803802	1107.300000
2689.195573	1094.304196
2690.588687	1081.019580
2691.979976	1086.592308
2693.369444	1099.279021
2694.758671	1111.339161
2696.147658	1125.025874
2697.537988	1137.702797
2698.923334	1143.109790
2700.311603	1149.626573
2701.698052	1150.565035
2703.084262	1138.255944
2704.470233	1130.332867
2705.852806	1118.978322
2707.236721	1102.513986
2708.620397	1098.841958
2710.003836	1095.947552
2711.383879	1105.558042
2712.765264	1091.990909
2714.144833	1106.048252
2715.525744	1103.931469
2716.904840	1086.194406
2718.282122	1061.806993
2719.660745	1054.845455
2721.037554	1065.775524
2722.414128	1082.532168
2723.790466	1082.318881
2725.164992	1098.034965
2726.540859	1104.556643
2727.913339	1135.016084
2729.288736	1131.198601
2730.659172	1148.451748
2732.030948	1149.221678
2733.402491	1133.630769
2734.772225	1106.030769
2736.143299	1107.718881
2737.512566	1140.765734
2738.881599	1136.586713
2740.248826	1129.815385
2741.615819	1131.104895
2742.982580	1148.105594
2744.349108	1154.140559
2745.713832	1141.352448
2747.078323	1124.061538
2748.442582	1121.755944
2749.806610	1108.423776
2751.170405	1061.708392
2752.530828	1057.102098
2753.894160	1066.392308
2755.252550	1036.206993
2756.613850	1036.932168
2757.971780	1042.732867
2759.332618	1044.061538
2760.691656	1030.151748
2762.047326	1040.254545
2763.405905	1040.666434
2764.761116	1062.366434
2766.116098	1051.899301
2767.469283	1045.905594
2768.825375	1056.538462
2770.178103	1080.658741
2771.530602	1097.655944
2772.882874	1111.770629
2774.236483	1114.844755
2775.586731	1108.762238
2776.935186	1110.563636
2778.286545	1126.609790
2779.634545	1124.501399
2780.983884	1130.837063
2782.331430	1125.813986
2783.678750	1145.087413
2785.025842	1134.555245
2786.371144	1138.508392
2787.716220	1150.667133
2789.061070	1153.281119
2790.405694	1145.944755
2791.746965	1134.271329
2793.089575	1116.453147
2794.431960	1130.621678
2795.774119	1150.432867
2797.112929	1143.629371
2798.454639	1147.133566
2799.793000	1161.206993
2801.132699	1157.872727
2802.470612	1148.672727
2803.806741	1149.190909
2805.142647	1130.433566
2806.479889	1111.838462
2807.815348	1114.987413
2809.150584	1138.036364
2810.484038	1155.375524
2811.818828	1166.579720
2813.150277	1159.983217
2814.484622	1173.689510
2815.814069	1176.630070
2817.144853	1168.029371
2818.475415	1166.388811
2819.804198	1150.690210
2821.134318	1142.833566
2822.462659	1149.658042
2823.790778	1155.841958
2825.117121	1186.930070
2826.444799	1154.632168
2827.769145	1150.425874
2829.094827	1132.611888
2830.418733	1126.021678
2831.742419	1107.083217
2833.067441	1081.643357
2834.389134	1080.521678
2835.710608	1076.977622
2837.031862	1077.035664
2838.352898	1091.687413
2839.672162	1104.068531
2840.992761	1140.265734
2842.311588	1123.952448
2843.630197	1139.906294
2844.947036	1156.268531
2846.263657	1173.242657
2847.580061	1157.394406
2848.894695	1136.967133
2850.210664	1122.829371
2851.523314	1122.468531
2852.837298	1124.743357
2854.151066	1131.248252
2855.464617	1118.072028
2856.776402	1115.657343
2858.086420	1088.719580
2859.397773	1102.413986
2860.705811	1112.993007
2862.015183	1122.976224
2863.324340	1123.332168
2864.633282	1135.998601
2865.940461	1143.863636
2867.245876	1146.675524
2868.552626	1159.791608
2869.857614	1147.402797
2871.162387	1147.148951
2872.465400	1155.277622
2873.771293	1139.358042
2875.072332	1163.037762
2876.374704	1155.334266
2877.675318	1168.949650
2878.977264	1150.876224
2880.278998	1155.031469
2881.577428	1144.974825
2882.877191	1121.795804
2884.175197	1103.546154
2885.472991	1092.531469
2886.769028	1122.128671
2888.066399	1122.267133
2889.362015	1140.727273
2890.657419	1164.246154
2891.952612	1149.297203
2893.244508	1167.474825
2894.539279	1158.472028
2895.830755	1167.158042
2897.123563	1157.353846
2898.416161	1130.795804
2899.705464	1115.410490
2900.996101	1109.397203
2902.284986	1098.455944
2903.575203	1106.493706
2904.862129	1125.874825
2906.150387	1122.860839
2907.436896	1124.686014
2908.723196	1138.524476
2910.009288	1135.867133
2911.293632	1161.388811
2912.580848	1149.745455
2913.863237	1141.265035
2915.146958	1134.320280
2916.428932	1104.539860
2917.710700	1096.188811
2918.990722	1118.879021
2920.273614	1114.441259
2921.554761	1118.579021
2922.832626	1119.059441
2924.113360	1126.920280
2925.390813	1131.849650
2926.668061	1165.773427
2927.943566	1132.062238
2929.221939	1125.488811
2930.495498	1090.857343
2931.771924	1069.248951
2933.046608	1083.392308
2934.319553	1088.402797
2935.593829	1091.150350
2936.866364	1115.236364
2938.138696	1107.614685
2939.407755	1116.111888
2940.679679	1128.622378
2941.949865	1152.613986
2943.219847	1131.562238
2944.489626	1143.430070
2945.757668	1135.804895
2947.023975	1135.267133
2948.290079	1140.058042
2949.557514	1136.719580
2950.823213	1142.855944
2952.088710	1124.453147
2953.354006	1088.533566
2954.616036	1073.749650
2955.879396	1082.004895
2957.142555	1074.513986
2958.403981	1083.869930
2959.666738	1110.234965
2960.927762	1099.085315
2962.187056	1100.027273
2963.446149	1122.093007
2964.705042	1132.633566
2965.963735	1147.918182
2967.222228	1129.097902
2968.478992	1119.483916
2969.735557	1112.692308
2970.990393	1113.686713
2972.246559	1104.177622
2973.499470	1122.469231
2974.753709	1115.576923
2976.007750	1096.194406
2977.260065	1107.374126
2978.512182	1116.355245
2979.762574	1107.997203
2981.015821	1110.734266
2982.264291	1128.262238
2983.515616	1134.783916
2984.763691	1128.895804
2986.011569	1115.651748
2987.259251	1117.022378
2988.506735	1123.800699
2989.752498	1111.202797
2990.998064	1119.126573
2992.244959	1116.764336
2993.488609	1117.251748
2994.733586	1119.503497
2995.975321	1127.956643
2997.219907	1150.418182
2998.462774	1145.820979
2999.702400	1113.048252
3000.944876	1106.667832
3002.184112	1119.923077
3003.424676	1106.268531
3004.663523	1087.234266
3005.902176	1095.694406
3007.139113	1083.059441
3008.377378	1088.946154
3009.613927	1103.714685
3010.850283	1084.207692
3012.086445	1086.002797
3013.320893	1097.486014
3014.555148	1081.690909
3015.789210	1091.020979
3017.021560	1103.795105
3018.252198	1093.730769
3019.485682	1080.905594
3020.717455	1080.713287
3021.947516	1072.318881
3023.177386	1075.101399
3024.405546	1075.193706
3025.635033	1040.106294
3026.862810	1054.363636
3028.090396	1061.294406
3029.319308	1061.279021
3030.543478	1082.800699
3031.770491	1077.730769
3032.994281	1062.953147
3034.219396	1043.300699
3035.442806	1039.689510
3036.666025	1036.998601
3037.887539	1028.580420
3039.111894	1021.033566
3040.331514	1009.969930
3041.552460	1031.577622
3042.773216	1050.525874
3043.992270	1064.837063
3045.212648	1066.277622
3046.429810	1040.296503
3047.648297	1047.034266
3048.865083	1047.373427
3050.081680	1034.872727
3051.298090	1014.560839
3052.511286	986.055944
3053.727320	996.137063
3054.940142	993.721678
3056.155801	1000.767832
3057.366737	1011.486014
3058.578999	1001.414685
3059.791073	1008.685315
3061.002961	1017.653147
3062.213152	1019.293007
3063.423156	1009.257692
3064.632974	991.889510
3065.841096	994.782867
3067.049033	1000.762937
3068.255274	1021.669580
3069.462840	1011.988811
3070.668711	1001.991259
3071.874397	1006.965734
3073.079899	987.525524
3074.283707	976.594406
3075.488839	975.323427
3076.692278	956.183217
3077.894025	945.650699
3079.095589	966.735664
3080.296969	982.893007
3081.498165	989.179021
3082.697671	987.238462
3083.896994	982.473427
3085.097640	974.948252
3086.296596	970.965035
3087.492357	961.655944
3088.690948	952.033566
3089.886345	954.939161
3091.083066	950.574825
3092.276594	941.554545
3093.472950	953.568531
3094.667619	944.798601
3095.859098	950.018881
3097.054908	937.796503
3098.246025	942.418182
3099.438465	927.100699
3100.627716	934.106993
3101.819794	942.202797
3103.010188	935.484615
3104.197396	944.154545
3105.385926	959.413986
3106.575779	952.937063
3107.762447	950.700699
3108.948936	961.674126
3110.135246	958.309091
3111.322877	949.844056
3112.507326	950.884615
3113.690096	941.535664
3114.875688	947.685315
3116.059601	942.121678
3117.241834	940.998601
3118.423890	958.376224
3119.605767	962.404196
3120.787466	956.719580
3121.967488	946.489510
3123.145833	950.887413
3124.326998	950.716084
3125.504988	946.026573
3126.682801	941.324476
3127.860437	948.775524
3129.036398	967.357343
3130.212183	982.553147
3131.389288	976.406993
3132.564720	983.398601
3133.738478	974.751748
3134.910563	974.018881
3136.083969	960.488112
3137.257200	956.020979
3138.428759	967.122378
3139.601638	940.853846
3140.771350	953.055245
3141.942383	958.206993
3143.111745	972.408392
3144.279438	965.737762
3145.449946	940.110490
3146.615795	941.065734
3147.785954	949.310490
3148.951455	943.739860
3150.116783	954.197902
3151.281937	971.258042
3152.446918	980.079021
3153.613218	980.972028
3154.774865	998.764336
3155.937833	991.854545
3157.100628	985.104196
3158.263249	975.397203
3159.424206	962.858741
3160.584991	959.048951
3161.745603	951.921678
3162.904551	930.193007
3164.063327	939.123077
3165.221932	944.503497
3166.380365	943.571329
3167.538626	953.632168
3168.695226	969.954545
3169.850164	970.729371
3171.006421	974.230769
3172.161017	971.214685
3173.315443	974.434266
3174.468208	973.762937
3175.620804	970.449650
3176.773230	961.304895
3177.925485	953.997902
3179.077571	956.991608
3180.226510	970.830769
3181.378256	972.409790
3182.528345	978.195105
3183.676776	969.650350
3184.825039	972.903497
3185.973133	970.219580
3187.121058	988.083916
3188.267327	1000.091608
3189.413428	1005.657343
3190.557875	1014.165734
3191.702153	1012.838462
3192.846264	1017.462238
3193.991693	1024.381119
3195.133983	1016.035664
3196.276105	1008.981818
3197.418061	1015.603497
3198.559849	1012.991608
3199.701470	1004.376224
3200.839956	1010.225175
3201.979759	1006.935664
3203.120879	1004.187413
3204.258866	1005.265734
3205.395202	984.145455
3206.531374	974.875524
3207.668862	975.536364
3208.804702	989.350350
3209.941859	995.142657
3211.074403	1017.787413
3212.211228	1031.067133
3213.343443	1029.366434
3214.476974	1028.625175
3215.610340	1020.341259
3216.740580	1010.613986
3217.873617	988.562238
3219.003527	972.446154
3220.134755	978.512587
3221.262857	994.947552
3222.393757	1015.448252
3223.523012	1021.616084
3224.650624	1045.133566
3225.775113	1044.530769
3226.903878	1032.402098
3228.029521	1025.885315
3229.155001	1020.234266
3230.278840	1002.955245
3231.405474	988.525175
3232.527510	986.100000
3233.650862	987.149650
3234.774051	994.062937
3235.897079	1001.436364
3237.018467	998.396503
3238.139694	1014.281818
3239.259282	1010.960839
3240.378709	1022.251049
3241.496499	1021.945455
3242.617080	1020.821678
3243.734548	1020.618182
3244.851855	1008.983217
3245.969002	1005.494406
3247.084512	997.851748
3248.201338	986.408392
3249.315053	991.442657
3250.431559	1000.620979
3251.546429	1003.726573
3252.658191	1001.975524
3253.769794	996.493007
3254.882712	1002.119580
3255.995470	994.317483
3257.105122	993.041958
3258.216089	980.727972
3259.326897	970.095804
3260.436073	963.397203
3261.543618	950.484615
3262.652478	958.548252
3263.761179	959.882517
3264.866778	960.333566
3265.973692	978.386713
3267.078976	979.313287
3268.185574	1025.393706
3269.289072	1019.571329
3270.393884	1053.548252
3271.498539	1069.227273
3272.600096	1063.675524
3273.701496	1055.744755
3274.804210	1036.959441
3275.906768	1036.826573
3277.006229	1026.801399
3278.108474	1014.160839
3279.207623	986.941259
3280.305147	983.358042
3281.402517	1009.253846
3282.502668	1005.680420
3283.599727	1026.498601
3284.696630	1032.651049
3285.793378	1020.648951
3286.885567	1029.174825
3287.982006	1035.876923
3289.076822	1042.817483
3290.171483	1031.779720
3291.264523	1030.698601
3292.357409	1026.528671
3293.448674	1047.267832
3294.541252	1062.632168
3295.632210	1052.902797
3296.721548	1037.252448
3297.810733	1025.625175
3298.901230	1019.785315
3299.988643	1027.788112
3301.075904	1018.825874
3302.164477	1002.523776
3303.252897	1018.204196
3304.336771	1031.957343
3305.424885	1044.230070
3306.509919	1058.015385
3307.593337	1064.020280
3308.678067	1055.698601
3309.761181	1038.533566
3310.845607	1040.110490
3311.926956	1056.838462
3313.009616	1046.910490
3314.090661	1049.125175
3315.171556	1035.832168
3316.250838	1040.698601
3317.329969	1035.906993
3318.410412	1032.048252
3319.487780	1028.720280
3320.566460	1043.462937
3321.643528	1035.255245
3322.720446	1017.381818
3323.795754	1035.760140
3324.870912	1049.470629
3325.947381	1034.083217
3327.020780	1037.764336
3328.094029	1031.183916
3329.168590	1021.107692
3330.241542	1038.852448
3331.312885	1032.349650
3332.385539	1045.786713
3333.455126	1047.656643
3334.526024	1033.819580
3335.595316	1046.513287
3336.665917	1059.429371
3337.734912	1051.298601
3338.802302	1037.464336
3339.868086	1048.645455
3340.938096	1060.304196
3342.005042	1056.557343
3343.068928	1069.826573
3344.135580	1055.063636
3345.200629	1046.611888
3346.264074	1029.893706
3347.327373	1042.379021
3348.390525	1055.502098
3349.453531	1037.572028
3350.516391	1020.306294
3351.577648	1027.816084
3352.635849	1043.725175
3353.698271	1045.214685
3354.757637	1044.473427
3355.816857	1057.134266
3356.877386	1045.121678
3357.933407	1042.827273
3358.992191	1035.853846
3360.046468	1035.376224
3361.103509	1032.045455
3362.158951	1027.385315
3363.215702	1031.350350
3364.270856	1061.851049
3365.324412	1078.241259
3366.376371	1090.128671
3367.431093	1109.734266
3368.482765	1122.649650
3369.534293	1103.552448
3370.587131	1101.916084
3371.636921	1079.143357
3372.688020	1065.684615
3373.736072	1055.318881
3374.786885	1038.232168
3375.834652	1027.950350
3376.882277	1044.246154
3377.929760	1044.830769
3378.975650	1061.474126
3380.022848	1072.484615
3381.067003	1087.065035
3382.113917	1094.435664
3383.159240	1102.610490
3384.201521	1092.723077
3385.243661	1093.168531
3386.287110	1075.052448
3387.330417	1076.623077
3388.372134	1064.952448
3389.413711	1065.370629
3390.455146	1071.604895
3391.494993	1083.571329
3392.533251	1094.379021
3393.572817	1104.479021
3394.612243	1092.079720
3395.650081	1081.409790
3396.686332	1067.820979
3397.722443	1053.932867
3398.759862	1037.897902
3399.794248	1054.525175
3400.829942	1042.457343
3401.865496	1066.131469
3402.898018	1077.627273
3403.933294	1085.104895
3404.965540	1090.842657
3405.997646	1085.258042
3407.028170	1091.102797
3408.060000	1093.451049
3409.091692	1078.588811
3410.120356	1062.377622
3411.148883	1059.176923
3412.178716	1073.496503
3413.208412	1078.928671
3414.235082	1086.483916
3415.263058	1079.654545
3416.288010	1070.555944
3417.315713	1071.118182
3418.340391	1070.378322
3419.366376	1083.119580
3420.390782	1066.718182
3421.415051	1063.924476
3422.437741	1056.222378
3423.460295	1071.489510
3424.484155	1080.676224
3425.504995	1086.324476
3426.525699	1092.260839
3427.547709	1097.160964
3428.566701	1100.554745
3429.585558	1101.972078
3430.605721	1100.942857
3431.622867	1096.996978
