-117.633747	13.098901
-114.964146	5.783516
-112.297481	1.220280
-109.631568	-1.070529
-106.968588	-1.568631
-104.304177	-0.753746
-101.642697	0.894406
-98.979788	1.717483
-96.321985	3.606993
-93.662753	5.050350
-91.004269	5.558042
-88.348710	4.034965
-85.691721	5.376224
-83.039831	4.345455
-80.386511	7.512587
-77.736110	8.159441
-75.084281	7.591608
-72.437542	7.624476
-69.789373	7.752448
-67.141947	8.505594
-64.497436	5.996503
-61.851495	5.874825
-59.210636	4.345455
-56.568348	0.985315
-53.928969	0.662238
-51.288161	-2.215385
-48.648092	0.709790
-46.013097	2.005594
-43.376672	2.779720
-40.743150	8.022378
-38.108200	16.385315
-35.478316	22.125175
-32.844838	22.895105
-30.216423	25.682517
-27.588742	22.541259
-24.959632	16.255944
-22.335580	-19.676224
-19.707937	-159.604196
-17.085349	-441.541259
-14.463491	-306.015385
-11.842364	559.072727
-9.221968	2113.939161
-6.604459	3384.211189
-3.985522	4255.202098
-1.369471	4720.025874
1.245853	4785.640559
3.860448	4448.276923
6.472162	3721.911888
9.085303	2627.532867
11.693412	1264.374126
14.305101	-40.792308
16.911760	-622.509790
19.519848	-486.119580
22.127210	-30.476923
24.729548	17.331469
27.335464	15.969930
29.936359	14.463636
32.538681	12.144056
35.135985	8.477622
37.736866	7.250350
40.332731	7.416783
42.930024	8.132168
45.526598	10.534266
48.118163	12.550350
50.711157	11.756643
53.301289	10.237063
55.892848	8.432168
58.481549	5.197203
61.071676	5.621678
63.656804	1.747552
66.243360	3.208392
68.829201	3.646853
71.412189	8.860839
73.996604	9.849650
76.573889	11.772028
79.154741	12.248252
81.732744	12.533566
84.310037	13.980420
86.888757	14.421678
89.462494	11.921678
92.037658	10.709091
94.609979	11.056643
97.181593	13.565035
99.750366	14.626573
102.320566	17.174825
104.887927	16.189510
107.456715	16.294406
110.022666	15.123776
112.585782	17.109790
115.152454	19.616783
117.709904	21.906294
120.273040	22.265035
122.831217	28.711888
125.392948	42.060140
127.949722	62.102098
130.507922	91.919580
133.061170	131.725175
135.613720	179.507692
138.169820	234.365035
140.720972	293.169231
143.271427	355.567832
145.821184	410.716783
148.368122	458.292308
150.914365	494.338462
153.462033	520.109091
156.009005	536.672727
158.551041	546.593706
161.092385	551.081818
163.633035	549.656643
166.175110	542.881818
168.714375	533.248951
171.250830	521.188112
173.786595	512.209091
176.323785	502.243357
178.860284	497.939860
181.393977	492.188811
183.924866	489.548951
186.455067	485.804895
188.986694	488.193706
191.515519	491.006993
194.041545	489.876224
196.566885	493.372727
199.093650	490.258741
201.617619	488.867832
204.140902	484.450350
206.663501	483.002797
209.183307	484.185315
211.702430	483.048951
214.220870	480.216084
216.740735	475.444056
219.253597	476.957343
221.769991	476.885315
224.285704	478.800699
226.796526	481.892308
229.308773	477.918881
231.818237	475.864336
234.327023	467.913986
236.835131	467.069231
239.344663	466.986713
241.849314	464.902797
244.353289	463.726573
246.858688	463.712587
249.359212	466.142657
251.863259	472.545455
254.360336	480.397203
256.860935	489.658741
259.358763	498.294406
261.855918	508.909091
264.352401	524.930070
266.844020	548.811189
269.339159	577.936364
271.831531	606.604196
274.323233	637.308392
276.812172	665.140559
279.302534	684.093706
281.790135	709.137762
284.274976	807.832168
286.763332	1212.564336
289.244748	2148.672028
291.729678	3501.575524
294.209762	4852.126573
296.693359	5891.158042
299.172114	6491.106294
301.652291	6609.132867
304.129717	6238.432867
306.606479	5423.814685
309.082577	4247.585315
311.555927	2889.734266
314.028616	1625.181119
316.500643	792.514685
318.972008	523.345455
321.440630	573.526573
323.908592	628.479021
326.377977	629.960839
328.842539	613.600699
331.310605	595.974825
333.773850	571.117483
336.236439	558.039161
338.698371	548.294406
341.159646	550.035664
343.618186	553.188811
346.078149	552.101399
348.535380	552.033566
350.991956	550.144755
353.447878	549.974126
355.901070	547.263636
358.355685	544.376923
360.805498	539.904196
363.258807	531.891608
365.707317	523.536364
368.155177	511.307692
370.604459	505.400699
373.048946	498.798601
375.494856	491.900699
377.940117	490.376923
380.382659	487.065734
382.824553	486.980420
385.265799	484.993706
387.704331	486.763636
390.144283	485.396503
392.581522	481.116783
395.016049	474.076224
397.454064	468.552448
399.887303	466.107692
402.321962	461.753147
404.751849	459.413287
407.185221	464.458741
409.613823	463.623077
412.041783	463.026573
414.471164	463.258741
416.895781	467.145455
419.321818	466.069930
421.747216	467.690210
424.171973	469.553846
426.591971	469.912587
429.013391	471.275524
431.432114	472.496503
433.852258	472.179021
436.269707	475.390210
438.688577	474.840559
441.104752	475.612587
443.516181	473.056643
445.931086	476.260140
448.343301	478.726573
450.754882	483.772727
453.165830	485.167133
455.574090	485.738462
457.981719	486.624476
460.388715	483.882517
462.795080	479.426573
465.198762	477.838462
467.601814	474.951049
470.004236	469.164336
472.406028	465.433566
474.805142	463.021678
477.205676	459.904895
479.605581	456.171329
482.000764	449.343357
484.399412	443.027972
486.793341	433.539161
489.186644	426.448951
491.579322	415.688112
493.971373	405.124476
496.364844	393.393706
498.753602	380.497902
501.139694	369.796503
503.527206	356.393007
505.914095	345.997902
508.298319	336.610490
510.683963	326.581818
513.066945	322.259441
515.447265	316.205594
517.829006	315.541259
520.208087	310.791608
522.588586	310.183916
524.966429	309.858042
527.341615	309.876224
529.716184	310.239860
532.092172	309.526573
534.465507	310.555245
536.840259	313.474126
539.210325	315.899301
541.579777	323.532168
543.950646	325.353846
546.316834	332.160140
548.684441	334.495804
551.049402	340.057343
553.413751	346.199301
555.777486	349.901399
558.142639	355.820280
560.503120	359.762238
562.865018	363.542657
565.224277	369.351049
567.580897	369.783916
569.940963	372.310490
572.294337	366.137762
574.651156	359.543357
577.005340	351.718182
579.358915	347.167133
581.711883	339.142657
584.062218	333.453147
586.413971	327.396503
588.759047	321.634266
591.109586	311.645455
593.453453	306.130769
595.802781	296.103497
598.147460	288.039860
600.489515	273.966434
602.832987	264.100699
605.173836	256.632168
607.514082	245.401399
609.851708	235.241259
612.192769	229.518182
614.529193	223.351748
616.867033	218.315385
619.202256	213.112587
621.534862	213.352448
623.868886	211.883217
626.200295	213.739860
628.531106	211.927972
630.861319	213.211189
633.190935	209.269231
635.515927	204.161538
637.846361	202.134266
640.172174	199.638462
642.495379	196.567133
644.820001	194.258741
647.142017	194.158741
649.463439	196.815385
651.782258	199.081818
654.102494	203.197203
656.422135	203.603497
658.739177	205.018182
661.055626	202.596503
663.369477	200.786713
665.684744	200.848252
667.997414	198.223776
670.311499	196.418182
672.620984	194.112587
674.931885	190.907692
677.240192	190.705594
679.547912	190.431469
681.857047	193.069231
684.161589	194.533566
686.465545	193.053147
688.768914	191.497902
691.073699	192.805594
693.373896	191.509091
695.675509	190.320280
697.976536	187.741259
700.272982	182.108392
702.570843	180.762937
704.868120	181.409091
707.164814	182.322378
709.456932	184.821678
711.752460	184.146154
714.043416	181.786014
716.335786	182.971329
718.625580	189.111189
720.914795	185.195105
723.203430	184.688112
725.489492	186.379021
727.776968	186.665035
730.061874	188.633566
732.346202	186.775524
734.627961	183.875524
736.911134	181.609091
739.193730	179.691608
741.471770	177.683217
743.751224	179.699301
746.030103	181.239161
748.308407	176.437762
750.582160	183.905594
752.857328	191.799301
755.131922	194.223077
757.403957	195.229371
759.677405	195.132867
761.948295	195.539860
764.216629	198.569930
766.486376	201.727273
768.753568	203.281119
771.020191	200.679021
773.286243	198.590909
775.549744	199.693007
777.814657	205.748252
780.079002	212.127273
782.338816	212.362937
784.600044	207.761538
786.860704	208.360140
789.118818	206.351049
791.374387	214.368531
793.633346	216.127972
795.885807	218.125175
798.143635	211.569930
800.396944	206.265035
802.647712	202.702797
804.899894	203.841259
807.149536	206.397902
809.400590	206.526573
811.647133	205.087413
813.895089	205.072028
816.140509	203.458741
818.387342	206.696503
820.633612	206.706294
822.875379	213.506993
825.120528	206.985315
827.359206	210.747552
829.601265	210.238462
831.838826	211.018182
834.077799	214.209091
836.314245	224.160140
838.552102	213.062238
840.787434	201.593007
843.020242	197.195804
845.254462	191.925175
847.486160	185.654545
849.717303	181.843357
851.947891	176.832168
854.177925	183.667133
856.407404	175.987413
858.632403	175.489510
860.860775	178.590210
863.084669	180.395804
865.309974	161.185315
867.530803	160.341958
869.755004	156.757343
871.974732	152.757343
874.195870	147.148951
876.416458	154.213287
878.634537	168.411189
880.854025	175.719580
883.069047	181.247552
885.283521	181.516084
887.497448	184.645455
889.710827	197.490210
891.923660	188.621678
894.135945	188.197203
896.345729	183.064336
898.554967	182.646154
900.763660	177.849650
902.969853	176.310490
905.177456	176.513287
907.382562	170.454545
909.587124	175.262937
911.789191	176.711888
913.992667	183.130769
916.193649	196.557343
918.394089	186.284615
920.595938	179.790210
922.791396	178.448951
924.990212	182.208392
927.184591	176.607692
929.382327	172.068531
931.575627	179.660839
933.770336	181.913287
935.962558	194.576224
938.154243	192.934965
940.345390	197.481818
942.534054	198.002098
944.722181	191.939161
946.907828	178.943357
949.096828	180.388112
951.281403	194.516084
953.465444	191.307692
955.652836	179.204895
957.831923	200.977622
960.014361	206.148252
962.196264	195.030070
964.375694	203.385315
966.552651	209.150350
968.731016	213.396503
970.910788	218.575524
973.084210	210.063636
975.260980	224.554545
977.433342	258.669930
979.607112	256.933566
981.776478	245.537762
983.949188	280.988811
986.119433	283.675524
988.289148	243.148951
990.458335	235.056643
992.623125	218.937063
994.791257	210.296503
996.954993	196.688112
999.120137	201.768531
1001.282821	206.511189
1003.444980	225.324476
1005.604682	212.134266
1007.763859	209.633566
1009.924443	240.676923
1012.082572	235.790909
1014.240178	210.628671
1016.397259	216.067133
1018.553818	213.239161
1020.705997	201.793007
1022.859583	200.537063
1025.012647	229.936364
1027.163262	206.546853
1029.315283	210.552448
1031.462932	201.457343
1033.613912	224.466434
1035.760521	256.048951
1037.906611	250.065035
1040.052183	249.843357
1042.199160	249.263636
1044.339848	214.948951
1046.483865	188.304196
1048.625443	167.465035
1050.766503	171.443357
1052.908969	147.567133
1055.045154	140.551748
1057.184666	132.469930
1059.319822	161.265035
1061.458303	173.560140
1063.592431	184.144056
1065.726045	209.519580
1067.861063	225.755944
1069.991732	193.444755
1072.123807	199.369930
1074.253451	203.499301
1076.382584	193.934266
1078.511206	180.761538
1080.639316	185.658042
1082.765000	202.600000
1084.890174	215.265035
1087.016752	225.045455
1089.138992	246.325175
1091.262637	259.668531
1093.381947	253.183916
1095.506486	236.790210
1097.624781	240.379720
1099.744479	240.517483
1101.861760	217.665734
1103.978533	229.948252
1106.094800	282.309091
1108.208652	286.862937
1110.323907	279.362238
1112.434840	249.872727
1114.549085	236.213986
1116.659009	225.034965
1118.770336	214.577622
1120.881160	213.007692
1122.987667	186.563636
1125.097483	186.977622
1127.202985	192.122378
1129.309891	205.051748
1131.410581	231.654545
1133.516483	201.823776
1135.618076	195.751748
1137.721071	194.578322
1139.823567	195.632168
1141.919855	213.023077
1144.021350	218.888811
1146.118543	229.407692
1148.215237	222.622378
1150.311434	219.130769
1152.407132	220.193007
1154.502333	202.572028
1156.595137	202.436364
1158.689343	189.665734
1160.777358	190.598601
1162.870571	198.441958
1164.957596	183.511888
1167.047921	197.385315
1169.133957	191.490909
1171.223291	215.167832
1173.306444	232.658741
1175.391000	220.888112
1177.476957	214.829371
1179.558632	203.491608
1181.641708	197.083217
1183.722399	186.576923
1185.802599	162.475524
1187.882307	154.867133
1189.961524	141.763636
1192.038358	134.435664
1194.112812	144.260839
1196.190558	157.696503
1198.264033	167.502797
1200.338910	162.397203
1202.409519	163.347552
1204.481529	162.128671
1206.551163	162.229371
1208.622198	169.872727
1210.692745	170.338462
1212.759032	185.602098
1214.826719	185.514685
1216.892033	195.681119
1218.958748	209.726573
1221.021207	199.050350
1223.086952	205.106294
1225.148442	204.934965
1227.211332	199.467832
1229.271855	199.911189
1231.331895	190.848252
1233.391451	190.079021
1235.448643	190.055245
1237.505352	201.325175
1239.559699	204.764336
1241.617326	204.384615
1243.672591	205.223776
1245.723615	204.055245
1247.776040	207.867832
1249.827984	209.383916
1251.877570	207.165035
1253.926677	206.500000
1255.975305	187.460140
1258.023455	174.253846
1260.071127	176.313287
1262.114568	174.648951
1264.161285	172.339860
1266.205648	172.123077
1268.249534	181.766434
1270.291070	196.289510
1272.330256	195.941958
1274.372715	202.025874
1276.410951	191.739860
1278.450586	185.921678
1280.489745	184.661538
1282.524687	188.394406
1284.561027	188.334266
1286.595022	173.283217
1288.630416	161.389510
1290.661596	170.055944
1292.694175	178.894406
1294.726282	195.196503
1296.756048	181.988112
1298.787211	167.144056
1300.814167	153.425874
1302.842522	150.486014
1304.866671	158.493007
1306.894086	160.760839
1308.917298	147.792308
1310.941908	144.448951
1312.964183	146.566434
1314.987856	157.492308
1317.009196	168.866434
1319.030069	179.291608
1321.050474	182.229371
1323.066686	172.527972
1325.084295	185.957343
1327.099576	187.713287
1329.118116	184.039161
1331.132466	184.232867
1333.144491	184.223077
1335.159774	193.584615
1337.170871	184.137063
1339.183364	174.468531
1341.191675	169.708392
1343.203242	173.522378
1345.208770	171.991608
1347.217553	170.425175
1349.222158	193.835664
1351.230017	193.176923
1353.237414	186.083916
1355.238780	186.951748
1357.241542	190.605594
1359.243845	190.874825
1361.245688	172.989510
1363.247071	169.872028
1365.246140	162.653147
1367.244751	160.695105
1369.242904	160.433566
1371.240599	170.153846
1373.234131	168.990909
1375.229058	151.806993
1377.223529	142.579720
1379.217543	139.478322
1381.209250	140.548951
1383.200501	143.751748
1385.189447	147.403497
1387.179788	154.260839
1389.169675	155.671329
1391.157257	162.497203
1393.144386	172.974825
1395.129213	177.185315
1397.115435	174.412587
1399.099356	173.899301
1401.082825	170.733566
1403.065842	177.042657
1405.046561	175.458741
1407.028674	176.590909
1409.008490	176.673427
1410.987856	169.459441
1412.963083	166.336364
1414.941548	168.567832
1416.917720	167.620280
1418.893442	167.523077
1420.868715	163.533566
1422.841698	166.775524
1424.814232	162.783916
1426.786318	155.895105
1428.757957	150.403497
1430.725467	152.142657
1432.698051	157.028671
1434.662829	163.225175
1436.632680	169.095804
1438.598406	174.260839
1440.565526	185.602098
1442.530362	188.869930
1444.491078	188.998601
1446.456862	193.494406
1448.416691	192.516084
1450.377914	183.033566
1452.340528	190.995804
1454.299028	186.877622
1456.257086	181.345455
1458.214701	181.424476
1460.171875	175.720280
1462.126773	172.374126
1464.083064	176.202098
1466.037080	167.027972
1467.990655	163.025874
1469.941958	155.259441
1471.894653	154.412587
1473.845077	160.948951
1475.795062	166.435664
1477.744608	170.701399
1479.691885	168.880420
1481.636894	180.472727
1483.583296	189.367133
1485.529260	190.144755
1487.474787	189.813287
1489.418048	174.517483
1491.360873	164.172028
1493.301435	162.180420
1495.243389	166.704196
1497.183080	171.567133
1499.122336	175.658741
1501.061158	158.106993
1502.997720	146.962937
1504.935673	156.207692
1506.871367	158.939860
1508.806628	151.605594
1510.739632	156.952448
1512.672204	151.379021
1514.604344	161.415385
1516.536052	179.551049
1518.465507	178.713287
1520.396352	179.132168
1522.326765	185.104895
1524.253106	168.986713
1526.180837	175.737063
1528.106319	177.405594
1530.031371	172.957343
1531.955993	155.155944
1533.880187	161.934965
1535.802134	157.785315
1537.725471	168.846853
1539.646561	159.948951
1541.565407	164.471329
1543.485643	165.939860
1545.403635	173.088112
1547.321201	174.025874
1549.236526	197.790909
1551.153240	191.325175
1553.065898	199.389510
1554.981761	185.020979
1556.895385	194.068531
1558.806770	203.486713
1560.719545	203.359441
1562.628270	199.936364
1564.538384	216.735664
1566.448075	219.333566
1568.357343	228.364336
1570.264376	233.572028
1572.169177	247.433566
1574.075367	227.877622
1575.979326	220.421678
1577.882863	197.471329
1579.785980	197.668531
1581.686867	189.579021
1583.589143	161.732168
1585.489190	167.830070
1587.390626	165.157343
1589.288027	170.976923
1591.185011	167.863636
1593.081576	173.809091
1594.979528	166.535664
1596.871646	162.625874
1598.766958	159.220280
1600.661851	155.164336
1602.554524	176.770629
1604.446779	180.539161
1606.336815	191.366434
1608.226435	194.867832
1610.115640	184.623776
1612.004429	188.897902
1613.891002	195.030070
1615.778962	207.801399
1617.662905	216.238462
1619.548235	213.156643
1621.433152	218.397902
1623.315855	213.073427
1625.199945	231.522378
1627.080023	219.718182
1628.961488	218.343357
1630.840743	177.717483
1632.721385	198.206993
1634.596222	219.980420
1636.476040	221.186713
1638.351853	229.233566
1640.227257	238.102098
1642.104046	212.676224
1643.975038	194.313986
1645.849213	162.472727
1647.719388	141.137762
1649.592744	116.888811
1651.463897	121.704196
1653.332848	103.976224
1655.203185	140.436364
1657.069528	138.086713
1658.937258	128.062238
1660.802788	143.123776
1662.669704	156.912587
1664.532630	169.142657
1666.396943	172.420280
1668.259059	193.135664
1670.120770	196.609790
1671.983866	218.488811
1673.844768	229.571329
1675.703477	215.512587
1677.561782	208.252448
1679.421471	187.644755
1681.275394	167.460140
1683.132490	146.878322
1684.989182	152.105594
1686.841899	173.441958
1688.697787	179.826573
1690.549701	207.604196
1692.401214	178.434266
1694.252326	182.362937
1696.103037	193.460839
1697.953348	190.389510
1699.801475	202.062238
1701.650986	192.603497
1703.494747	187.367133
1705.343459	162.176923
1707.186424	173.892308
1709.032555	166.260839
1710.874725	146.142657
1712.720059	148.025175
1714.559653	92.739161
1716.400632	86.869231
1718.242993	90.746853
1720.081397	80.778322
1721.921185	92.614685
1723.758798	90.729371
1725.596016	104.346154
1727.431060	128.682517
1729.267487	155.820979
1731.101741	135.003497
1732.935602	150.939161
1734.769068	167.969930
1736.598588	165.469231
1738.431267	174.106294
1740.260002	172.514685
1742.091895	167.664336
1743.919845	167.605594
1745.747403	177.742657
1747.574570	203.175524
1749.401345	192.296503
1751.227728	176.632867
1753.050175	147.170629
1754.875777	144.823776
1756.697443	130.273427
1758.520492	120.586014
1760.341380	125.172028
1762.161878	139.212587
1763.983758	138.583916
1765.799938	149.668531
1767.619270	202.930769
1769.434675	206.727972
1771.253231	206.481119
1773.067861	244.550350
1774.882104	245.484615
1776.695961	255.398601
1778.509431	242.455245
1780.320747	232.139161
1782.133445	228.550350
1783.945756	226.826573
1785.754150	183.906294
1787.563925	165.578322
1789.369784	159.423776
1791.178790	139.003497
1792.983882	161.427273
1794.790355	144.899301
1796.596443	160.539860
1798.398622	165.883916
1800.203944	160.613986
1802.005358	148.105594
1803.808153	160.804895
1805.607041	184.489510
1807.407310	179.316783
1809.207197	208.815385
1811.004942	214.874126
1812.802307	221.833566
1814.599291	212.847552
1816.395895	177.069930
1818.190360	194.676923
1819.986205	174.811189
1821.776394	162.623077
1823.571480	141.207692
1825.360913	128.651049
1827.153484	107.683916
1828.943919	138.474126
1830.732219	171.304196
1832.523655	162.430769
1834.309446	178.117483
1836.096615	163.343357
1837.881654	165.102797
1839.669825	196.530070
1841.454111	217.182517
1843.236268	226.106993
1845.019804	226.802797
1846.801211	207.004196
1848.583996	209.530769
1850.362902	222.019580
1852.143186	195.339161
1853.921345	175.525874
1855.700881	171.076923
1857.478293	152.418182
1859.253582	164.630769
1861.030248	176.964336
1862.804792	200.790909
1864.580713	198.866434
1866.351015	205.925175
1868.124444	216.972727
1869.895753	213.682517
1871.666691	205.601399
1873.439007	194.200000
1875.205709	187.513287
1876.975536	195.106993
1878.741500	203.911888
1880.510588	194.648951
1882.275814	192.278322
1884.040672	199.569231
1885.806906	160.046853
1887.569282	153.914685
1889.331291	147.267133
1891.092933	147.318182
1892.854207	168.090210
1894.615115	180.704895
1896.375655	192.609091
1898.134087	215.713287
1899.892152	215.939161
1901.648110	205.358741
1903.405444	192.858042
1905.162413	196.725874
1906.917275	179.265734
1908.670032	177.906993
1910.422426	171.908392
1912.176196	181.852448
1913.927862	190.566434
1915.677425	216.442657
1917.428365	207.713287
1919.178941	189.380420
1920.925679	161.302797
1922.673792	135.447552
1924.419806	125.066434
1926.167196	148.573427
1927.912487	148.725874
1929.655681	150.809790
1931.400251	150.306993
1933.142724	157.324476
1934.884837	154.830769
1936.626591	174.051049
1938.367984	169.786713
1940.107284	182.965035
1941.846225	201.855245
1943.584807	215.017483
1945.321298	216.681818
1947.057430	236.425175
1948.794938	235.195105
1950.528623	227.017483
1952.263683	209.298601
1953.996654	188.800000
1955.729269	154.772727
1957.461527	160.446154
1959.193429	166.612587
1960.923246	164.721678
1962.650977	177.312587
1964.380083	164.441259
1966.108833	156.146853
1967.835500	161.469231
1969.561813	153.460839
1971.289500	142.851748
1973.011650	147.481119
1974.736901	144.885315
1976.458345	150.182517
1978.182889	182.114685
1979.905354	205.082517
1981.624015	211.752448
1983.345775	244.883217
1985.063733	244.083217
1986.783065	241.408392
1988.498597	235.634965
1990.218949	229.506993
1991.935503	215.309790
1993.648260	205.099301
1995.364113	205.806294
1997.077894	188.376224
1998.791325	185.604895
2000.502685	180.304196
2002.215417	158.672028
2003.924358	163.541259
2005.636393	156.468531
2007.342918	159.293706
2009.052536	165.429371
2010.760086	176.221678
2012.467289	180.595105
2014.172426	192.562937
2015.877216	210.041958
2017.583379	200.700699
2019.285758	198.630070
2020.989510	195.120979
2022.691199	194.157343
2024.392542	194.716084
2026.093541	181.997902
2027.792478	187.373427
2029.492787	182.688811
2031.189320	188.830769
2032.887225	192.759441
2034.583072	197.953147
2036.282004	206.706993
2037.975450	201.990210
2039.670267	195.727972
2041.364741	215.105594
2043.055448	224.642657
2044.749237	209.385315
2046.439261	197.994406
2048.130654	207.761538
2049.819995	197.665035
2051.510707	187.733566
2053.197655	177.706993
2054.884263	181.423077
2056.572242	182.286713
2058.256461	168.105594
2059.942050	181.221678
2061.627300	200.827273
2063.310502	195.383217
2064.995074	195.865035
2066.674182	206.504196
2068.358077	208.304196
2070.036510	202.113287
2071.718021	190.738462
2073.395780	175.732168
2075.073203	171.051748
2076.751995	159.285315
2078.428744	130.475524
2080.103452	116.154545
2081.779530	92.314685
2083.453566	68.136364
2085.127267	79.212587
2086.800634	92.876923
2088.471961	97.221678
2090.142954	124.454545
2091.813613	148.325874
2093.483938	160.421678
2095.153929	174.588811
2096.821883	189.290909
2098.489505	178.459441
2100.155093	171.223077
2101.822049	169.216783
2103.486972	156.563636
2105.151563	152.872028
2106.814122	138.561538
2108.478049	128.687413
2110.139945	143.309091
2111.801510	135.186014
2113.462745	138.630769
2115.121950	141.783916
2116.780826	143.134965
2118.439371	145.907692
2120.097587	154.900000
2121.752080	167.796503
2123.409637	169.051748
2125.066864	169.209790
2126.720371	173.096503
2128.375245	186.162238
2130.026400	200.611189
2131.680618	187.815385
2133.331118	201.317483
2134.982986	185.829371
2136.629445	181.007692
2138.280658	181.746853
2139.928159	175.028671
2141.577026	172.415385
2143.223874	180.893007
2144.870397	178.736364
2146.516594	192.265035
2148.159082	191.245455
2149.804629	196.481818
2151.446469	184.383916
2153.091366	172.407692
2154.732558	150.447552
2156.373426	146.714685
2158.013971	130.483916
2159.652503	119.492308
2161.292401	118.042657
2162.928599	131.909790
2164.566163	136.476923
2166.203405	142.276923
2167.838637	137.639161
2169.473547	151.158042
2171.108136	147.837762
2172.742404	142.339161
2174.372978	148.886713
2176.006604	154.376923
2177.636537	159.985315
2179.267837	169.290210
2180.897131	183.088112
2182.526106	183.974126
2184.154761	172.811189
2185.783097	157.172028
2187.409430	146.903497
2189.035445	143.563636
2190.659459	138.837063
2192.284838	140.381119
2193.908216	143.252448
2195.532959	156.363636
2197.154021	163.035664
2198.774766	168.709790
2200.396875	169.674126
2202.016987	164.491608
2203.635103	160.369930
2205.252903	159.668531
2206.870387	163.588811
2208.487556	162.023077
2210.104410	154.682517
2211.720949	147.111189
2213.335494	145.387413
2214.948048	163.306993
2216.561965	154.659441
2218.173891	154.962238
2219.787180	147.776923
2221.398478	152.076923
2223.007788	154.504196
2224.618460	155.862937
2226.227144	156.309790
2227.835516	154.248252
2229.441901	146.463636
2231.049648	147.541958
2232.655410	153.721678
2234.260860	170.672727
2235.864325	168.741259
2237.469153	172.362238
2239.071997	177.381818
2240.672858	180.619580
2242.275082	183.716783
2243.875324	180.293706
2245.476928	166.553846
2247.074879	179.667832
2248.674193	192.729371
2250.271527	194.506993
2251.868553	199.969231
2253.466940	208.327273
2255.061680	197.731469
2256.654442	196.893007
2258.248567	203.567133
2259.844053	191.560140
2261.435894	180.176923
2263.027429	160.304895
2264.620325	146.695804
2266.207912	156.513287
2267.800196	148.989510
2269.387172	134.610490
2270.977177	158.213287
2272.561877	164.444755
2274.151271	153.609790
2275.735362	180.653147
2277.320815	200.100000
2278.904299	199.874126
2280.490808	201.668531
2282.073684	208.148252
2283.656257	216.305594
2285.238526	211.739161
2286.817165	166.245455
2288.398829	164.607692
2289.976864	156.895804
2291.557922	145.214685
2293.135353	136.410490
2294.710821	145.171329
2296.289311	137.986014
2297.864177	126.746154
2299.438742	129.125874
2301.013006	145.981119
2302.586970	161.232867
2304.160634	163.685315
2305.733998	151.972727
2307.303742	167.646853
2308.873189	149.967133
2310.445653	171.168531
2312.012843	176.616084
2313.583050	175.427972
2315.149644	165.602797
2316.717596	165.813287
2318.283594	160.739161
2319.849294	168.839860
2321.414696	170.327972
2322.978145	173.469930
2324.542953	192.223776
2326.104152	190.356643
2327.668366	173.162238
2329.227319	169.917483
2330.789285	161.161538
2332.349301	169.833566
2333.909021	185.244056
2335.466792	199.716783
2337.024269	216.690909
2338.581451	223.616783
2340.136685	212.682517
2341.691625	221.244755
2343.246272	224.178322
2344.800625	209.258741
2346.354684	180.769231
2347.908450	167.958741
2349.460271	142.807692
2351.010149	122.790210
2352.563036	136.554545
2354.110679	142.038462
2355.661330	171.812587
2357.208391	182.702797
2358.756809	170.479021
2360.304935	195.652448
2361.849474	222.300699
2363.395370	237.346853
2364.939327	249.438462
2366.484642	228.535664
2368.026372	222.030070
2369.569460	231.573427
2371.110611	233.006993
2372.651473	206.567133
2374.192046	209.125175
2375.732330	185.777622
2377.272325	160.030070
2378.808741	167.036364
2380.348159	183.827972
2381.884000	181.997203
2383.421198	182.090210
2384.954820	168.890909
2386.491442	194.462937
2388.026134	211.732867
2389.558895	185.590210
2391.091371	185.928671
2392.621918	192.145455
2394.155463	145.842657
2395.683797	152.603497
2397.213487	157.452448
2398.742892	162.973427
2400.272012	186.586014
2401.800846	203.056643
2403.324476	240.497203
2404.852741	244.072727
2406.375803	242.353846
2407.903500	219.588112
2409.424357	232.328671
2410.949846	212.825175
2412.471776	189.811888
2413.995060	225.425175
2415.516424	211.101399
2417.035868	209.319580
2418.556667	228.234965
2420.075547	225.465734
2421.594146	253.557343
2423.110826	222.843357
2424.628862	209.373427
2426.146616	199.935664
2427.660818	177.975524
2429.174741	149.067832
2430.688383	154.045455
2432.203379	146.260839
2433.714828	119.639860
2435.227630	95.836364
2436.738520	86.554545
2438.249131	80.509091
2439.757830	127.537762
2441.269515	148.260140
2442.777657	197.233566
2444.285521	216.148252
2445.793106	200.935664
2447.297152	188.709091
2448.804182	204.939161
2450.309304	210.910490
2451.814149	225.583217
2453.317087	208.583916
2454.819748	212.665734
2456.322134	224.488112
2457.822613	224.184615
2459.324447	202.852448
2460.824375	220.427273
2462.324028	185.512587
2463.823406	147.704196
2465.320881	130.665734
2466.816454	142.675524
2468.315007	157.079021
2469.810032	160.521678
2471.306409	148.897203
2472.799260	167.962937
2474.293464	192.797902
2475.787394	172.679720
2477.277800	190.469231
2478.771184	229.987413
2480.262670	234.461538
2481.752259	257.210490
2483.241576	277.151049
2484.728997	271.475524
2486.219394	273.082517
2487.706273	250.008392
2489.194503	242.283916
2490.679216	222.686014
2492.163659	192.620280
2493.649454	150.158741
2495.133357	151.032867
2496.618610	148.834965
2498.098730	144.465035
2499.581822	138.547552
2501.063025	126.279720
2502.543958	118.920280
2504.023001	136.287413
2505.501777	135.451748
2506.980284	161.129371
2508.458522	168.217483
2509.936493	175.173427
2511.410958	183.564336
2512.888393	204.450350
2514.362323	215.158042
2515.837605	211.793007
2517.312619	199.966434
2518.784132	206.053846
2520.256996	215.925874
2521.727977	220.188811
2523.200308	240.434266
2524.667525	244.301399
2526.137709	258.576923
2527.606012	265.541259
2529.074049	266.530769
2530.541822	268.827972
2532.009330	249.406993
2533.476574	237.191608
2534.940325	210.322378
2536.405426	215.258741
2537.868650	205.346853
2539.333223	182.979720
2540.794308	178.927273
2542.256742	172.348252
2543.718913	179.251748
2545.177597	208.204895
2546.640854	201.153846
2548.099014	203.227273
2549.558523	178.724476
2551.012939	177.470629
2552.471925	161.634965
2553.929039	153.587413
2555.384281	144.299301
2556.839263	136.044056
2558.292375	135.856643
2559.746836	152.237063
2561.199428	146.247552
2562.651760	182.730769
2564.102224	200.539860
2565.555645	197.183916
2567.003983	200.329371
2568.455276	202.387413
2569.904703	201.948252
2571.350659	209.240559
2572.799569	224.079720
2574.245008	208.560839
2575.691796	187.964336
2577.136720	184.077622
2578.581387	163.622378
2580.027401	173.754545
2581.469948	171.912587
2582.913843	160.148951
2584.354273	167.627273
2585.796051	172.061538
2587.235969	176.863636
2588.677234	180.119580
2590.115037	188.634266
2591.555790	170.544755
2592.991481	154.712587
2594.430120	168.181818
2595.866903	158.251049
2597.301830	139.785315
2598.739704	132.253147
2600.172521	143.194406
2601.606685	134.760140
2603.038994	144.179720
2604.472651	138.773427
2605.904453	125.025175
2607.336003	128.221678
2608.767299	120.806294
2610.196744	121.282517
2611.625936	143.864336
2613.053277	164.633566
2614.481965	148.944755
2615.910400	176.046154
2617.335389	192.127972
2618.761723	186.493706
2620.186210	204.690909
2621.612041	196.599301
2623.034430	180.053147
2624.458163	160.022378
2625.880051	159.911189
2627.301688	162.973427
2628.721481	178.197203
2630.142619	180.434965
2631.563507	182.306993
2632.980956	199.811189
2634.401345	204.143357
2635.818297	207.483916
2637.235001	206.920979
2638.651456	191.979021
2640.067663	178.403497
2641.483622	162.486713
2642.897740	167.500000
2644.311610	165.708392
2645.723641	169.502797
2647.137017	156.152448
2648.546963	151.434266
2649.959845	151.139161
2651.369298	147.162238
2652.778505	138.787413
2654.185876	143.103497
2655.596181	144.030769
2657.004650	131.791608
2658.411284	142.569231
2659.817673	135.012587
2661.222229	122.804895
2662.628128	109.830070
2664.032193	109.223776
2665.436015	101.842657
2666.839592	114.602098
2668.241338	114.425874
2669.644427	140.481818
2671.044098	189.797902
2672.445113	205.049650
2673.842712	223.199301
2675.243240	233.034965
2676.640354	219.024476
2678.038811	196.213287
2679.435440	153.690909
2680.831828	170.939860
2682.227973	136.429371
2683.622292	112.698601
2685.017954	103.241259
2686.410207	109.723077
2687.803802	135.697902
2689.195573	130.474126
2690.588687	132.906294
2691.979976	110.900000
2693.369444	105.467832
2694.758671	102.107692
2696.147658	98.269930
2697.537988	132.172028
2698.923334	104.449650
2700.311603	124.794406
2701.698052	149.531469
2703.084262	160.899301
2704.470233	187.149650
2705.852806	183.526573
2707.236721	189.530070
2708.620397	166.598601
2710.003836	152.881119
2711.383879	161.593706
2712.765264	150.100000
2714.144833	138.883217
2715.525744	132.930769
2716.904840	142.264336
2718.282122	157.351748
2719.660745	141.493007
2721.037554	154.827972
2722.414128	161.346154
2723.790466	170.018881
2725.164992	163.497902
2726.540859	179.677622
2727.913339	184.106993
2729.288736	188.708392
2730.659172	195.897902
2732.030948	198.223776
2733.402491	193.300000
2734.772225	180.402797
2736.143299	158.898601
2737.512566	155.534266
2738.881599	165.881119
2740.248826	170.396503
2741.615819	168.659441
2742.982580	194.630070
2744.349108	189.386713
2745.713832	181.162238
2747.078323	165.698601
2748.442582	143.005594
2749.806610	147.008392
2751.170405	132.406993
2752.530828	144.439161
2753.894160	132.918881
2755.252550	167.674126
2756.613850	158.300699
2757.971780	179.861538
2759.332618	202.505594
2760.691656	185.939161
2762.047326	150.376923
2763.405905	146.107692
2764.761116	136.991608
2766.116098	142.400699
2767.469283	142.589510
2768.825375	136.500699
2770.178103	120.752448
2771.530602	141.674825
2772.882874	135.146154
2774.236483	152.892308
2775.586731	148.792308
2776.935186	131.993007
2778.286545	137.645455
2779.634545	150.200000
2780.983884	154.533566
2782.331430	160.016783
2783.678750	187.096503
2785.025842	177.878322
2786.371144	192.405594
2787.716220	189.124476
2789.061070	194.646853
2790.405694	158.249650
2791.746965	141.290210
2793.089575	126.734965
2794.431960	130.881818
2795.774119	139.709091
2797.112929	151.610490
2798.454639	153.286713
2799.793000	171.217483
2801.132699	167.969231
2802.470612	166.234266
2803.806741	168.009790
2805.142647	178.942657
2806.479889	155.066434
2807.815348	164.551748
2809.150584	182.511189
2810.484038	206.067832
2811.818828	221.837063
2813.150277	221.860140
2814.484622	221.512587
2815.814069	192.352448
2817.144853	160.075524
2818.475415	122.115385
2819.804198	136.922378
2821.134318	132.449650
2822.462659	133.867133
2823.790778	135.489510
2825.117121	158.726573
2826.444799	172.980420
2827.769145	160.583916
2829.094827	169.967133
2830.418733	163.828671
2831.742419	121.283217
2833.067441	101.960140
2834.389134	88.879720
2835.710608	117.629371
2837.031862	119.288811
2838.352898	130.340559
2839.672162	144.928671
2840.992761	159.800000
2842.311588	146.158741
2843.630197	150.369231
2844.947036	165.069231
2846.263657	160.151049
2847.580061	144.275524
2848.894695	155.141958
2850.210664	165.056643
2851.523314	177.347552
2852.837298	185.144755
2854.151066	187.574825
2855.464617	182.953846
2856.776402	170.432867
2858.086420	134.137063
2859.397773	141.021678
2860.705811	115.893706
2862.015183	97.069930
2863.324340	101.452448
2864.633282	103.806294
2865.940461	116.700699
2867.245876	111.625874
2868.552626	147.732867
2869.857614	156.357343
2871.162387	199.455944
2872.465400	218.172028
2873.771293	218.592308
2875.072332	223.821678
2876.374704	191.083916
2877.675318	169.946853
2878.977264	138.060839
2880.278998	78.390909
2881.577428	83.047552
2882.877191	55.920979
2884.175197	73.031469
2885.472991	72.951049
2886.769028	114.097902
2888.066399	106.700000
2889.362015	139.284615
2890.657419	147.538462
2891.952612	139.255944
2893.244508	139.252448
2894.539279	128.180420
2895.830755	123.946853
2897.123563	157.546154
2898.416161	167.793706
2899.705464	171.604895
2900.996101	170.145455
2902.284986	168.138462
2903.575203	135.410490
2904.862129	136.514685
2906.150387	131.779720
2907.436896	149.439161
2908.723196	158.120979
2910.009288	161.163636
2911.293632	170.997203
2912.580848	196.142657
2913.863237	197.475524
2915.146958	189.049650
2916.428932	191.142657
2917.710700	172.757343
2918.990722	151.404196
2920.273614	146.534965
2921.554761	154.998601
2922.832626	177.762238
2924.113360	175.243357
2925.390813	178.746853
2926.668061	202.011888
2927.943566	207.989510
2929.221939	197.712587
2930.495498	194.877622
2931.771924	201.613986
2933.046608	211.970629
2934.319553	202.795105
2935.593829	189.740559
2936.866364	192.400699
2938.138696	188.455245
2939.407755	190.798601
2940.679679	181.333566
2941.949865	162.423776
2943.219847	141.039860
2944.489626	111.282517
2945.757668	92.246853
2947.023975	95.242657
2948.290079	92.076224
2949.557514	87.465035
2950.823213	75.359441
2952.088710	92.476224
2953.354006	122.872727
2954.616036	139.898601
2955.879396	140.245455
2957.142555	130.865035
2958.403981	151.412587
2959.666738	140.407692
2960.927762	153.782517
2962.187056	161.925874
2963.446149	166.873427
2964.705042	157.336364
2965.963735	140.946853
2967.222228	164.295804
2968.478992	190.335664
2969.735557	159.476224
2970.990393	138.295804
2972.246559	126.753147
2973.499470	116.737762
2974.753709	122.188811
2976.007750	127.249650
2977.260065	137.685315
2978.512182	146.711189
2979.762574	132.244755
2981.015821	117.960140
2982.264291	124.898601
2983.515616	124.692308
2984.763691	112.162937
2986.011569	117.734965
2987.259251	122.272727
2988.506735	103.497902
2989.752498	122.285315
2990.998064	128.672727
2992.244959	131.984615
2993.488609	143.895105
2994.733586	133.980420
2995.975321	121.453846
2997.219907	133.727972
2998.462774	144.538462
2999.702400	152.143357
3000.944876	152.549650
3002.184112	130.954545
3003.424676	111.976224
3004.663523	105.701399
3005.902176	111.804895
3007.139113	114.067832
3008.377378	121.897203
3009.613927	125.744056
3010.850283	137.441958
3012.086445	124.152448
3013.320893	116.088112
3014.555148	106.840559
3015.789210	99.445455
3017.021560	87.009091
3018.252198	70.195804
3019.485682	61.683916
3020.717455	89.005594
3021.947516	95.285315
3023.177386	112.708392
3024.405546	121.253846
3025.635033	121.321678
3026.862810	124.986014
3028.090396	142.754545
3029.319308	134.835664
3030.543478	124.887413
3031.770491	106.160140
3032.994281	88.405594
3034.219396	94.681818
3035.442806	110.230769
3036.666025	103.234266
3037.887539	139.645455
3039.111894	134.607692
3040.331514	155.341259
3041.552460	169.191608
3042.773216	198.865035
3043.992270	178.981119
3045.212648	167.591608
3046.429810	145.339161
3047.648297	140.790909
3048.865083	121.752448
3050.081680	105.839860
3051.298090	88.853846
3052.511286	77.549650
3053.727320	53.578322
3054.940142	57.804196
3056.155801	60.206294
3057.366737	81.810490
3058.578999	86.216783
3059.791073	89.274825
3061.002961	91.137063
3062.213152	114.767133
3063.423156	116.280769
3064.632974	118.777622
3065.841096	105.514336
3067.049033	86.964336
3068.255274	94.910140
3069.462840	99.893706
3070.668711	93.659790
3071.874397	93.972028
3073.079899	89.675874
3074.283707	82.462937
3075.488839	82.287063
3076.692278	97.027972
3077.894025	93.777972
3079.095589	102.924476
3080.296969	99.815385
3081.498165	113.821678
3082.697671	131.045455
3083.896994	123.173427
3085.097640	112.218182
3086.296596	110.980420
3087.492357	75.813287
3088.690948	52.695804
3089.886345	33.265734
3091.083066	36.806993
3092.276594	29.945455
3093.472950	51.137063
3094.667619	56.062238
3095.859098	72.962937
3097.054908	91.818182
3098.246025	106.330769
3099.438465	113.006993
3100.627716	114.224476
3101.819794	96.212587
3103.010188	65.923077
3104.197396	68.478322
3105.385926	78.732867
3106.575779	67.025175
3107.762447	62.982517
3108.948936	82.848252
3110.135246	84.448951
3111.322877	111.171329
3112.507326	125.027273
3113.690096	117.536364
3114.875688	129.680420
3116.059601	122.862937
3117.241834	101.725175
3118.423890	95.157343
3119.605767	92.352448
3120.787466	87.141958
3121.967488	87.053846
3123.145833	111.123077
3124.326998	106.418182
3125.504988	130.625874
3126.682801	121.929371
3127.860437	113.672028
3129.036398	133.193007
3130.212183	117.281818
3131.389288	94.893706
3132.564720	87.896503
3133.738478	91.999301
3134.910563	97.044056
3136.083969	89.860140
3137.257200	82.795804
3138.428759	79.738462
3139.601638	75.469231
3140.771350	57.226573
3141.942383	90.336364
3143.111745	93.647552
3144.279438	109.465734
3145.449946	106.537063
3146.615795	120.809790
3147.785954	122.255944
3148.951455	122.311888
3150.116783	115.157343
3151.281937	127.318881
3152.446918	125.578322
3153.613218	119.607692
3154.774865	114.781119
3155.937833	142.594406
3157.100628	107.698601
3158.263249	106.345455
3159.424206	96.183217
3160.584991	103.620280
3161.745603	89.590210
3162.904551	103.199301
3164.063327	121.586713
3165.221932	134.719580
3166.380365	128.623776
3167.538626	124.024476
3168.695226	121.719580
3169.850164	123.928671
3171.006421	89.669231
3172.161017	78.490909
3173.315443	90.548252
3174.468208	94.444755
3175.620804	91.589510
3176.773230	118.545455
3177.925485	113.488811
3179.077571	101.613986
3180.226510	103.333566
3181.378256	106.490210
3182.528345	111.714685
3183.676776	116.284615
3184.825039	116.341259
3185.973133	121.878322
3187.121058	121.318881
3188.267327	126.354545
3189.413428	128.184615
3190.557875	135.063636
3191.702153	128.624476
3192.846264	98.197203
3193.991693	89.825175
3195.133983	64.696503
3196.276105	53.855944
3197.418061	66.437063
3198.559849	64.241958
3199.701470	59.611888
3200.839956	53.620280
3201.979759	73.616783
3203.120879	70.736364
3204.258866	83.530769
3205.395202	84.827273
3206.531374	78.648951
3207.668862	85.579021
3208.804702	60.297902
3209.941859	79.260839
3211.074403	92.083916
3212.211228	86.357343
3213.343443	105.576923
3214.476974	96.723077
3215.610340	99.006294
3216.740580	81.885315
3217.873617	89.265734
3219.003527	93.625874
3220.134755	104.962937
3221.262857	98.725874
3222.393757	99.217483
3223.523012	106.215385
3224.650624	99.320979
3225.775113	107.581818
3226.903878	109.288112
3228.029521	86.921678
3229.155001	93.986014
3230.278840	109.157343
3231.405474	128.776923
3232.527510	135.025874
3233.650862	140.544755
3234.774051	135.009091
3235.897079	136.793007
3237.018467	129.720979
3238.139694	125.682517
3239.259282	129.426573
3240.378709	108.833566
3241.496499	90.267832
3242.617080	86.264336
3243.734548	80.990210
3244.851855	75.035664
3245.969002	63.770629
3247.084512	65.654545
3248.201338	76.487413
3249.315053	90.272028
3250.431559	112.830070
3251.546429	117.611189
3252.658191	135.754545
3253.769794	136.735664
3254.882712	122.562937
3255.995470	107.333566
3257.105122	105.188112
3258.216089	111.991608
3259.326897	108.609790
3260.436073	118.642657
3261.543618	117.037762
3262.652478	106.922378
3263.761179	101.205594
3264.866778	97.423077
3265.973692	95.009091
3267.078976	79.991608
3268.185574	63.925874
3269.289072	79.804196
3270.393884	94.060140
3271.498539	97.608392
3272.600096	77.967832
3273.701496	80.383916
3274.804210	79.501399
3275.906768	95.720979
3277.006229	99.521678
3278.108474	105.543357
3279.207623	101.634266
3280.305147	106.372028
3281.402517	114.627273
3282.502668	117.758741
3283.599727	100.574126
3284.696630	87.509091
3285.793378	83.899301
3286.885567	91.867832
3287.982006	96.434266
3289.076822	93.774126
3290.171483	89.520280
3291.264523	106.832168
3292.357409	103.944755
3293.448674	114.641259
3294.541252	111.244755
3295.632210	79.461538
3296.721548	72.462937
3297.810733	74.101399
3298.901230	93.974126
3299.988643	81.681818
3301.075904	77.500000
3302.164477	69.613986
3303.252897	84.574825
3304.336771	92.895105
3305.424885	65.972028
3306.509919	63.496503
3307.593337	58.698601
3308.678067	39.334965
3309.761181	55.154545
3310.845607	48.267133
3311.926956	52.906993
3313.009616	31.858042
3314.090661	40.562937
3315.171556	51.575524
3316.250838	65.067133
3317.329969	67.662238
3318.410412	75.558042
3319.487780	79.758741
3320.566460	105.961538
3321.643528	119.014685
3322.720446	147.993706
3323.795754	131.719580
3324.870912	130.015385
3325.947381	102.595105
3327.020780	99.567133
3328.094029	111.290210
3329.168590	91.272727
3330.241542	93.499301
3331.312885	113.016084
3332.385539	111.893007
3333.455126	115.390909
3334.526024	125.286014
3335.595316	130.377622
3336.665917	131.423776
3337.734912	123.718182
3338.802302	96.023776
3339.868086	93.723776
3340.938096	97.545455
3342.005042	77.520979
3343.068928	85.505594
3344.135580	98.181818
3345.200629	84.862238
3346.264074	73.965035
3347.327373	66.448951
3348.390525	57.024476
3349.453531	66.725874
3350.516391	68.772028
3351.577648	66.195105
3352.635849	78.364336
3353.698271	84.368531
3354.757637	78.600000
3355.816857	88.309790
3356.877386	86.785315
3357.933407	70.029371
3358.992191	75.316783
3360.046468	59.603497
3361.103509	63.373427
3362.158951	84.067133
3363.215702	98.560140
3364.270856	102.999301
3365.324412	117.104196
3366.376371	93.948252
3367.431093	94.703497
3368.482765	97.517483
3369.534293	89.990909
3370.587131	81.995804
3371.636921	89.179021
3372.688020	89.453147
3373.736072	85.609790
3374.786885	98.191608
3375.834652	92.513986
3376.882277	102.860839
3377.929760	112.458042
3378.975650	84.986014
3380.022848	92.349650
3381.067003	94.337063
3382.113917	103.415385
3383.159240	105.959441
3384.201521	125.888112
3385.243661	133.986713
3386.287110	121.755245
3387.330417	131.760140
3388.372134	128.077622
3389.413711	128.074825
3390.455146	132.616084
3391.494993	113.799301
3392.533251	108.091608
3393.572817	113.900699
3394.612243	114.285315
3395.650081	120.992308
3396.686332	134.766434
3397.722443	128.318881
3398.759862	119.225874
3399.794248	112.432867
3400.829942	86.126573
3401.865496	77.100000
3402.898018	65.884615
3403.933294	47.000699
3404.965540	49.980420
3405.997646	52.195804
3407.028170	54.688112
3408.060000	67.100000
3409.091692	70.815385
3410.120356	77.706993
3411.148883	81.655944
3412.178716	68.796503
3413.208412	71.190210
3414.235082	74.829371
3415.263058	62.965035
3416.288010	63.659441
3417.315713	85.132168
3418.340391	79.869930
3419.366376	80.155245
3420.390782	84.675524
3421.415051	81.478322
3422.437741	98.241259
3423.460295	98.372727
3424.484155	91.724476
3425.504995	106.047552
3426.525699	101.151249
3427.547709	94.286214
3428.566701	86.583916
3429.585558	79.175824
3430.605721	73.193407
3431.622867	69.768132
