-117.633747	20.789011
-114.964146	12.671429
-112.297481	7.450749
-109.631568	4.660539
-106.968588	3.834366
-104.304177	4.505794
-101.642697	6.208392
-98.979788	6.360839
-96.321985	8.678322
-93.662753	13.956643
-91.004269	13.313986
-88.348710	17.717483
-85.691721	16.953147
-83.039831	16.065734
-80.386511	15.185315
-77.736110	10.810490
-75.084281	7.530070
-72.437542	7.147552
-69.789373	6.432867
-67.141947	3.518881
-64.497436	4.240559
-61.851495	6.748252
-59.210636	6.793007
-56.568348	9.901399
-53.928969	11.240559
-51.288161	13.884615
-48.648092	15.433566
-46.013097	13.864336
-43.376672	17.576923
-40.743150	21.576923
-38.108200	24.337063
-35.478316	26.281119
-32.844838	28.540559
-30.216423	33.693706
-27.588742	35.100000
-24.959632	26.216084
-22.335580	-30.845455
-19.707937	-232.492308
-17.085349	-858.006993
-14.463491	-1794.412587
-11.842364	719.253147
-9.221968	4568.110490
-6.604459	7689.232867
-3.985522	9881.874825
-1.369471	11127.549650
1.245853	11429.965734
3.860448	10784.811189
6.472162	9207.999301
9.085303	6738.452448
11.693412	3533.170629
14.305101	59.906294
16.911760	-2228.269231
19.519848	-1007.753846
22.127210	-47.239860
24.729548	34.955245
27.335464	33.057343
29.936359	28.143357
32.538681	24.756643
35.135985	22.611888
37.736866	23.698601
40.332731	22.520979
42.930024	26.093007
45.526598	22.246154
48.118163	22.226573
50.711157	20.341958
53.301289	18.259441
55.892848	15.921678
58.481549	15.500699
61.071676	14.860839
63.656804	15.109790
66.243360	19.843357
68.829201	22.723077
71.412189	22.697203
73.996604	24.130070
76.573889	20.348252
79.154741	19.434266
81.732744	16.056643
84.310037	14.991608
86.888757	15.104895
89.462494	12.699301
92.037658	9.835664
94.609979	10.555245
97.181593	13.943357
99.750366	13.606993
102.320566	15.902797
104.887927	18.525175
107.456715	16.222378
110.022666	18.392308
112.585782	18.537063
115.152454	18.985315
117.709904	20.183217
120.273040	21.125175
122.831217	25.450350
125.392948	38.623077
127.949722	59.200000
130.507922	91.229371
133.061170	132.504895
135.613720	181.951049
138.169820	233.534965
140.720972	291.847552
143.271427	345.684615
145.821184	395.383916
148.368122	438.241259
150.914365	474.404196
153.462033	497.007692
156.009005	509.466434
158.551041	514.606294
161.092385	516.618182
163.633035	509.155245
166.175110	501.633566
168.714375	492.053846
171.250830	482.458042
173.786595	474.883217
176.323785	470.362937
178.860284	468.702797
181.393977	471.841259
183.924866	473.906993
186.455067	475.843357
188.986694	478.995105
191.515519	486.530070
194.041545	490.656643
196.566885	494.794406
199.093650	496.810490
201.617619	497.855944
204.140902	501.354545
206.663501	504.830070
209.183307	506.868531
211.702430	509.604196
214.220870	513.695804
216.740735	515.835664
219.253597	513.849650
221.769991	509.190909
224.285704	498.846853
226.796526	489.430070
229.308773	480.676224
231.818237	473.573427
234.327023	471.027972
236.835131	472.735664
239.344663	472.296503
241.849314	476.070629
244.353289	485.188811
246.858688	492.941958
249.359212	506.778322
251.863259	562.223077
254.360336	692.967133
256.860935	874.686014
259.358763	1053.452448
261.855918	1196.103497
264.352401	1281.693706
266.844020	1307.265035
269.339159	1267.779021
271.831531	1174.978322
274.323233	1035.129371
276.812172	867.532867
279.302534	716.548252
281.790135	619.321678
284.274976	587.025175
286.763332	583.291608
289.244748	573.455245
291.729678	557.498601
294.209762	528.372028
296.693359	502.781119
299.172114	477.265734
301.652291	456.446853
304.129717	441.795804
306.606479	440.947552
309.082577	454.145455
311.555927	470.455944
314.028616	488.469930
316.500643	509.597902
318.972008	524.090210
321.440630	539.839161
323.908592	542.132867
326.377977	540.104196
328.842539	527.481119
331.310605	514.453147
333.773850	497.400699
336.236439	485.086014
338.698371	475.804196
341.159646	470.620280
343.618186	463.961538
346.078149	462.709790
348.535380	456.996503
350.991956	457.163636
353.447878	456.253846
355.901070	452.614685
358.355685	447.894406
360.805498	451.452448
363.258807	447.862238
365.707317	444.325874
368.155177	441.536364
370.604459	440.284615
373.048946	434.420280
375.494856	429.953846
377.940117	423.821678
380.382659	419.222378
382.824553	417.948252
385.265799	413.760839
387.704331	412.643357
390.144283	411.837063
392.581522	407.408392
395.016049	407.191608
397.454064	409.521678
399.887303	413.058042
402.321962	412.615385
404.751849	414.592308
407.185221	419.867133
409.613823	422.731469
412.041783	423.726573
414.471164	424.534266
416.895781	427.773427
419.321818	428.718182
421.747216	428.956643
424.171973	431.573427
426.591971	435.498601
429.013391	438.858042
431.432114	439.805594
433.852258	441.006294
436.269707	441.669930
438.688577	438.386713
441.104752	431.430769
443.516181	434.288811
445.931086	431.668531
448.343301	428.107692
450.754882	420.116783
453.165830	421.327972
455.574090	423.166434
457.981719	423.583916
460.388715	421.325175
462.795080	416.482517
465.198762	415.213986
467.601814	414.215385
470.004236	409.739860
472.406028	411.721678
474.805142	408.455944
477.205676	411.611189
479.605581	411.890909
482.000764	415.886014
484.399412	417.524476
486.793341	421.802797
489.186644	420.508392
491.579322	417.438462
493.971373	416.273427
496.364844	409.279021
498.753602	394.458042
501.139694	385.539860
503.527206	375.723077
505.914095	365.741958
508.298319	352.535664
510.683963	340.314685
513.066945	332.827972
515.447265	328.099301
517.829006	321.767133
520.208087	320.880420
522.588586	319.604196
524.966429	318.265734
527.341615	312.383217
529.716184	310.676923
532.092172	306.892308
534.465507	304.081818
536.840259	295.416783
539.210325	287.586014
541.579777	280.051748
543.950646	273.207692
546.316834	265.487413
548.684441	262.827972
551.049402	257.226573
553.413751	254.681818
555.777486	252.055245
558.142639	254.248951
560.503120	254.053147
562.865018	255.223776
565.224277	253.737762
567.580897	252.767832
569.940963	250.211888
572.294337	248.919580
574.651156	245.980420
577.005340	247.926573
579.358915	244.644056
581.711883	243.325874
584.062218	240.339860
586.413971	240.458042
588.759047	238.713287
591.109586	238.223776
593.453453	237.494406
595.802781	237.748951
598.147460	237.820280
600.489515	237.549650
602.832987	238.374126
605.173836	241.247552
607.514082	238.020280
609.851708	234.422378
612.192769	230.930769
614.529193	232.704196
616.867033	232.011888
619.202256	230.720280
621.534862	227.876224
623.868886	228.034965
626.200295	227.394406
628.531106	223.260140
630.861319	224.128671
633.190935	223.741259
635.515927	221.449650
637.846361	220.600000
640.172174	220.907692
642.495379	223.026573
644.820001	221.353846
647.142017	220.273427
649.463439	217.003497
651.782258	215.260839
654.102494	212.718881
656.422135	211.660839
658.739177	210.906993
661.055626	209.817483
663.369477	209.508392
665.684744	208.762238
667.997414	207.086014
670.311499	207.898601
672.620984	207.928671
674.931885	208.939161
677.240192	207.944056
679.547912	204.940559
681.857047	204.702098
684.161589	205.025175
686.465545	199.606294
688.768914	198.776224
691.073699	197.146853
693.373896	194.362937
695.675509	196.177622
697.976536	196.223077
700.272982	199.558741
702.570843	196.627273
704.868120	193.063636
707.164814	191.386014
709.456932	189.358042
711.752460	188.523776
714.043416	187.641958
716.335786	190.653846
718.625580	193.377622
720.914795	198.128671
723.203430	202.765035
725.489492	200.759441
727.776968	200.056643
730.061874	193.080420
732.346202	186.288811
734.627961	180.605594
736.911134	179.555245
739.193730	177.537063
741.471770	172.040559
743.751224	171.864336
746.030103	173.078322
748.308407	175.969930
750.582160	175.539860
752.857328	176.144755
755.131922	175.211189
757.403957	178.290210
759.677405	178.197902
761.948295	183.832168
764.216629	189.773427
766.486376	188.913986
768.753568	188.452448
771.020191	192.716084
773.286243	193.479021
775.549744	194.356643
777.814657	191.883217
780.079002	191.119580
782.338816	193.530769
784.600044	194.834266
786.860704	197.705594
789.118818	200.364336
791.374387	196.331469
793.633346	193.481119
795.885807	185.188811
798.143635	184.006294
800.396944	180.041958
802.647712	179.262238
804.899894	182.146154
807.149536	184.870629
809.400590	190.911888
811.647133	194.885315
813.895089	200.448252
816.140509	196.565035
818.387342	191.217483
820.633612	189.654545
822.875379	181.865734
825.120528	180.821678
827.359206	174.290210
829.601265	176.250350
831.838826	179.030070
834.077799	171.890909
836.314245	169.718881
838.552102	168.325874
840.787434	159.736364
843.020242	160.618881
845.254462	164.541958
847.486160	170.540559
849.717303	167.930070
851.947891	168.011888
854.177925	165.264336
856.407404	176.298601
858.632403	180.143357
860.860775	181.534965
863.084669	188.941259
865.309974	193.370629
867.530803	205.469231
869.755004	211.030070
871.974732	211.609790
874.195870	205.977622
876.416458	199.916783
878.634537	194.756643
880.854025	176.313287
883.069047	173.376923
885.283521	170.486713
887.497448	167.183916
889.710827	167.221678
891.923660	164.923776
894.135945	165.030070
896.345729	153.955245
898.554967	164.087413
900.763660	172.106294
902.969853	182.046853
905.177456	187.919580
907.382562	174.085315
909.587124	175.982517
911.789191	178.319580
913.992667	164.807692
916.193649	170.542657
918.394089	174.126573
920.595938	185.289510
922.791396	197.697203
924.990212	219.889510
927.184591	234.341259
929.382327	245.358042
931.575627	237.432168
933.770336	227.643357
935.962558	224.964336
938.154243	221.432168
940.345390	214.733566
942.534054	228.134266
944.722181	227.856643
946.907828	241.427972
949.096828	241.625874
951.281403	234.430070
953.465444	239.703497
955.652836	237.367832
957.831923	234.762238
960.014361	241.776224
962.196264	254.523776
964.375694	269.968531
966.552651	253.460140
968.731016	258.880420
970.910788	264.775524
973.084210	261.059441
975.260980	255.334266
977.433342	247.262238
979.607112	244.065734
981.776478	243.448951
983.949188	277.094406
986.119433	296.948252
988.289148	332.218881
990.458335	349.697203
992.623125	337.007692
994.791257	385.322378
996.954993	406.834266
999.120137	389.899301
1001.282821	415.853147
1003.444980	405.009091
1005.604682	404.104196
1007.763859	399.897902
1009.924443	417.592308
1012.082572	430.764336
1014.240178	443.970629
1016.397259	433.131469
1018.553818	417.643357
1020.705997	420.895804
1022.859583	390.916783
1025.012647	381.290909
1027.163262	370.018881
1029.315283	343.531469
1031.462932	348.037762
1033.613912	307.979021
1035.760521	310.845455
1037.906611	319.419580
1040.052183	317.512587
1042.199160	311.461538
1044.339848	296.963636
1046.483865	298.684615
1048.625443	288.301399
1050.766503	299.251748
1052.908969	272.797902
1055.045154	263.181818
1057.184666	271.718881
1059.319822	254.227972
1061.458303	268.058741
1063.592431	289.144755
1065.726045	287.358741
1067.861063	332.610490
1069.991732	352.863636
1072.123807	389.801399
1074.253451	408.988811
1076.382584	437.487413
1078.511206	440.170629
1080.639316	470.014685
1082.765000	489.683217
1084.890174	501.061538
1087.016752	490.174126
1089.138992	477.039860
1091.262637	449.033566
1093.381947	449.537063
1095.506486	434.722378
1097.624781	411.752448
1099.744479	410.528671
1101.861760	420.508392
1103.978533	410.669930
1106.094800	432.365734
1108.208652	412.411189
1110.323907	402.210490
1112.434840	379.981119
1114.549085	347.695804
1116.659009	329.427972
1118.770336	296.669231
1120.881160	282.318182
1122.987667	265.573427
1125.097483	303.851748
1127.202985	323.246853
1129.309891	331.222378
1131.410581	344.875524
1133.516483	339.377622
1135.618076	328.128671
1137.721071	318.709091
1139.823567	289.593706
1141.919855	269.359441
1144.021350	262.847552
1146.118543	244.783217
1148.215237	249.433566
1150.311434	273.401399
1152.407132	262.684615
1154.502333	275.602098
1156.595137	284.888811
1158.689343	272.362238
1160.777358	256.786713
1162.870571	247.025874
1164.957596	235.018182
1167.047921	239.170629
1169.133957	244.899301
1171.223291	228.091608
1173.306444	245.777622
1175.391000	256.581818
1177.476957	244.942657
1179.558632	259.518182
1181.641708	261.931469
1183.722399	246.882517
1185.802599	235.411888
1187.882307	224.730070
1189.961524	215.958042
1192.038358	215.160140
1194.112812	193.967832
1196.190558	189.141259
1198.264033	193.434266
1200.338910	188.522378
1202.409519	180.176923
1204.481529	187.729371
1206.551163	205.924476
1208.622198	206.464336
1210.692745	212.994406
1212.759032	223.825874
1214.826719	228.876224
1216.892033	234.845455
1218.958748	227.005594
1221.021207	223.327273
1223.086952	198.498601
1225.148442	191.210490
1227.211332	179.525874
1229.271855	167.948252
1231.331895	163.206993
1233.391451	152.836364
1235.448643	151.658741
1237.505352	153.555245
1239.559699	159.840559
1241.617326	174.720280
1243.672591	182.237762
1245.723615	198.572727
1247.776040	196.210490
1249.827984	215.398601
1251.877570	234.239860
1253.926677	233.712587
1255.975305	226.962937
1258.023455	229.748951
1260.071127	215.701399
1262.114568	209.509790
1264.161285	195.747552
1266.205648	179.129371
1268.249534	175.166434
1270.291070	170.255245
1272.330256	176.668531
1274.372715	195.589510
1276.410951	210.981119
1278.450586	203.097902
1280.489745	212.601399
1282.524687	207.864336
1284.561027	218.781818
1286.595022	218.181818
1288.630416	208.046154
1290.661596	219.365734
1292.694175	222.044056
1294.726282	224.379021
1296.756048	218.247552
1298.787211	211.739860
1300.814167	201.400699
1302.842522	181.514685
1304.866671	188.004196
1306.894086	173.097902
1308.917298	186.288112
1310.941908	187.725874
1312.964183	198.767133
1314.987856	215.882517
1317.009196	229.757343
1319.030069	236.087413
1321.050474	223.580420
1323.066686	225.005594
1325.084295	217.918182
1327.099576	202.981119
1329.118116	197.455944
1331.132466	176.030769
1333.144491	156.118881
1335.159774	153.017483
1337.170871	151.095804
1339.183364	147.966434
1341.191675	144.066434
1343.203242	133.519580
1345.208770	135.585315
1347.217553	138.118881
1349.222158	151.159441
1351.230017	164.072028
1353.237414	167.794406
1355.238780	167.517483
1357.241542	168.460839
1359.243845	171.325874
1361.245688	181.147552
1363.247071	182.647552
1365.246140	168.840559
1367.244751	171.211888
1369.242904	172.717483
1371.240599	171.224476
1373.234131	177.153846
1375.229058	181.452448
1377.223529	186.287413
1379.217543	184.158741
1381.209250	190.353147
1383.200501	172.102098
1385.189447	171.827972
1387.179788	171.356643
1389.169675	167.965734
1391.157257	156.428671
1393.144386	151.263636
1395.129213	147.924476
1397.115435	151.994406
1399.099356	171.920280
1401.082825	194.254545
1403.065842	193.934266
1405.046561	213.676224
1407.028674	199.498601
1409.008490	210.083916
1410.987856	208.283916
1412.963083	202.721678
1414.941548	191.859441
1416.917720	185.820280
1418.893442	181.059441
1420.868715	183.149650
1422.841698	189.960140
1424.814232	192.813986
1426.786318	186.469231
1428.757957	198.639860
1430.725467	189.439860
1432.698051	192.322378
1434.662829	191.175524
1436.632680	190.884615
1438.598406	183.021678
1440.565526	160.560140
1442.530362	160.560140
1444.491078	165.330070
1446.456862	168.169231
1448.416691	175.178322
1450.377914	178.446853
1452.340528	173.429371
1454.299028	175.631469
1456.257086	188.755944
1458.214701	199.642657
1460.171875	190.432867
1462.126773	178.961538
1464.083064	164.500000
1466.037080	177.945455
1467.990655	187.965734
1469.941958	195.227273
1471.894653	202.188811
1473.845077	198.602098
1475.795062	201.068531
1477.744608	212.465734
1479.691885	213.797203
1481.636894	203.899301
1483.583296	192.323077
1485.529260	178.661538
1487.474787	176.578322
1489.418048	186.129371
1491.360873	196.921678
1493.301435	202.557343
1495.243389	199.334266
1497.183080	204.062937
1499.122336	206.332867
1501.061158	207.155944
1502.997720	204.166434
1504.935673	201.744056
1506.871367	201.861538
1508.806628	205.700000
1510.739632	208.798601
1512.672204	207.404196
1514.604344	215.980420
1516.536052	225.130070
1518.465507	215.360140
1520.396352	227.612587
1522.326765	224.515385
1524.253106	229.454545
1526.180837	219.976224
1528.106319	225.317483
1530.031371	219.672028
1531.955993	220.739161
1533.880187	207.427972
1535.802134	203.903497
1537.725471	194.866434
1539.646561	182.738462
1541.565407	176.318182
1543.485643	194.308392
1545.403635	176.475524
1547.321201	188.212587
1549.236526	186.571329
1551.153240	219.002098
1553.065898	221.826573
1554.981761	222.172028
1556.895385	234.561538
1558.806770	241.110490
1560.719545	236.217483
1562.628270	234.848951
1564.538384	251.960140
1566.448075	260.116783
1568.357343	251.667133
1570.264376	269.052448
1572.169177	272.265035
1574.075367	257.522378
1575.979326	224.092308
1577.882863	207.013287
1579.785980	223.243357
1581.686867	226.478322
1583.589143	236.623077
1585.489190	253.973427
1587.390626	249.657343
1589.288027	248.526573
1591.185011	269.223776
1593.081576	265.512587
1594.979528	269.867133
1596.871646	231.653846
1598.766958	230.779021
1600.661851	242.590210
1602.554524	248.432867
1604.446779	248.597902
1606.336815	262.407692
1608.226435	287.226573
1610.115640	277.781818
1612.004429	284.860140
1613.891002	299.353846
1615.778962	298.695804
1617.662905	296.620280
1619.548235	268.283916
1621.433152	267.841259
1623.315855	261.516084
1625.199945	254.679720
1627.080023	245.455944
1628.961488	270.966434
1630.840743	290.264336
1632.721385	301.558042
1634.596222	321.337762
1636.476040	335.369930
1638.351853	349.919580
1640.227257	337.969930
1642.104046	332.162238
1643.975038	341.570629
1645.849213	334.929371
1647.719388	331.893007
1649.592744	314.567133
1651.463897	301.060839
1653.332848	295.141958
1655.203185	304.218182
1657.069528	306.719580
1658.937258	297.062238
1660.802788	296.871329
1662.669704	300.539860
1664.532630	315.806294
1666.396943	308.551049
1668.259059	308.179720
1670.120770	299.240559
1671.983866	287.784615
1673.844768	292.099301
1675.703477	328.637063
1677.561782	335.148951
1679.421471	338.112587
1681.275394	352.573427
1683.132490	371.807692
1684.989182	383.982517
1686.841899	382.215385
1688.697787	365.413287
1690.549701	358.548951
1692.401214	328.555245
1694.252326	348.240559
1696.103037	358.316783
1697.953348	347.110490
1699.801475	320.447552
1701.650986	341.307692
1703.494747	349.430070
1705.343459	353.195804
1707.186424	370.309091
1709.032555	363.186713
1710.874725	348.315385
1712.720059	336.390210
1714.559653	355.974126
1716.400632	374.418881
1718.242993	380.146154
1720.081397	360.673427
1721.921185	350.151748
1723.758798	352.365035
1725.596016	331.530070
1727.431060	323.609790
1729.267487	330.001399
1731.101741	292.882517
1732.935602	274.780420
1734.769068	277.417483
1736.598588	295.351049
1738.431267	307.381818
1740.260002	339.200000
1742.091895	332.432867
1743.919845	322.358741
1745.747403	319.988811
1747.574570	305.051748
1749.401345	318.085315
1751.227728	325.764336
1753.050175	326.335664
1754.875777	364.420979
1756.697443	365.015385
1758.520492	382.111189
1760.341380	398.497902
1762.161878	386.551049
1763.983758	370.532168
1765.799938	354.231469
1767.619270	306.841259
1769.434675	273.131469
1771.253231	273.977622
1773.067861	282.236364
1774.882104	313.176923
1776.695961	323.055944
1778.509431	304.753846
1780.320747	316.013287
1782.133445	345.277622
1783.945756	346.992308
1785.754150	383.089510
1787.563925	388.354545
1789.369784	390.616084
1791.178790	419.003497
1792.983882	437.523077
1794.790355	464.165035
1796.596443	435.708392
1798.398622	413.983916
1800.203944	396.553846
1802.005358	394.023776
1803.808153	390.932867
1805.607041	358.979720
1807.407310	371.470629
1809.207197	356.541958
1811.004942	361.687413
1812.802307	358.098601
1814.599291	349.624476
1816.395895	335.251748
1818.190360	306.173427
1819.986205	313.092308
1821.776394	292.221678
1823.571480	270.311189
1825.360913	257.702797
1827.153484	245.420979
1828.943919	266.625175
1830.732219	283.039860
1832.523655	294.244056
1834.309446	319.441259
1836.096615	316.363636
1837.881654	307.016084
1839.669825	312.620979
1841.454111	286.785315
1843.236268	243.044056
1845.019804	222.041259
1846.801211	234.623077
1848.583996	234.782517
1850.362902	251.405594
1852.143186	269.935664
1853.921345	264.774825
1855.700881	250.456643
1857.478293	223.793706
1859.253582	213.848252
1861.030248	239.869231
1862.804792	226.111189
1864.580713	233.048252
1866.351015	258.511189
1868.124444	305.610490
1869.895753	327.297902
1871.666691	327.232867
1873.439007	322.181119
1875.205709	293.995105
1876.975536	265.509091
1878.741500	253.941958
1880.510588	250.144755
1882.275814	261.931469
1884.040672	258.067832
1885.806906	281.068531
1887.569282	306.230769
1889.331291	320.186713
1891.092933	300.569930
1892.854207	276.772727
1894.615115	279.825874
1896.375655	272.867832
1898.134087	283.308392
1899.892152	285.774825
1901.648110	285.366434
1903.405444	270.728671
1905.162413	255.813986
1906.917275	249.116084
1908.670032	230.593706
1910.422426	196.462937
1912.176196	160.632168
1913.927862	154.297203
1915.677425	164.951748
1917.428365	175.576224
1919.178941	200.292308
1920.925679	224.629371
1922.673792	245.949650
1924.419806	246.639860
1926.167196	254.917483
1927.912487	261.660140
1929.655681	247.852448
1931.400251	241.764336
1933.142724	222.162238
1934.884837	220.141259
1936.626591	208.672727
1938.367984	205.891608
1940.107284	194.776923
1941.846225	201.011888
1943.584807	206.289510
1945.321298	211.823776
1947.057430	228.276224
1948.794938	229.018182
1950.528623	223.418182
1952.263683	240.902098
1953.996654	244.616084
1955.729269	250.406993
1957.461527	258.990909
1959.193429	252.235664
1960.923246	236.116084
1962.650977	232.533566
1964.380083	238.672727
1966.108833	237.787413
1967.835500	253.881119
1969.561813	242.859441
1971.289500	242.809790
1973.011650	252.553147
1974.736901	247.283217
1976.458345	254.390909
1978.182889	261.066434
1979.905354	258.950350
1981.624015	268.667832
1983.345775	275.288811
1985.063733	280.745455
1986.783065	274.130070
1988.498597	267.752448
1990.218949	235.343357
1991.935503	221.978322
1993.648260	219.706294
1995.364113	221.214685
1997.077894	218.867133
1998.791325	228.005594
2000.502685	232.742657
2002.215417	244.175524
2003.924358	241.367832
2005.636393	250.073427
2007.342918	242.567133
2009.052536	244.854545
2010.760086	254.603497
2012.467289	271.739860
2014.172426	286.870629
2015.877216	295.043357
2017.583379	279.920280
2019.285758	274.606993
2020.989510	265.106294
2022.691199	244.737762
2024.392542	247.341958
2026.093541	238.188112
2027.792478	231.392308
2029.492787	249.530769
2031.189320	253.907692
2032.887225	249.107692
2034.583072	251.853846
2036.282004	247.938462
2037.975450	230.442657
2039.670267	229.700000
2041.364741	230.448951
2043.055448	234.267832
2044.749237	235.683916
2046.439261	214.633566
2048.130654	209.965035
2049.819995	212.304196
2051.510707	192.803497
2053.197655	191.926573
2054.884263	208.369231
2056.572242	207.500000
2058.256461	205.395804
2059.942050	215.713986
2061.627300	228.641259
2063.310502	227.802098
2064.995074	218.920280
2066.674182	213.418182
2068.358077	212.407692
2070.036510	214.916783
2071.718021	208.444755
2073.395780	215.082517
2075.073203	235.981119
2076.751995	247.488112
2078.428744	251.490909
2080.103452	269.545455
2081.779530	275.946154
2083.453566	268.138462
2085.127267	275.313986
2086.800634	253.263636
2088.471961	239.455245
2090.142954	238.411888
2091.813613	231.758741
2093.483938	222.918881
2095.153929	239.427273
2096.821883	245.123776
2098.489505	230.521678
2100.155093	243.143357
2101.822049	239.389510
2103.486972	240.393706
2105.151563	247.917483
2106.814122	231.020280
2108.478049	237.783217
2110.139945	250.242657
2111.801510	258.006993
2113.462745	264.934266
2115.121950	258.008392
2116.780826	258.806294
2118.439371	249.606294
2120.097587	252.553846
2121.752080	247.940559
2123.409637	254.208392
2125.066864	248.736364
2126.720371	235.191608
2128.375245	247.530070
2130.026400	254.458042
2131.680618	273.450350
2133.331118	274.104895
2134.982986	280.286713
2136.629445	292.965035
2138.280658	276.165035
2139.928159	262.883217
2141.577026	256.929371
2143.223874	245.374825
2144.870397	214.249650
2146.516594	209.358741
2148.159082	210.990909
2149.804629	218.490909
2151.446469	223.785315
2153.091366	241.322378
2154.732558	259.880420
2156.373426	251.559441
2158.013971	243.595804
2159.652503	241.313986
2161.292401	238.060839
2162.928599	235.312587
2164.566163	236.390210
2166.203405	249.531469
2167.838637	256.321678
2169.473547	260.432168
2171.108136	269.621678
2172.742404	297.054545
2174.372978	300.332867
2176.006604	282.932168
2177.636537	286.369930
2179.267837	267.527273
2180.897131	256.917483
2182.526106	248.993007
2184.154761	258.392308
2185.783097	271.023077
2187.409430	266.819580
2189.035445	268.089510
2190.659459	296.838462
2192.284838	316.160140
2193.908216	315.382517
2195.532959	311.226573
2197.154021	313.066434
2198.774766	291.932168
2200.396875	277.181119
2202.016987	259.287413
2203.635103	258.059441
2205.252903	262.858741
2206.870387	257.446853
2208.487556	271.521678
2210.104410	289.011189
2211.720949	291.615385
2213.335494	289.610490
2214.948048	275.061538
2216.561965	256.046853
2218.173891	247.109790
2219.787180	243.722378
2221.398478	235.884615
2223.007788	230.830769
2224.618460	243.781119
2226.227144	260.797203
2227.835516	275.013287
2229.441901	283.895804
2231.049648	275.480420
2232.655410	280.165035
2234.260860	279.082517
2235.864325	292.169930
2237.469153	294.139860
2239.071997	306.111888
2240.672858	286.143357
2242.275082	278.590210
2243.875324	295.473427
2245.476928	297.871329
2247.074879	287.557343
2248.674193	280.165734
2250.271527	260.539860
2251.868553	279.039860
2253.466940	282.888112
2255.061680	284.341958
2256.654442	288.479720
2258.248567	289.488811
2259.844053	272.509091
2261.435894	287.776923
2263.027429	293.767133
2264.620325	281.415385
2266.207912	285.322378
2267.800196	285.764336
2269.387172	290.620280
2270.977177	318.149650
2272.561877	332.822378
2274.151271	343.416783
2275.735362	352.220979
2277.320815	369.506294
2278.904299	383.630070
2280.490808	378.555944
2282.073684	364.417483
2283.656257	356.225175
2285.238526	353.188811
2286.817165	338.324476
2288.398829	330.895804
2289.976864	335.505594
2291.557922	315.519580
2293.135353	315.357343
2294.710821	302.472028
2296.289311	328.336364
2297.864177	313.388811
2299.438742	319.227972
2301.013006	311.370629
2302.586970	305.362238
2304.160634	320.774126
2305.733998	332.067832
2307.303742	335.769930
2308.873189	331.831469
2310.445653	337.570629
2312.012843	348.374825
2313.583050	365.698601
2315.149644	384.616084
2316.717596	406.604895
2318.283594	440.427273
2319.849294	431.253846
2321.414696	433.028671
2322.978145	455.272028
2324.542953	446.719580
2326.104152	407.148951
2327.668366	363.271329
2329.227319	330.299301
2330.789285	290.994406
2332.349301	288.295804
2333.909021	256.024476
2335.466792	255.527972
2337.024269	255.786014
2338.581451	267.811888
2340.136685	292.276224
2341.691625	325.411888
2343.246272	334.681119
2344.800625	326.676224
2346.354684	326.400699
2347.908450	310.669930
2349.460271	319.669231
2351.010149	345.753147
2352.563036	336.489510
2354.110679	322.783217
2355.661330	337.072727
2357.208391	341.193007
2358.756809	360.461538
2360.304935	353.541259
2361.849474	362.936364
2363.395370	361.919580
2364.939327	346.957343
2366.484642	356.795105
2368.026372	369.290210
2369.569460	377.376923
2371.110611	378.936364
2372.651473	370.593007
2374.192046	376.770629
2375.732330	369.803497
2377.272325	379.052448
2378.808741	366.027972
2380.348159	361.078322
2381.884000	368.258741
2383.421198	354.709091
2384.954820	370.341259
2386.491442	356.787413
2388.026134	361.834266
2389.558895	392.365734
2391.091371	385.149650
2392.621918	379.027972
2394.155463	400.601399
2395.683797	415.157343
2397.213487	424.870629
2398.742892	419.727972
2400.272012	442.949650
2401.800846	408.337063
2403.324476	416.288112
2404.852741	422.879720
2406.375803	435.674825
2407.903500	428.877622
2409.424357	402.847552
2410.949846	409.890210
2412.471776	431.405594
2413.995060	437.642657
2415.516424	460.183916
2417.035868	445.234965
2418.556667	433.251748
2420.075547	429.338462
2421.594146	463.246853
2423.110826	475.003497
2424.628862	478.423776
2426.146616	452.922378
2427.660818	454.498601
2429.174741	457.623077
2430.688383	443.210490
2432.203379	436.393706
2433.714828	431.120979
2435.227630	401.572727
2436.738520	373.188112
2438.249131	389.229371
2439.757830	391.045455
2441.269515	406.501399
2442.777657	427.299301
2444.285521	441.911888
2445.793106	470.846853
2447.297152	465.018881
2448.804182	463.679720
2450.309304	469.047552
2451.814149	457.620280
2453.317087	439.153147
2454.819748	403.139161
2456.322134	389.856643
2457.822613	372.281119
2459.324447	368.027972
2460.824375	388.230769
2462.324028	384.446853
2463.823406	393.662937
2465.320881	377.667133
2466.816454	377.590210
2468.315007	392.232168
2469.810032	385.427972
2471.306409	412.228671
2472.799260	392.636364
2474.293464	383.890909
2475.787394	362.306294
2477.277800	392.804895
2478.771184	405.751049
2480.262670	411.011888
2481.752259	435.938462
2483.241576	427.042657
2484.728997	445.183217
2486.219394	470.895804
2487.706273	444.066434
2489.194503	440.145455
2490.679216	394.143357
2492.163659	372.796503
2493.649454	355.968531
2495.133357	363.228671
2496.618610	335.113287
2498.098730	333.780420
2499.581822	343.596503
2501.063025	329.011189
2502.543958	368.244755
2504.023001	377.582517
2505.501777	353.356643
2506.980284	358.412587
2508.458522	351.604895
2509.936493	363.193706
2511.410958	380.703497
2512.888393	373.922378
2514.362323	379.520979
2515.837605	381.344755
2517.312619	400.750350
2518.784132	380.353147
2520.256996	413.441958
2521.727977	403.860140
2523.200308	405.907692
2524.667525	381.781818
2526.137709	365.073427
2527.606012	355.751049
2529.074049	357.817483
2530.541822	354.722378
2532.009330	329.363636
2533.476574	321.160839
2534.940325	320.885315
2536.405426	305.619580
2537.868650	321.240559
2539.333223	327.781818
2540.794308	337.675524
2542.256742	322.088811
2543.718913	333.618182
2545.177597	328.474126
2546.640854	326.390210
2548.099014	357.346154
2549.558523	356.060140
2551.012939	399.264336
2552.471925	406.775524
2553.929039	425.463636
2555.384281	474.628671
2556.839263	490.959441
2558.292375	471.017483
2559.746836	451.857343
2561.199428	440.393706
2562.651760	406.082517
2564.102224	405.619580
2565.555645	430.824476
2567.003983	417.140559
2568.455276	427.871329
2569.904703	426.413986
2571.350659	452.283916
2572.799569	473.170629
2574.245008	454.379720
2575.691796	433.018182
2577.136720	425.994406
2578.581387	423.439860
2580.027401	433.013287
2581.469948	444.825175
2582.913843	446.783217
2584.354273	434.476923
2585.796051	444.884615
2587.235969	456.431469
2588.677234	453.933566
2590.115037	436.549650
2591.555790	429.755944
2592.991481	422.750350
2594.430120	401.404895
2595.866903	399.332867
2597.301830	396.425175
2598.739704	384.259441
2600.172521	383.314685
2601.606685	350.846853
2603.038994	343.778322
2604.472651	344.513287
2605.904453	357.235664
2607.336003	342.700699
2608.767299	346.587413
2610.196744	364.660140
2611.625936	375.611888
2613.053277	412.917483
2614.481965	425.736364
2615.910400	443.186713
2617.335389	441.909790
2618.761723	423.716783
2620.186210	428.571329
2621.612041	414.848252
2623.034430	394.074126
2624.458163	379.759441
2625.880051	362.067832
2627.301688	369.449650
2628.721481	367.175524
2630.142619	385.044755
2631.563507	404.548252
2632.980956	437.550350
2634.401345	443.376224
2635.818297	441.043357
2637.235001	444.148252
2638.651456	419.042657
2640.067663	430.832168
2641.483622	439.670629
2642.897740	396.460839
2644.311610	378.805594
2645.723641	347.536364
2647.137017	355.471329
2648.546963	360.919580
2649.959845	372.948252
2651.369298	373.095105
2652.778505	381.398601
2654.185876	395.467832
2655.596181	390.134965
2657.004650	414.801399
2658.411284	419.544755
2659.817673	406.567133
2661.222229	395.073427
2662.628128	365.438462
2664.032193	367.451748
2665.436015	362.504895
2666.839592	374.039161
2668.241338	389.248252
2669.644427	390.964336
2671.044098	379.232168
2672.445113	371.872028
2673.842712	384.893706
2675.243240	405.903497
2676.640354	388.379021
2678.038811	391.477622
2679.435440	396.483217
2680.831828	435.288811
2682.227973	436.013986
2683.622292	452.572727
2685.017954	467.886014
2686.410207	449.506993
2687.803802	437.085315
2689.195573	422.248951
2690.588687	387.121678
2691.979976	365.642657
2693.369444	331.920280
2694.758671	365.529371
2696.147658	369.737762
2697.537988	369.286014
2698.923334	346.969930
2700.311603	371.382517
2701.698052	394.516084
2703.084262	391.446154
2704.470233	399.277622
2705.852806	397.016783
2707.236721	379.286014
2708.620397	396.964336
2710.003836	402.691608
2711.383879	421.518182
2712.765264	399.420280
2714.144833	399.041958
2715.525744	387.774825
2716.904840	395.995105
2718.282122	396.687413
2719.660745	391.733566
2721.037554	387.925175
2722.414128	402.185315
2723.790466	398.488112
2725.164992	416.844056
2726.540859	402.553846
2727.913339	396.101399
2729.288736	400.921678
2730.659172	405.867133
2732.030948	378.486014
2733.402491	374.825874
2734.772225	367.097902
2736.143299	350.618182
2737.512566	352.750350
2738.881599	352.036364
2740.248826	358.431469
2741.615819	363.448951
2742.982580	384.685315
2744.349108	404.526573
2745.713832	422.334965
2747.078323	436.440559
2748.442582	441.793706
2749.806610	457.739161
2751.170405	450.976224
2752.530828	419.402797
2753.894160	412.870629
2755.252550	381.099301
2756.613850	379.905594
2757.971780	377.016084
2759.332618	400.809091
2760.691656	394.721678
2762.047326	409.648951
2763.405905	425.133566
2764.761116	449.605594
2766.116098	430.781119
2767.469283	418.681119
2768.825375	397.251748
2770.178103	389.111189
2771.530602	379.674825
2772.882874	380.896503
2774.236483	382.600000
2775.586731	391.722378
2776.935186	389.577622
2778.286545	407.611189
2779.634545	415.394406
2780.983884	434.180420
2782.331430	429.923776
2783.678750	455.974825
2785.025842	456.946853
2786.371144	459.578322
2787.716220	455.576224
2789.061070	449.203497
2790.405694	444.372727
2791.746965	431.525175
2793.089575	425.850350
2794.431960	414.758042
2795.774119	408.569930
2797.112929	413.388112
2798.454639	446.261538
2799.793000	460.360839
2801.132699	450.079021
2802.470612	437.288112
2803.806741	453.790909
2805.142647	457.606993
2806.479889	475.749650
2807.815348	460.232168
2809.150584	451.967133
2810.484038	446.639161
2811.818828	416.372727
2813.150277	389.528671
2814.484622	371.469930
2815.814069	363.994406
2817.144853	343.351049
2818.475415	345.596503
2819.804198	377.988811
2821.134318	412.186713
2822.462659	454.655245
2823.790778	474.515385
2825.117121	519.523077
2826.444799	519.642657
2827.769145	508.527273
2829.094827	493.951748
2830.418733	470.198601
2831.742419	449.472727
2833.067441	418.579720
2834.389134	420.574126
2835.710608	421.562238
2837.031862	442.072028
2838.352898	447.544755
2839.672162	464.770629
2840.992761	473.016084
2842.311588	447.030070
2843.630197	462.262937
2844.947036	458.757343
2846.263657	447.605594
2847.580061	401.053846
2848.894695	390.584615
2850.210664	400.564336
2851.523314	395.731469
2852.837298	405.997902
2854.151066	394.104196
2855.464617	395.075524
2856.776402	380.701399
2858.086420	382.782517
2859.397773	398.364336
2860.705811	399.783217
2862.015183	389.646154
2863.324340	381.062238
2864.633282	412.987413
2865.940461	442.883916
2867.245876	440.260140
2868.552626	461.201399
2869.857614	459.352448
2871.162387	466.972028
2872.465400	483.090909
2873.771293	470.802797
2875.072332	467.974126
2876.374704	454.031469
2877.675318	465.604895
2878.977264	468.487413
2880.278998	478.513986
2881.577428	456.051049
2882.877191	422.749650
2884.175197	426.318881
2885.472991	432.076923
2886.769028	455.236364
2888.066399	459.083217
2889.362015	438.698601
2890.657419	450.270629
2891.952612	453.927273
2893.244508	465.665734
2894.539279	445.114685
2895.830755	443.778322
2897.123563	428.647552
2898.416161	418.566434
2899.705464	426.574825
2900.996101	439.724476
2902.284986	469.088112
2903.575203	464.046853
2904.862129	484.681818
2906.150387	465.312587
2907.436896	452.716084
2908.723196	458.099301
2910.009288	443.749650
2911.293632	461.079021
2912.580848	454.737762
2913.863237	435.753147
2915.146958	424.123077
2916.428932	421.041259
2917.710700	412.638462
2918.990722	408.178322
2920.273614	411.014685
2921.554761	397.207692
2922.832626	414.506993
2924.113360	440.406294
2925.390813	451.239161
2926.668061	463.307692
2927.943566	454.150350
2929.221939	445.984615
2930.495498	438.693706
2931.771924	441.079021
2933.046608	416.511189
2934.319553	431.611888
2935.593829	444.491608
2936.866364	468.726573
2938.138696	493.599301
2939.407755	497.190909
2940.679679	494.293007
2941.949865	483.279021
2943.219847	481.027273
2944.489626	466.306294
2945.757668	450.786014
2947.023975	450.430070
2948.290079	433.773427
2949.557514	440.422378
2950.823213	446.001399
2952.088710	458.204196
2953.354006	455.176923
2954.616036	432.392308
2955.879396	442.009790
2957.142555	427.833566
2958.403981	409.489510
2959.666738	386.258741
2960.927762	371.962937
2962.187056	382.032867
2963.446149	396.095105
2964.705042	398.872727
2965.963735	414.034965
2967.222228	434.079720
2968.478992	452.995804
2969.735557	468.380420
2970.990393	471.613986
2972.246559	453.932168
2973.499470	454.890210
2974.753709	450.337063
2976.007750	449.647552
2977.260065	458.825175
2978.512182	457.644056
2979.762574	433.495105
2981.015821	424.803497
2982.264291	434.816084
2983.515616	443.706294
2984.763691	449.216084
2986.011569	447.209091
2987.259251	442.731469
2988.506735	469.046853
2989.752498	483.175524
2990.998064	496.225175
2992.244959	491.144755
2993.488609	492.125175
2994.733586	490.367832
2995.975321	484.181818
2997.219907	499.365035
2998.462774	487.518881
2999.702400	490.884615
3000.944876	503.511189
3002.184112	489.868531
3003.424676	499.002098
3004.663523	485.023077
3005.902176	480.781119
3007.139113	482.402797
3008.377378	492.385315
3009.613927	505.265734
3010.850283	499.058741
3012.086445	519.355245
3013.320893	518.878322
3014.555148	512.895105
3015.789210	523.454545
3017.021560	517.076923
3018.252198	499.387413
3019.485682	482.148252
3020.717455	488.451748
3021.947516	493.213986
3023.177386	496.856643
3024.405546	503.741958
3025.635033	499.166434
3026.862810	511.548951
3028.090396	501.302797
3029.319308	475.018182
3030.543478	484.001399
3031.770491	487.987413
3032.994281	463.670629
3034.219396	446.967133
3035.442806	444.717483
3036.666025	445.660839
3037.887539	453.551049
3039.111894	446.544755
3040.331514	454.390210
3041.552460	456.577622
3042.773216	460.099301
3043.992270	455.351049
3045.212648	486.416783
3046.429810	497.972028
3047.648297	499.513287
3048.865083	484.183217
3050.081680	464.576923
3051.298090	463.232867
3052.511286	447.156643
3053.727320	425.749650
3054.940142	415.205594
3056.155801	404.330070
3057.366737	418.593706
3058.578999	427.530769
3059.791073	443.502797
3061.002961	464.479021
3062.213152	482.857343
3063.423156	482.372727
3064.632974	492.132168
3065.841096	504.942657
3067.049033	498.312587
3068.255274	482.927972
3069.462840	478.715385
3070.668711	492.702797
3071.874397	511.051748
3073.079899	503.238462
3074.283707	502.802797
3075.488839	496.586713
3076.692278	480.435664
3077.894025	491.709091
3079.095589	502.060140
3080.296969	483.276224
3081.498165	478.253846
3082.697671	478.107692
3083.896994	481.106993
3085.097640	491.523776
3086.296596	490.883217
3087.492357	488.793007
3088.690948	480.158741
3089.886345	453.739161
3091.083066	446.341259
3092.276594	449.890210
3093.472950	442.997902
3094.667619	437.720979
3095.859098	452.009790
3097.054908	452.304196
3098.246025	459.293706
3099.438465	479.490210
3100.627716	477.404196
3101.819794	460.593007
3103.010188	446.221678
3104.197396	444.929371
3105.385926	452.959441
3106.575779	447.700699
3107.762447	438.850350
3108.948936	455.521678
3110.135246	457.406993
3111.322877	449.813986
3112.507326	465.130769
3113.690096	474.922378
3114.875688	462.279720
3116.059601	460.618182
3117.241834	460.707692
3118.423890	461.366434
3119.605767	477.481119
3120.787466	472.369930
3121.967488	469.182517
3123.145833	476.183217
3124.326998	467.543357
3125.504988	465.597902
3126.682801	459.031469
3127.860437	460.622378
3129.036398	463.537063
3130.212183	466.695804
3131.389288	458.727273
3132.564720	462.486014
3133.738478	469.519580
3134.910563	474.567832
3136.083969	471.991608
3137.257200	472.899301
3138.428759	477.662238
3139.601638	482.339161
3140.771350	482.510490
3141.942383	491.560140
3143.111745	485.995105
3144.279438	484.416783
3145.449946	485.820979
3146.615795	505.655245
3147.785954	515.943357
3148.951455	515.861538
3150.116783	512.065734
3151.281937	514.099301
3152.446918	514.946154
3153.613218	504.726573
3154.774865	498.513986
3155.937833	521.302098
3157.100628	521.483916
3158.263249	525.548951
3159.424206	548.408392
3160.584991	568.148252
3161.745603	573.400699
3162.904551	558.519580
3164.063327	559.101399
3165.221932	556.483217
3166.380365	523.640559
3167.538626	495.742657
3168.695226	498.650350
3169.850164	511.015385
3171.006421	485.623077
3172.161017	479.469930
3173.315443	481.844056
3174.468208	476.432168
3175.620804	489.150350
3176.773230	477.100000
3177.925485	482.637063
3179.077571	478.044056
3180.226510	478.329371
3181.378256	468.674825
3182.528345	482.651049
3183.676776	479.072727
3184.825039	489.160839
3185.973133	505.109091
3187.121058	524.945455
3188.267327	542.765734
3189.413428	560.953147
3190.557875	537.657343
3191.702153	538.665035
3192.846264	522.119580
3193.991693	527.270629
3195.133983	494.400000
3196.276105	471.052448
3197.418061	477.128671
3198.559849	493.333566
3199.701470	506.603497
3200.839956	511.077622
3201.979759	521.573427
3203.120879	540.817483
3204.258866	533.233566
3205.395202	531.956643
3206.531374	527.411189
3207.668862	524.132867
3208.804702	509.497203
3209.941859	485.017483
3211.074403	495.831469
3212.211228	484.506294
3213.343443	482.181119
3214.476974	473.529371
3215.610340	469.579021
3216.740580	482.738462
3217.873617	470.802797
3219.003527	474.084615
3220.134755	491.423077
3221.262857	494.502098
3222.393757	510.270629
3223.523012	524.301399
3224.650624	531.551049
3225.775113	521.828671
3226.903878	526.407692
3228.029521	517.328671
3229.155001	507.175524
3230.278840	534.854545
3231.405474	544.532168
3232.527510	538.958042
3233.650862	555.669231
3234.774051	566.072028
3235.897079	585.428671
3237.018467	589.041259
3238.139694	593.206993
3239.259282	572.615385
3240.378709	555.668531
3241.496499	529.181119
3242.617080	520.992308
3243.734548	525.997902
3244.851855	508.123776
3245.969002	490.387413
3247.084512	520.156643
3248.201338	526.651748
3249.315053	526.453147
3250.431559	550.804196
3251.546429	575.015385
3252.658191	570.400000
3253.769794	561.083916
3254.882712	564.013287
3255.995470	563.178322
3257.105122	559.862238
3258.216089	555.986713
3259.326897	566.439161
3260.436073	583.740559
3261.543618	572.096503
3262.652478	578.101399
3263.761179	603.228671
3264.866778	615.143357
3265.973692	618.086014
3267.078976	633.214685
3268.185574	633.165734
3269.289072	605.436364
3270.393884	587.059441
3271.498539	574.060839
3272.600096	573.420280
3273.701496	574.429371
3274.804210	572.753846
3275.906768	587.952448
3277.006229	598.462937
3278.108474	599.660140
3279.207623	604.420280
3280.305147	599.161538
3281.402517	570.051049
3282.502668	550.774825
3283.599727	548.459441
3284.696630	547.083916
3285.793378	556.600699
3286.885567	574.679021
3287.982006	587.149650
3289.076822	589.059441
3290.171483	597.995804
3291.264523	594.562238
3292.357409	592.889510
3293.448674	574.687413
3294.541252	579.047552
3295.632210	568.387413
3296.721548	562.318182
3297.810733	557.781119
3298.901230	571.118182
3299.988643	577.792308
3301.075904	571.194406
3302.164477	572.341259
3303.252897	576.649650
3304.336771	564.277622
3305.424885	547.353147
3306.509919	539.059441
3307.593337	541.647552
3308.678067	529.080420
3309.761181	548.986713
3310.845607	556.148252
3311.926956	573.458741
3313.009616	572.120280
3314.090661	580.788112
3315.171556	590.223776
3316.250838	568.136364
3317.329969	538.069231
3318.410412	523.893706
3319.487780	527.997203
3320.566460	540.819580
3321.643528	563.441259
3322.720446	581.979720
3323.795754	574.313287
3324.870912	593.867832
3325.947381	613.032867
3327.020780	627.563636
3328.094029	627.876224
3329.168590	606.673427
3330.241542	588.211189
3331.312885	589.051049
3332.385539	590.946853
3333.455126	591.868531
3334.526024	601.183217
3335.595316	601.172727
3336.665917	608.858042
3337.734912	623.588112
3338.802302	629.644755
3339.868086	648.511189
3340.938096	654.299301
3342.005042	662.770629
3343.068928	667.690210
3344.135580	674.589510
3345.200629	664.327972
3346.264074	653.936364
3347.327373	647.069930
3348.390525	640.269930
3349.453531	629.766434
3350.516391	604.058741
3351.577648	596.413986
3352.635849	598.952448
3353.698271	594.697902
3354.757637	612.608392
3355.816857	623.140559
3356.877386	623.144056
3357.933407	628.562937
3358.992191	610.702797
3360.046468	610.797902
3361.103509	627.713986
3362.158951	622.590909
3363.215702	617.395804
3364.270856	612.846853
3365.324412	607.600000
3366.376371	603.669930
3367.431093	606.290210
3368.482765	618.320979
3369.534293	613.858741
3370.587131	605.986713
3371.636921	597.298601
3372.688020	602.866434
3373.736072	612.158042
3374.786885	593.050350
3375.834652	577.769231
3376.882277	569.941259
3377.929760	568.310490
3378.975650	573.329371
3380.022848	576.709091
3381.067003	606.673427
3382.113917	606.482517
3383.159240	615.908392
3384.201521	631.141259
3385.243661	633.125874
3386.287110	625.067832
3387.330417	610.261538
3388.372134	591.309790
3389.413711	592.181818
3390.455146	588.202797
3391.494993	592.736364
3392.533251	590.530070
3393.572817	595.173427
3394.612243	587.773427
3395.650081	598.695804
3396.686332	597.618881
3397.722443	613.611888
3398.759862	609.825874
3399.794248	608.096503
3400.829942	599.872727
3401.865496	592.797902
3402.898018	594.569231
3403.933294	584.014685
3404.965540	595.600699
3405.997646	584.602098
3407.028170	581.950350
3408.060000	583.790210
3409.091692	590.681119
3410.120356	614.453147
3411.148883	615.488811
3412.178716	605.853846
3413.208412	607.706294
3414.235082	601.619580
3415.263058	605.511888
3416.288010	590.334266
3417.315713	604.751748
3418.340391	601.216084
3419.366376	607.628671
3420.390782	598.660839
3421.415051	609.460140
3422.437741	616.143357
3423.460295	628.783916
3424.484155	635.678322
3425.504995	652.131469
3426.525699	660.644156
3427.547709	669.427597
3428.566701	679.097702
3429.585558	690.270380
3430.605721	703.561538
3431.622867	719.587088
