-117.633747	-4.679396
-114.964146	4.298901
-112.297481	9.920729
-109.631568	12.775425
-106.968588	13.452323
-104.304177	12.540759
-101.642697	10.630070
-98.979788	10.404895
-96.321985	6.452448
-93.662753	6.326573
-91.004269	6.269930
-88.348710	7.400699
-85.691721	7.408392
-83.039831	10.365035
-80.386511	10.312587
-77.736110	13.216783
-75.084281	11.723776
-72.437542	11.697203
-69.789373	9.683916
-67.141947	9.342657
-64.497436	8.339161
-61.851495	8.476923
-59.210636	7.777622
-56.568348	9.862238
-53.928969	10.591608
-51.288161	12.786713
-48.648092	13.146853
-46.013097	12.423077
-43.376672	10.080420
-40.743150	10.447552
-38.108200	8.701399
-35.478316	9.237063
-32.844838	6.981818
-30.216423	5.830070
-27.588742	4.794406
-24.959632	3.547552
-22.335580	-17.555944
-19.707937	-89.548951
-17.085349	-225.358042
-14.463491	-99.098601
-11.842364	392.688811
-9.221968	1077.250350
-6.604459	1616.067832
-3.985522	1976.513986
-1.369471	2150.484615
1.245853	2144.807692
3.860448	1957.279021
6.472162	1599.103497
9.085303	1077.377622
11.693412	449.875524
14.305101	-113.280420
16.911760	-280.021678
19.519848	-159.797902
22.127210	-0.900000
24.729548	14.204895
27.335464	16.704196
29.936359	13.311888
32.538681	12.493706
35.135985	10.706993
37.736866	11.945455
40.332731	9.107692
42.930024	11.941958
45.526598	11.700000
48.118163	13.621678
50.711157	11.894406
53.301289	13.104196
55.892848	9.342657
58.481549	9.034266
61.071676	8.641259
63.656804	9.984615
66.243360	7.460140
68.829201	7.358042
71.412189	7.995804
73.996604	13.441958
76.573889	14.139860
79.154741	16.898601
81.732744	18.395105
84.310037	19.522378
86.888757	16.535664
89.462494	17.902098
92.037658	16.783916
94.609979	16.458042
97.181593	12.493007
99.750366	15.167133
102.320566	16.450350
104.887927	19.004196
107.456715	20.743357
110.022666	23.832867
112.585782	25.746853
115.152454	29.434266
117.709904	30.837063
120.273040	39.301399
122.831217	52.583217
125.392948	86.885315
127.949722	137.309790
130.507922	223.838462
133.061170	338.038462
135.613720	486.692308
138.169820	657.875524
140.720972	844.990210
143.271427	1033.292308
145.821184	1205.788811
148.368122	1346.101399
150.914365	1455.991608
153.462033	1524.478322
156.009005	1563.032867
158.551041	1576.558042
161.092385	1577.248951
163.633035	1568.789510
166.175110	1558.514685
168.714375	1550.048252
171.250830	1552.736364
173.786595	1551.709790
176.323785	1545.004196
178.860284	1539.360839
181.393977	1530.500699
183.924866	1519.162937
186.455067	1510.177622
188.986694	1508.549650
191.515519	1503.871329
194.041545	1501.135664
196.566885	1500.036364
199.093650	1502.144755
201.617619	1507.593706
204.140902	1509.836364
206.663501	1511.803497
209.183307	1511.242657
211.702430	1510.529371
214.220870	1511.831469
216.740735	1516.154545
219.253597	1520.726573
221.769991	1522.007692
224.285704	1519.918881
226.796526	1521.414685
229.308773	1523.302098
231.818237	1533.054545
234.327023	1545.348252
236.835131	1559.888112
239.344663	1569.889510
241.849314	1587.762937
244.353289	1606.427273
246.858688	1630.134266
249.359212	1643.851049
251.863259	1661.486014
254.360336	1673.902098
256.860935	1692.970629
259.358763	1714.266434
261.855918	1740.754545
264.352401	1771.972727
266.844020	1815.865734
269.339159	1858.134965
271.831531	1922.695804
274.323233	2008.023077
276.812172	2154.681818
279.302534	2409.183217
281.790135	2832.283217
284.274976	3392.372028
286.763332	4041.388112
289.244748	4662.201399
291.729678	5138.627273
294.209762	5371.283217
296.693359	5327.636364
299.172114	5006.805594
301.652291	4465.018881
304.129717	3767.227273
306.606479	3044.112587
309.082577	2413.874825
311.555927	1973.541259
314.028616	1713.690210
316.500643	1613.889510
318.972008	1600.000000
321.440630	1610.299301
323.908592	1602.453846
326.377977	1590.804895
328.842539	1573.030769
331.310605	1557.913986
333.773850	1537.247552
336.236439	1519.070629
338.698371	1503.672727
341.159646	1502.216783
343.618186	1492.756643
346.078149	1485.598601
348.535380	1479.182517
350.991956	1468.432867
353.447878	1454.177622
355.901070	1444.242657
358.355685	1435.669930
360.805498	1430.749650
363.258807	1417.792308
365.707317	1404.984615
368.155177	1394.175524
370.604459	1384.503497
373.048946	1368.432867
375.494856	1356.071329
377.940117	1348.591608
380.382659	1346.219580
382.824553	1342.727972
385.265799	1341.541958
387.704331	1347.865734
390.144283	1351.159441
392.581522	1349.381818
395.016049	1357.544755
397.454064	1362.503497
399.887303	1367.782517
402.321962	1368.833566
404.751849	1374.897902
407.185221	1376.919580
409.613823	1380.246853
412.041783	1381.172028
414.471164	1383.404895
416.895781	1388.898601
419.321818	1385.809091
421.747216	1379.332867
424.171973	1378.787413
426.591971	1372.253147
429.013391	1367.720280
431.432114	1363.414685
433.852258	1361.258741
436.269707	1356.184615
438.688577	1358.718881
441.104752	1359.472028
443.516181	1363.250350
445.931086	1365.787413
448.343301	1368.137063
450.754882	1368.701399
453.165830	1373.634965
455.574090	1379.251748
457.981719	1382.989510
460.388715	1386.346154
462.795080	1388.860140
465.198762	1388.830070
467.601814	1385.595105
470.004236	1379.834266
472.406028	1375.054545
474.805142	1367.981818
477.205676	1361.904895
479.605581	1354.569231
482.000764	1352.744755
484.399412	1347.676923
486.793341	1341.281818
489.186644	1326.862238
491.579322	1316.583217
493.971373	1297.874126
496.364844	1280.483217
498.753602	1266.572727
501.139694	1252.292308
503.527206	1238.937063
505.914095	1230.627273
508.298319	1219.525175
510.683963	1215.334965
513.066945	1213.309091
515.447265	1212.666434
517.829006	1207.869231
520.208087	1214.453846
522.588586	1218.735664
524.966429	1224.941259
527.341615	1233.720280
529.716184	1241.419580
532.092172	1249.680420
534.465507	1257.246154
536.840259	1256.962937
539.210325	1261.236364
541.579777	1260.788112
543.950646	1258.255245
546.316834	1252.818182
548.684441	1254.293007
551.049402	1255.690909
553.413751	1258.020280
555.777486	1259.369231
558.142639	1264.989510
560.503120	1271.441958
562.865018	1275.896503
565.224277	1275.339860
567.580897	1274.218881
569.940963	1269.893007
572.294337	1261.847552
574.651156	1248.365035
577.005340	1237.489510
579.358915	1223.366434
581.711883	1206.402098
584.062218	1186.879720
586.413971	1170.572727
588.759047	1153.040559
591.109586	1138.781818
593.453453	1121.559441
595.802781	1111.947552
598.147460	1109.080420
600.489515	1103.348951
602.832987	1099.307692
605.173836	1098.899301
607.514082	1094.707692
609.851708	1089.166434
612.192769	1084.406993
614.529193	1072.711189
616.867033	1063.604196
619.202256	1053.959441
621.534862	1041.829371
623.868886	1034.244056
626.200295	1029.890909
628.531106	1021.767832
630.861319	1016.948951
633.190935	1012.716084
635.515927	1007.848252
637.846361	1008.864336
640.172174	1009.920280
642.495379	1011.922378
644.820001	1017.579021
647.142017	1019.213986
649.463439	1018.903497
651.782258	1018.411189
654.102494	1021.846154
656.422135	1021.630769
658.739177	1023.839161
661.055626	1023.817483
663.369477	1031.999301
665.684744	1044.928671
667.997414	1054.782517
670.311499	1067.228671
672.620984	1074.365035
674.931885	1082.879720
677.240192	1085.537762
679.547912	1086.761538
681.857047	1084.609091
684.161589	1079.463636
686.465545	1074.622378
688.768914	1068.633566
691.073699	1062.235664
693.373896	1058.232867
695.675509	1051.975524
697.976536	1048.941958
700.272982	1046.623776
702.570843	1053.034266
704.868120	1054.302797
707.164814	1050.410490
709.456932	1048.498601
711.752460	1050.609790
714.043416	1051.911888
716.335786	1054.915385
718.625580	1052.687413
720.914795	1053.586713
723.203430	1053.216084
725.489492	1059.562238
727.776968	1067.700000
730.061874	1074.516084
732.346202	1069.523077
734.627961	1064.487413
736.911134	1066.040559
739.193730	1065.532867
741.471770	1068.427273
743.751224	1074.032168
746.030103	1071.232168
748.308407	1068.969930
750.582160	1067.753846
752.857328	1072.428671
755.131922	1074.169930
757.403957	1070.043357
759.677405	1068.320979
761.948295	1067.760839
764.216629	1069.662937
766.486376	1073.568531
768.753568	1081.220979
771.020191	1086.559441
773.286243	1090.624476
775.549744	1093.356643
777.814657	1095.895804
780.079002	1096.899301
782.338816	1095.086014
784.600044	1098.290210
786.860704	1099.929371
789.118818	1101.059441
791.374387	1094.736364
793.633346	1091.960140
795.885807	1090.295804
798.143635	1086.211888
800.396944	1092.073427
802.647712	1091.858741
804.899894	1079.465035
807.149536	1077.193706
809.400590	1081.151748
811.647133	1083.704895
813.895089	1081.385315
816.140509	1087.409091
818.387342	1085.410490
820.633612	1082.713986
822.875379	1074.495804
825.120528	1079.088811
827.359206	1088.532867
829.601265	1085.851748
831.838826	1091.577622
834.077799	1107.267832
836.314245	1124.685315
838.552102	1138.562937
840.787434	1140.284615
843.020242	1147.890210
845.254462	1152.644056
847.486160	1146.362937
849.717303	1135.051049
851.947891	1128.195804
854.177925	1115.176923
856.407404	1101.140559
858.632403	1106.005594
860.860775	1096.946853
863.084669	1088.877622
865.309974	1076.522378
867.530803	1062.380420
869.755004	1060.976923
871.974732	1066.372727
874.195870	1070.814685
876.416458	1077.744056
878.634537	1090.394406
880.854025	1106.868531
883.069047	1117.612587
885.283521	1130.077622
887.497448	1126.648951
889.710827	1113.486014
891.923660	1102.532867
894.135945	1096.270629
896.345729	1084.232867
898.554967	1075.858042
900.763660	1064.033566
902.969853	1059.458042
905.177456	1059.975524
907.382562	1063.820280
909.587124	1073.781818
911.789191	1090.455245
913.992667	1115.541259
916.193649	1138.488811
918.394089	1159.059441
920.595938	1177.055245
922.791396	1196.037762
924.990212	1190.170629
927.184591	1185.765035
929.382327	1177.721678
931.575627	1183.849650
933.770336	1191.737063
935.962558	1204.190909
938.154243	1230.297902
940.345390	1256.641958
942.534054	1266.441958
944.722181	1276.706993
946.907828	1281.721678
949.096828	1304.770629
951.281403	1277.251049
953.465444	1271.385315
955.652836	1270.654545
957.831923	1268.019580
960.014361	1250.600699
962.196264	1243.215385
964.375694	1254.981818
966.552651	1266.090210
968.731016	1255.352448
970.910788	1265.549650
973.084210	1278.752448
975.260980	1303.897902
977.433342	1291.915385
979.607112	1321.787413
981.776478	1326.844056
983.949188	1324.448951
986.119433	1325.496503
988.289148	1331.995105
990.458335	1355.153846
992.623125	1349.374825
994.791257	1338.918182
996.954993	1330.747552
999.120137	1325.283217
1001.282821	1311.234965
1003.444980	1305.555944
1005.604682	1323.037762
1007.763859	1334.023077
1009.924443	1343.329371
1012.082572	1354.673427
1014.240178	1349.655245
1016.397259	1360.693007
1018.553818	1350.642657
1020.705997	1337.390210
1022.859583	1296.372727
1025.012647	1268.525874
1027.163262	1244.227273
1029.315283	1202.945455
1031.462932	1166.732867
1033.613912	1121.302797
1035.760521	1053.441259
1037.906611	968.906993
1040.052183	887.576923
1042.199160	821.069231
1044.339848	752.718881
1046.483865	684.927273
1048.625443	641.206993
1050.766503	628.288811
1052.908969	640.132867
1055.045154	633.966434
1057.184666	647.368531
1059.319822	655.763636
1061.458303	674.209091
1063.592431	682.993706
1065.726045	705.558741
1067.861063	736.745455
1069.991732	763.024476
1072.123807	802.006993
1074.253451	835.777622
1076.382584	884.388811
1078.511206	938.196503
1080.639316	970.066434
1082.765000	980.648951
1084.890174	1000.819580
1087.016752	1022.901399
1089.138992	1053.490210
1091.262637	1108.069930
1093.381947	1168.394406
1095.506486	1207.492308
1097.624781	1233.556643
1099.744479	1244.733566
1101.861760	1283.390909
1103.978533	1296.237063
1106.094800	1299.235664
1108.208652	1275.636364
1110.323907	1274.968531
1112.434840	1251.697902
1114.549085	1243.539860
1116.659009	1249.772727
1118.770336	1250.952448
1120.881160	1239.754545
1122.987667	1239.721678
1125.097483	1259.096503
1127.202985	1317.714685
1129.309891	1352.259441
1131.410581	1366.076923
1133.516483	1360.722378
1135.618076	1375.871329
1137.721071	1343.186713
1139.823567	1336.507692
1141.919855	1313.074126
1144.021350	1301.919580
1146.118543	1283.153846
1148.215237	1285.257343
1150.311434	1297.497902
1152.407132	1312.846853
1154.502333	1301.067133
1156.595137	1271.371329
1158.689343	1274.651748
1160.777358	1292.093007
1162.870571	1292.802098
1164.957596	1320.354545
1167.047921	1316.380420
1169.133957	1315.469930
1171.223291	1313.818881
1173.306444	1316.307692
1175.391000	1316.597203
1177.476957	1311.593706
1179.558632	1311.475524
1181.641708	1308.458741
1183.722399	1324.969231
1185.802599	1346.977622
1187.882307	1349.845455
1189.961524	1341.298601
1192.038358	1327.624476
1194.112812	1319.806294
1196.190558	1308.244755
1198.264033	1306.166434
1200.338910	1300.990909
1202.409519	1301.155245
1204.481529	1298.945455
1206.551163	1291.723077
1208.622198	1299.293007
1210.692745	1300.704895
1212.759032	1290.460140
1214.826719	1286.213986
1216.892033	1286.467832
1218.958748	1297.209091
1221.021207	1302.452448
1223.086952	1323.937762
1225.148442	1338.603497
1227.211332	1352.483217
1229.271855	1365.032168
1231.331895	1383.567133
1233.391451	1397.714685
1235.448643	1396.078322
1237.505352	1404.187413
1239.559699	1395.996503
1241.617326	1387.521678
1243.672591	1402.755245
1245.723615	1411.511189
1247.776040	1414.073427
1249.827984	1428.901399
1251.877570	1429.240559
1253.926677	1440.779021
1255.975305	1455.146154
1258.023455	1472.100000
1260.071127	1480.704895
1262.114568	1481.665734
1264.161285	1470.311888
1266.205648	1470.342657
1268.249534	1466.508392
1270.291070	1478.155944
1272.330256	1474.460839
1274.372715	1477.079720
1276.410951	1474.839860
1278.450586	1487.731469
1280.489745	1495.804895
1282.524687	1498.423776
1284.561027	1489.783217
1286.595022	1472.281818
1288.630416	1460.782517
1290.661596	1457.397902
1292.694175	1448.200000
1294.726282	1473.026573
1296.756048	1462.860140
1298.787211	1463.710490
1300.814167	1480.915385
1302.842522	1487.160839
1304.866671	1497.908392
1306.894086	1504.432168
1308.917298	1508.647552
1310.941908	1523.291608
1312.964183	1540.086713
1314.987856	1553.025175
1317.009196	1550.667133
1319.030069	1547.528671
1321.050474	1533.982517
1323.066686	1521.282517
1325.084295	1511.248951
1327.099576	1491.686713
1329.118116	1473.151748
1331.132466	1458.923776
1333.144491	1435.525874
1335.159774	1432.504895
1337.170871	1411.272727
1339.183364	1390.637762
1341.191675	1367.434965
1343.203242	1360.211888
1345.208770	1365.532867
1347.217553	1346.588112
1349.222158	1361.265734
1351.230017	1365.590210
1353.237414	1378.133566
1355.238780	1409.548951
1357.241542	1438.452448
1359.243845	1464.139161
1361.245688	1473.083916
1363.247071	1486.344755
1365.246140	1480.240559
1367.244751	1487.771329
1369.242904	1485.409091
1371.240599	1468.878322
1373.234131	1471.660140
1375.229058	1472.247552
1377.223529	1474.518182
1379.217543	1485.482517
1381.209250	1489.153846
1383.200501	1476.178322
1385.189447	1476.968531
1387.179788	1472.047552
1389.169675	1459.667832
1391.157257	1465.788811
1393.144386	1464.524476
1395.129213	1463.996503
1397.115435	1467.767133
1399.099356	1484.295105
1401.082825	1476.429371
1403.065842	1474.211888
1405.046561	1468.963636
1407.028674	1468.651049
1409.008490	1476.419580
1410.987856	1485.427972
1412.963083	1485.988112
1414.941548	1484.760140
1416.917720	1475.816783
1418.893442	1471.527273
1420.868715	1476.078322
1422.841698	1470.021678
1424.814232	1450.318182
1426.786318	1450.351748
1428.757957	1444.391608
1430.725467	1446.813287
1432.698051	1454.407692
1434.662829	1472.559441
1436.632680	1481.527972
1438.598406	1489.058042
1440.565526	1484.497902
1442.530362	1496.223077
1444.491078	1520.402797
1446.456862	1533.010490
1448.416691	1545.459441
1450.377914	1562.827972
1452.340528	1562.969231
1454.299028	1576.948951
1456.257086	1586.474825
1458.214701	1591.524476
1460.171875	1593.100000
1462.126773	1587.243357
1464.083064	1571.047552
1466.037080	1570.890909
1467.990655	1564.974825
1469.941958	1559.641958
1471.894653	1544.569231
1473.845077	1531.035664
1475.795062	1521.230070
1477.744608	1508.936364
1479.691885	1494.086014
1481.636894	1496.113986
1483.583296	1490.376923
1485.529260	1492.792308
1487.474787	1484.804196
1489.418048	1490.689510
1491.360873	1482.034266
1493.301435	1490.726573
1495.243389	1477.671329
1497.183080	1484.600699
1499.122336	1494.676923
1501.061158	1488.739161
1502.997720	1487.941958
1504.935673	1496.755245
1506.871367	1489.326573
1508.806628	1491.969231
1510.739632	1503.251049
1512.672204	1519.287413
1514.604344	1517.831469
1516.536052	1534.276923
1518.465507	1546.632168
1520.396352	1557.739860
1522.326765	1576.473427
1524.253106	1582.669231
1526.180837	1585.223077
1528.106319	1600.834266
1530.031371	1592.432168
1531.955993	1594.320280
1533.880187	1622.231469
1535.802134	1630.581818
1537.725471	1633.176923
1539.646561	1642.855245
1541.565407	1648.260140
1543.485643	1643.826573
1545.403635	1672.133566
1547.321201	1671.761538
1549.236526	1671.223077
1551.153240	1687.313287
1553.065898	1674.198601
1554.981761	1689.761538
1556.895385	1692.681119
1558.806770	1683.106294
1560.719545	1673.847552
1562.628270	1672.476923
1564.538384	1675.262937
1566.448075	1687.988811
1568.357343	1709.050350
1570.264376	1701.869231
1572.169177	1704.032168
1574.075367	1716.551049
1575.979326	1705.555944
1577.882863	1712.983916
1579.785980	1707.545455
1581.686867	1691.249650
1583.589143	1675.276224
1585.489190	1649.222378
1587.390626	1623.554545
1589.288027	1615.727273
1591.185011	1617.064336
1593.081576	1598.219580
1594.979528	1574.678322
1596.871646	1563.006294
1598.766958	1559.028671
1600.661851	1573.430070
1602.554524	1577.050350
1604.446779	1573.518182
1606.336815	1572.564336
1608.226435	1562.286014
1610.115640	1574.147552
1612.004429	1593.896503
1613.891002	1618.202098
1615.778962	1606.411888
1617.662905	1606.025874
1619.548235	1606.678322
1621.433152	1605.753147
1623.315855	1595.796503
1625.199945	1549.820280
1627.080023	1507.372727
1628.961488	1475.762937
1630.840743	1463.090909
1632.721385	1455.803497
1634.596222	1424.613986
1636.476040	1427.845455
1638.351853	1423.518881
1640.227257	1434.279720
1642.104046	1443.517483
1643.975038	1452.503497
1645.849213	1443.561538
1647.719388	1420.589510
1649.592744	1391.781818
1651.463897	1371.108392
1653.332848	1361.830769
1655.203185	1348.097203
1657.069528	1315.146154
1658.937258	1291.176224
1660.802788	1268.553846
1662.669704	1264.783916
1664.532630	1302.451049
1666.396943	1308.036364
1668.259059	1293.010490
1670.120770	1303.442657
1671.983866	1274.011189
1673.844768	1276.439860
1675.703477	1280.883916
1677.561782	1272.683916
1679.421471	1249.679720
1681.275394	1193.960140
1683.132490	1170.811189
1684.989182	1186.238462
1686.841899	1203.062937
1688.697787	1210.760839
1690.549701	1205.112587
1692.401214	1209.832867
1694.252326	1209.703497
1696.103037	1231.455944
1697.953348	1230.188112
1699.801475	1209.890210
1701.650986	1174.079720
1703.494747	1114.820280
1705.343459	1096.071329
1707.186424	1118.811888
1709.032555	1127.726573
1710.874725	1136.886014
1712.720059	1111.516783
1714.559653	1108.894406
1716.400632	1107.611189
1718.242993	1092.465035
1720.081397	1062.530070
1721.921185	1020.223776
1723.758798	966.451049
1725.596016	927.641958
1727.431060	927.802797
1729.267487	945.539161
1731.101741	948.739161
1732.935602	961.488112
1734.769068	986.644056
1736.598588	1018.881119
1738.431267	1019.297203
1740.260002	1024.897902
1742.091895	1015.978322
1743.919845	987.388112
1745.747403	971.721678
1747.574570	922.064336
1749.401345	906.688811
1751.227728	906.899301
1753.050175	918.635664
1754.875777	953.396503
1756.697443	977.864336
1758.520492	978.634266
1760.341380	1004.699301
1762.161878	1024.628671
1763.983758	1026.455245
1765.799938	1019.494406
1767.619270	1045.000699
1769.434675	1003.389510
1771.253231	1011.418182
1773.067861	1017.799301
1774.882104	1017.045455
1776.695961	1010.141259
1778.509431	1018.486713
1780.320747	1003.275524
1782.133445	1021.841958
1783.945756	998.599301
1785.754150	996.614685
1787.563925	994.633566
1789.369784	1013.231469
1791.178790	1022.838462
1792.983882	1038.275524
1794.790355	1029.371329
1796.596443	1027.828671
1798.398622	1031.134965
1800.203944	1079.696503
1802.005358	1098.212587
1803.808153	1097.260839
1805.607041	1099.064336
1807.407310	1093.297203
1809.207197	1087.056643
1811.004942	1102.345455
1812.802307	1109.225874
1814.599291	1091.164336
1816.395895	1067.958741
1818.190360	1065.054545
1819.986205	1089.022378
1821.776394	1145.490210
1823.571480	1170.723077
1825.360913	1189.292308
1827.153484	1199.736364
1828.943919	1207.939161
1830.732219	1208.423077
1832.523655	1200.298601
1834.309446	1196.123776
1836.096615	1184.634266
1837.881654	1152.258741
1839.669825	1150.735664
1841.454111	1169.419580
1843.236268	1186.155944
1845.019804	1187.392308
1846.801211	1190.981818
1848.583996	1163.887413
1850.362902	1175.669231
1852.143186	1163.480420
1853.921345	1153.439860
1855.700881	1144.619580
1857.478293	1118.265734
1859.253582	1082.271329
1861.030248	1084.488811
1862.804792	1088.137762
1864.580713	1095.902797
1866.351015	1131.139161
1868.124444	1157.500699
1869.895753	1168.324476
1871.666691	1208.673427
1873.439007	1241.534965
1875.205709	1263.358741
1876.975536	1269.030769
1878.741500	1275.513287
1880.510588	1269.895105
1882.275814	1257.900699
1884.040672	1241.258741
1885.806906	1235.056643
1887.569282	1221.532168
1889.331291	1203.604895
1891.092933	1172.352448
1892.854207	1155.221678
1894.615115	1138.013986
1896.375655	1134.398601
1898.134087	1161.693706
1899.892152	1200.506294
1901.648110	1207.179021
1903.405444	1204.460140
1905.162413	1225.797902
1906.917275	1225.331469
1908.670032	1185.311888
1910.422426	1168.558741
1912.176196	1150.170629
1913.927862	1113.755245
1915.677425	1096.704895
1917.428365	1104.714685
1919.178941	1126.773427
1920.925679	1116.797902
1922.673792	1098.722378
1924.419806	1087.159441
1926.167196	1093.584615
1927.912487	1084.030769
1929.655681	1069.040559
1931.400251	1058.831469
1933.142724	1084.109091
1934.884837	1087.638462
1936.626591	1105.970280
1938.367984	1119.129371
1940.107284	1122.896853
1941.846225	1100.498601
1943.584807	1085.757692
1945.321298	1068.174126
1947.057430	1065.046503
1948.794938	1072.417483
1950.528623	1068.826923
1952.263683	1059.316783
1953.996654	1074.129720
1955.729269	1064.297203
1957.461527	1067.584965
1959.193429	1059.544056
1960.923246	1056.576224
1962.650977	1044.465035
1964.380083	1054.218182
1966.108833	1067.411189
1967.835500	1068.680420
1969.561813	1067.247552
1971.289500	1085.706993
1973.011650	1079.774825
1974.736901	1085.717483
1976.458345	1089.709091
1978.182889	1091.442657
1979.905354	1085.903497
1981.624015	1072.688112
1983.345775	1080.106993
1985.063733	1108.079021
1986.783065	1126.990210
1988.498597	1131.500000
1990.218949	1158.519580
1991.935503	1186.323077
1993.648260	1190.090210
1995.364113	1200.304196
1997.077894	1207.486014
1998.791325	1200.488112
2000.502685	1192.909790
2002.215417	1168.276224
2003.924358	1164.337762
2005.636393	1167.460839
2007.342918	1171.066434
2009.052536	1177.664336
2010.760086	1192.187413
2012.467289	1185.404895
2014.172426	1187.546853
2015.877216	1187.413986
2017.583379	1196.681818
2019.285758	1198.063636
2020.989510	1196.769930
2022.691199	1195.351049
2024.392542	1183.351748
2026.093541	1180.883217
2027.792478	1181.655245
2029.492787	1172.288811
2031.189320	1164.281818
2032.887225	1151.274825
2034.583072	1157.746853
2036.282004	1158.618182
2037.975450	1168.855245
2039.670267	1190.713986
2041.364741	1199.205594
2043.055448	1203.795105
2044.749237	1197.286014
2046.439261	1184.422378
2048.130654	1172.282517
2049.819995	1151.473427
2051.510707	1136.667832
2053.197655	1117.267832
2054.884263	1120.021678
2056.572242	1118.577622
2058.256461	1144.037762
2059.942050	1165.138462
2061.627300	1166.520979
2063.310502	1166.975524
2064.995074	1169.829371
2066.674182	1164.211888
2068.358077	1155.181119
2070.036510	1145.571329
2071.718021	1129.860140
2073.395780	1126.046154
2075.073203	1130.670629
2076.751995	1138.696503
2078.428744	1152.593706
2080.103452	1152.411888
2081.779530	1143.706993
2083.453566	1134.645455
2085.127267	1141.120280
2086.800634	1141.175524
2088.471961	1131.597203
2090.142954	1119.064336
2091.813613	1108.182517
2093.483938	1120.535664
2095.153929	1124.660140
2096.821883	1144.226573
2098.489505	1151.800000
2100.155093	1157.081119
2101.822049	1167.614685
2103.486972	1171.719580
2105.151563	1173.456643
2106.814122	1163.467133
2108.478049	1162.075524
2110.139945	1149.188811
2111.801510	1159.712587
2113.462745	1170.525175
2115.121950	1162.702098
2116.780826	1174.392308
2118.439371	1176.013986
2120.097587	1190.621678
2121.752080	1189.429371
2123.409637	1173.466434
2125.066864	1159.489510
2126.720371	1146.070629
2128.375245	1142.719580
2130.026400	1142.023077
2131.680618	1153.200699
2133.331118	1159.317483
2134.982986	1150.007692
2136.629445	1163.355944
2138.280658	1156.004196
2139.928159	1149.000000
2141.577026	1138.991608
2143.223874	1139.053147
2144.870397	1133.222378
2146.516594	1136.640559
2148.159082	1132.299301
2149.804629	1136.388811
2151.446469	1138.543357
2153.091366	1153.662238
2154.732558	1162.131469
2156.373426	1159.384615
2158.013971	1143.306294
2159.652503	1143.011189
2161.292401	1157.286713
2162.928599	1155.765035
2164.566163	1170.557343
2166.203405	1190.990210
2167.838637	1199.341958
2169.473547	1208.247552
2171.108136	1201.562937
2172.742404	1217.600699
2174.372978	1226.588112
2176.006604	1217.090909
2177.636537	1201.876923
2179.267837	1180.786713
2180.897131	1148.024476
2182.526106	1126.525175
2184.154761	1138.653846
2185.783097	1133.253846
2187.409430	1135.918881
2189.035445	1150.573427
2190.659459	1165.224476
2192.284838	1194.780420
2193.908216	1226.079720
2195.532959	1224.637063
2197.154021	1199.604895
2198.774766	1186.346154
2200.396875	1169.037762
2202.016987	1147.635664
2203.635103	1147.433566
2205.252903	1126.883916
2206.870387	1122.406993
2208.487556	1135.764336
2210.104410	1132.861538
2211.720949	1134.146853
2213.335494	1150.837762
2214.948048	1142.821678
2216.561965	1143.643357
2218.173891	1160.851748
2219.787180	1160.339161
2221.398478	1151.992308
2223.007788	1170.732867
2224.618460	1162.566434
2226.227144	1153.520979
2227.835516	1145.469231
2229.441901	1123.948951
2231.049648	1119.347552
2232.655410	1122.509091
2234.260860	1108.906294
2235.864325	1112.215385
2237.469153	1110.937762
2239.071997	1100.209790
2240.672858	1096.100000
2242.275082	1109.288112
2243.875324	1110.546853
2245.476928	1126.653846
2247.074879	1151.336364
2248.674193	1154.516084
2250.271527	1164.096503
2251.868553	1178.090210
2253.466940	1203.051049
2255.061680	1228.144755
2256.654442	1228.474126
2258.248567	1233.293007
2259.844053	1230.316084
2261.435894	1226.790909
2263.027429	1219.686713
2264.620325	1221.739860
2266.207912	1222.155944
2267.800196	1217.625175
2269.387172	1199.001399
2270.977177	1195.860140
2272.561877	1200.572028
2274.151271	1183.876224
2275.735362	1162.211189
2277.320815	1138.910490
2278.904299	1114.024476
2280.490808	1085.297203
2282.073684	1082.390210
2283.656257	1087.872028
2285.238526	1104.523077
2286.817165	1118.830070
2288.398829	1120.944056
2289.976864	1120.116084
2291.557922	1127.525874
2293.135353	1130.937762
2294.710821	1101.546853
2296.289311	1082.507692
2297.864177	1084.046154
2299.438742	1059.094406
2301.013006	1059.697203
2302.586970	1070.606294
2304.160634	1080.383916
2305.733998	1109.117483
2307.303742	1123.116783
2308.873189	1110.068531
2310.445653	1123.737762
2312.012843	1115.592308
2313.583050	1108.350350
2315.149644	1132.262937
2316.717596	1130.304196
2318.283594	1135.567133
2319.849294	1127.602797
2321.414696	1129.083916
2322.978145	1133.250350
2324.542953	1143.858042
2326.104152	1105.727273
2327.668366	1064.538462
2329.227319	1030.778322
2330.789285	994.762937
2332.349301	999.265734
2333.909021	1003.296503
2335.466792	1015.349650
2337.024269	1073.770629
2338.581451	1081.795105
2340.136685	1103.211189
2341.691625	1137.466434
2343.246272	1153.627972
2344.800625	1134.793007
2346.354684	1128.083217
2347.908450	1109.008392
2349.460271	1108.678322
2351.010149	1064.592308
2352.563036	1075.375524
2354.110679	1102.701399
2355.661330	1131.560839
2357.208391	1124.345455
2358.756809	1122.525874
2360.304935	1128.424476
2361.849474	1119.425874
2363.395370	1068.311189
2364.939327	1050.580420
2366.484642	1047.948951
2368.026372	1066.388811
2369.569460	1047.860140
2371.110611	1095.969930
2372.651473	1107.061538
2374.192046	1145.431469
2375.732330	1163.874126
2377.272325	1187.959441
2378.808741	1206.297203
2380.348159	1189.087413
2381.884000	1140.518182
2383.421198	1127.534965
2384.954820	1134.630070
2386.491442	1138.911888
2388.026134	1119.537063
2389.558895	1092.386014
2391.091371	1060.857343
2392.621918	1082.443357
2394.155463	1070.234965
2395.683797	1078.809790
2397.213487	1088.682517
2398.742892	1109.413986
2400.272012	1122.136364
2401.800846	1118.998601
2403.324476	1131.424476
2404.852741	1118.150350
2406.375803	1115.160140
2407.903500	1104.706294
2409.424357	1098.718881
2410.949846	1092.197902
2412.471776	1086.964336
2413.995060	1099.489510
2415.516424	1111.328671
2417.035868	1145.621678
2418.556667	1128.463636
2420.075547	1109.152448
2421.594146	1126.096503
2423.110826	1099.939860
2424.628862	1126.066434
2426.146616	1114.018881
2427.660818	1102.155944
2429.174741	1102.444056
2430.688383	1093.472028
2432.203379	1098.368531
2433.714828	1083.262937
2435.227630	1074.389510
2436.738520	1040.257343
2438.249131	1033.313986
2439.757830	1039.774825
2441.269515	1028.362238
2442.777657	1060.801399
2444.285521	1074.065035
2445.793106	1102.914685
2447.297152	1137.258042
2448.804182	1129.837762
2450.309304	1165.291608
2451.814149	1185.409790
2453.317087	1187.320979
2454.819748	1200.686713
2456.322134	1213.437762
2457.822613	1226.232168
2459.324447	1241.267133
2460.824375	1227.630769
2462.324028	1212.727972
2463.823406	1196.947552
2465.320881	1178.975524
2466.816454	1129.872727
2468.315007	1104.077622
2469.810032	1107.500699
2471.306409	1090.865734
2472.799260	1109.223776
2474.293464	1122.729371
2475.787394	1134.798601
2477.277800	1125.464336
2478.771184	1102.761538
2480.262670	1090.916084
2481.752259	1080.972028
2483.241576	1087.843357
2484.728997	1054.749650
2486.219394	1063.474126
2487.706273	1077.029371
2489.194503	1061.361538
2490.679216	1054.899301
2492.163659	1044.487413
2493.649454	1046.621678
2495.133357	1044.290909
2496.618610	1039.972028
2498.098730	1035.546853
2499.581822	1037.939860
2501.063025	1065.939161
2502.543958	1077.548252
2504.023001	1088.610490
2505.501777	1074.593007
2506.980284	1082.334266
2508.458522	1083.265035
2509.936493	1082.757343
2511.410958	1101.479021
2512.888393	1102.283217
2514.362323	1066.021678
2515.837605	1068.890909
2517.312619	1061.039860
2518.784132	1075.423077
2520.256996	1088.876224
2521.727977	1069.967832
2523.200308	1080.245455
2524.667525	1082.299301
2526.137709	1069.364336
2527.606012	1071.062238
2529.074049	1068.118881
2530.541822	1064.742657
2532.009330	1059.645455
2533.476574	1067.952448
2534.940325	1064.844056
2536.405426	1099.932867
2537.868650	1105.359441
2539.333223	1091.912587
2540.794308	1084.943357
2542.256742	1051.826573
2543.718913	1033.071329
2545.177597	1032.231469
2546.640854	1026.140559
2548.099014	1031.601399
2549.558523	1037.965734
2551.012939	1040.513986
2552.471925	1056.468531
2553.929039	1081.248951
2555.384281	1066.802098
2556.839263	1073.307692
2558.292375	1080.374825
2559.746836	1053.113986
2561.199428	1024.418881
2562.651760	1018.310490
2564.102224	1027.027273
2565.555645	1036.182517
2567.003983	1033.927273
2568.455276	1051.172028
2569.904703	1059.955944
2571.350659	1083.614685
2572.799569	1067.393007
2574.245008	1080.353147
2575.691796	1078.226573
2577.136720	1056.648252
2578.581387	1075.054545
2580.027401	1096.185315
2581.469948	1120.785315
2582.913843	1135.818881
2584.354273	1128.803497
2585.796051	1144.448951
2587.235969	1157.448252
2588.677234	1161.129371
2590.115037	1124.709790
2591.555790	1108.432867
2592.991481	1079.903497
2594.430120	1065.009091
2595.866903	1056.093007
2597.301830	1058.851049
2598.739704	1058.203497
2600.172521	1058.969231
2601.606685	1025.088811
2603.038994	1037.351049
2604.472651	1037.611888
2605.904453	1060.925175
2607.336003	1053.903497
2608.767299	1040.114685
2610.196744	1030.288112
2611.625936	1024.464336
2613.053277	1035.079021
2614.481965	1057.232168
2615.910400	1066.410490
2617.335389	1079.153846
2618.761723	1077.842657
2620.186210	1116.599301
2621.612041	1128.860140
2623.034430	1169.821678
2624.458163	1155.195804
2625.880051	1133.018881
2627.301688	1131.416084
2628.721481	1120.889510
2630.142619	1119.985315
2631.563507	1119.425175
2632.980956	1129.642657
2634.401345	1131.053147
2635.818297	1127.099301
2637.235001	1144.817483
2638.651456	1126.651049
2640.067663	1141.050350
2641.483622	1119.397203
2642.897740	1109.407692
2644.311610	1118.261538
2645.723641	1094.911189
2647.137017	1077.246154
2648.546963	1078.062937
2649.959845	1046.562238
2651.369298	1006.999301
2652.778505	992.402098
2654.185876	989.790909
2655.596181	990.846154
2657.004650	1010.337063
2658.411284	1039.477622
2659.817673	1070.569930
2661.222229	1113.262238
2662.628128	1108.369231
2664.032193	1105.317483
2665.436015	1105.627972
2666.839592	1112.448252
2668.241338	1081.195105
2669.644427	1070.784615
2671.044098	1041.884615
2672.445113	1022.394406
2673.842712	1025.129371
2675.243240	1043.747552
2676.640354	1042.191608
2678.038811	1059.934266
2679.435440	1062.516783
2680.831828	1055.387413
2682.227973	1076.142657
2683.622292	1110.682517
2685.017954	1098.558042
2686.410207	1110.917483
2687.803802	1091.834965
2689.195573	1100.448252
2690.588687	1121.064336
2691.979976	1093.202797
2693.369444	1082.565035
2694.758671	1085.991608
2696.147658	1105.728671
2697.537988	1077.739860
2698.923334	1071.391608
2700.311603	1075.234266
2701.698052	1066.874825
2703.084262	1054.239161
2704.470233	1034.812587
2705.852806	1034.259441
2707.236721	1030.091608
2708.620397	1010.766434
2710.003836	1036.680420
2711.383879	1049.129371
2712.765264	1059.396503
2714.144833	1050.342657
2715.525744	1037.037063
2716.904840	1037.287413
2718.282122	991.768531
2719.660745	980.720280
2721.037554	956.795105
2722.414128	949.466434
2723.790466	950.886713
2725.164992	934.806294
2726.540859	964.534965
2727.913339	968.979720
2729.288736	995.153147
2730.659172	1013.613986
2732.030948	1016.453147
2733.402491	1017.108392
2734.772225	1024.234965
2736.143299	1044.213287
2737.512566	1037.167832
2738.881599	1029.407692
2740.248826	1017.375524
2741.615819	996.547552
2742.982580	1006.327273
2744.349108	1006.000000
2745.713832	1008.852448
2747.078323	1029.747552
2748.442582	1017.560839
2749.806610	1011.162238
2751.170405	1031.367133
2752.530828	1014.451049
2753.894160	1008.458042
2755.252550	996.067832
2756.613850	986.986713
2757.971780	978.152448
2759.332618	977.800699
2760.691656	968.520280
2762.047326	993.763636
2763.405905	993.123776
2764.761116	968.446853
2766.116098	966.179021
2767.469283	968.876923
2768.825375	948.889510
2770.178103	964.516783
2771.530602	966.285315
2772.882874	958.580420
2774.236483	962.255944
2775.586731	973.817483
2776.935186	975.191608
2778.286545	1000.327972
2779.634545	980.921678
2780.983884	990.225874
2782.331430	991.069930
2783.678750	964.692308
2785.025842	932.141958
2786.371144	962.708392
2787.716220	954.114685
2789.061070	945.894406
2790.405694	962.317483
2791.746965	975.480420
2793.089575	994.371329
2794.431960	1000.556643
2795.774119	1001.800699
2797.112929	1006.700699
2798.454639	1012.274126
2799.793000	996.023776
2801.132699	987.555944
2802.470612	998.473427
2803.806741	976.602797
2805.142647	980.600000
2806.479889	986.913986
2807.815348	1010.360839
2809.150584	1041.983217
2810.484038	1038.855944
2811.818828	1064.552448
2813.150277	1093.670629
2814.484622	1120.746154
2815.814069	1110.114685
2817.144853	1075.139161
2818.475415	1052.263636
2819.804198	1009.704895
2821.134318	996.078322
2822.462659	957.961538
2823.790778	958.625874
2825.117121	958.926573
2826.444799	958.247552
2827.769145	957.493007
2829.094827	965.230769
2830.418733	953.517483
2831.742419	949.839161
2833.067441	955.003497
2834.389134	966.303497
2835.710608	951.242657
2837.031862	964.704196
2838.352898	967.469231
2839.672162	975.862937
2840.992761	982.073427
2842.311588	943.920280
2843.630197	936.952448
2844.947036	947.073427
2846.263657	914.246853
2847.580061	923.308392
2848.894695	922.824476
2850.210664	917.970629
2851.523314	927.799301
2852.837298	953.770629
2854.151066	964.190210
2855.464617	956.006993
2856.776402	950.855245
2858.086420	947.455944
2859.397773	977.851049
2860.705811	982.064336
2862.015183	994.580420
2863.324340	1004.224476
2864.633282	995.876923
2865.940461	1014.423077
2867.245876	1023.412587
2868.552626	1007.299301
2869.857614	970.488811
2871.162387	953.106294
2872.465400	946.216084
2873.771293	954.365734
2875.072332	951.647552
2876.374704	953.033566
2877.675318	937.933566
2878.977264	915.751049
2880.278998	905.021678
2881.577428	909.671329
2882.877191	891.859441
2884.175197	879.923077
2885.472991	868.420979
2886.769028	885.670629
2888.066399	888.297902
2889.362015	908.565035
2890.657419	909.445455
2891.952612	891.867832
2893.244508	867.252448
2894.539279	882.092308
2895.830755	877.977622
2897.123563	881.109790
2898.416161	882.779720
2899.705464	899.623077
2900.996101	915.162238
2902.284986	940.326573
2903.575203	939.638462
2904.862129	951.135664
2906.150387	961.792308
2907.436896	974.590909
2908.723196	988.100699
2910.009288	1008.739860
2911.293632	990.861538
2912.580848	970.923077
2913.863237	950.817483
2915.146958	928.186713
2916.428932	917.753147
2917.710700	911.150350
2918.990722	897.557343
2920.273614	887.358042
2921.554761	910.688112
2922.832626	908.057343
2924.113360	924.760839
2925.390813	942.239860
2926.668061	928.321678
2927.943566	924.212587
2929.221939	919.039161
2930.495498	916.179720
2931.771924	932.411888
2933.046608	939.350350
2934.319553	923.649650
2935.593829	923.972727
2936.866364	916.635664
2938.138696	890.415385
2939.407755	896.088112
2940.679679	884.293007
2941.949865	858.558042
2943.219847	853.945455
2944.489626	851.660140
2945.757668	856.758741
2947.023975	890.127972
2948.290079	892.535664
2949.557514	909.060140
2950.823213	934.669930
2952.088710	927.052448
2953.354006	924.822378
2954.616036	919.100000
2955.879396	908.988112
2957.142555	887.422378
2958.403981	880.830769
2959.666738	861.846154
2960.927762	839.650350
2962.187056	847.964336
2963.446149	836.732168
2964.705042	846.021678
2965.963735	829.106294
2967.222228	807.867133
2968.478992	809.895804
2969.735557	798.421678
2970.990393	816.775524
2972.246559	823.902098
2973.499470	848.576224
2974.753709	864.441958
2976.007750	881.242657
2977.260065	889.342657
2978.512182	910.360839
2979.762574	923.398601
2981.015821	911.986713
2982.264291	905.804196
2983.515616	895.716783
2984.763691	876.095804
2986.011569	875.430769
2987.259251	868.146853
2988.506735	884.628671
2989.752498	885.697902
2990.998064	903.104895
2992.244959	911.409790
2993.488609	930.685315
2994.733586	932.213986
2995.975321	922.741958
2997.219907	917.714685
2998.462774	896.219580
2999.702400	883.802797
3000.944876	886.362238
3002.184112	874.983217
3003.424676	869.820979
3004.663523	884.695804
3005.902176	888.051049
3007.139113	880.289510
3008.377378	877.239161
3009.613927	878.744755
3010.850283	880.183217
3012.086445	878.581119
3013.320893	878.649650
3014.555148	880.321678
3015.789210	895.683217
3017.021560	877.228671
3018.252198	888.925175
3019.485682	913.254545
3020.717455	892.021678
3021.947516	893.989510
3023.177386	901.390210
3024.405546	915.781119
3025.635033	904.674825
3026.862810	891.913287
3028.090396	893.922378
3029.319308	878.670629
3030.543478	858.302797
3031.770491	841.619580
3032.994281	823.379021
3034.219396	819.969930
3035.442806	808.488112
3036.666025	807.319580
3037.887539	818.196503
3039.111894	849.566434
3040.331514	860.449650
3041.552460	877.404895
3042.773216	894.747552
3043.992270	871.537762
3045.212648	861.951049
3046.429810	840.576224
3047.648297	799.460839
3048.865083	788.859441
3050.081680	761.665035
3051.298090	761.525175
3052.511286	788.830070
3053.727320	818.799301
3054.940142	819.705594
3056.155801	836.038462
3057.366737	835.173427
3058.578999	828.851748
3059.791073	845.692308
3061.002961	820.904196
3062.213152	814.937762
3063.423156	807.119231
3064.632974	794.052448
3065.841096	794.493357
3067.049033	789.856643
3068.255274	803.205245
3069.462840	801.107692
3070.668711	816.375874
3071.874397	803.981818
3073.079899	811.250699
3074.283707	816.140559
3075.488839	798.250699
3076.692278	802.432168
3077.894025	770.989860
3079.095589	757.189510
3080.296969	737.272028
3081.498165	712.020280
3082.697671	708.602098
3083.896994	711.172028
3085.097640	737.983217
3086.296596	747.323077
3087.492357	769.241958
3088.690948	775.580420
3089.886345	782.765734
3091.083066	788.414685
3092.276594	775.003497
3093.472950	788.026573
3094.667619	780.653846
3095.859098	756.886713
3097.054908	761.778322
3098.246025	762.923077
3099.438465	786.361538
3100.627716	795.262238
3101.819794	780.344755
3103.010188	777.435664
3104.197396	777.386713
3105.385926	753.173427
3106.575779	743.159441
3107.762447	746.382517
3108.948936	738.301399
3110.135246	725.566434
3111.322877	741.085315
3112.507326	732.297902
3113.690096	742.385315
3114.875688	757.204895
3116.059601	772.220979
3117.241834	797.524476
3118.423890	799.124476
3119.605767	780.416783
3120.787466	791.277622
3121.967488	791.054545
3123.145833	771.016783
3124.326998	759.760839
3125.504988	760.911888
3126.682801	737.575524
3127.860437	724.360839
3129.036398	734.024476
3130.212183	738.760140
3131.389288	736.955245
3132.564720	723.328671
3133.738478	718.316783
3134.910563	735.476923
3136.083969	737.329371
3137.257200	738.502098
3138.428759	743.798601
3139.601638	742.330070
3140.771350	734.332867
3141.942383	737.772727
3143.111745	741.993007
3144.279438	749.486713
3145.449946	763.512587
3146.615795	750.674126
3147.785954	761.697203
3148.951455	781.534965
3150.116783	769.325874
3151.281937	767.217483
3152.446918	749.495105
3153.613218	729.967133
3154.774865	718.138462
3155.937833	706.667832
3157.100628	701.448252
3158.263249	691.186014
3159.424206	685.849650
3160.584991	683.575524
3161.745603	708.151049
3162.904551	731.672727
3164.063327	727.100000
3165.221932	752.953846
3166.380365	750.140559
3167.538626	744.669930
3168.695226	756.052448
3169.850164	744.830070
3171.006421	754.224476
3172.161017	742.024476
3173.315443	737.600000
3174.468208	746.487413
3175.620804	749.027273
3176.773230	742.947552
3177.925485	752.335664
3179.077571	751.062937
3180.226510	729.998601
3181.378256	719.851748
3182.528345	725.476224
3183.676776	718.046853
3184.825039	731.718182
3185.973133	722.463636
3187.121058	707.613287
3188.267327	704.479720
3189.413428	703.967133
3190.557875	691.284615
3191.702153	711.815385
3192.846264	699.730070
3193.991693	712.813986
3195.133983	705.105594
3196.276105	703.979021
3197.418061	713.781119
3198.559849	686.756643
3199.701470	673.351748
3200.839956	664.638462
3201.979759	668.660140
3203.120879	681.064336
3204.258866	675.478322
3205.395202	687.623776
3206.531374	682.018881
3207.668862	684.981818
3208.804702	672.290909
3209.941859	693.511888
3211.074403	702.660839
3212.211228	670.084615
3213.343443	681.142657
3214.476974	675.473427
3215.610340	668.034266
3216.740580	667.265035
3217.873617	659.281119
3219.003527	661.514685
3220.134755	650.839161
3221.262857	650.669231
3222.393757	660.925874
3223.523012	669.167832
3224.650624	669.934266
3225.775113	662.413287
3226.903878	667.995105
3228.029521	649.289510
3229.155001	644.518881
3230.278840	645.672028
3231.405474	660.465734
3232.527510	679.203497
3233.650862	688.730769
3234.774051	699.335664
3235.897079	703.254545
3237.018467	696.419580
3238.139694	710.382517
3239.259282	699.203497
3240.378709	693.902797
3241.496499	686.927273
3242.617080	690.535664
3243.734548	693.395804
3244.851855	689.160839
3245.969002	687.893706
3247.084512	707.063636
3248.201338	701.877622
3249.315053	704.180420
3250.431559	717.591608
3251.546429	716.826573
3252.658191	707.758741
3253.769794	710.904895
3254.882712	708.031469
3255.995470	714.495804
3257.105122	722.402797
3258.216089	705.564336
3259.326897	714.869231
3260.436073	729.448951
3261.543618	717.672727
3262.652478	716.139860
3263.761179	708.934266
3264.866778	669.384615
3265.973692	663.239161
3267.078976	651.006993
3268.185574	630.558042
3269.289072	628.950350
3270.393884	636.491608
3271.498539	617.851748
3272.600096	614.454545
3273.701496	616.997902
3274.804210	623.090909
3275.906768	649.998601
3277.006229	652.289510
3278.108474	662.109790
3279.207623	679.233566
3280.305147	696.613287
3281.402517	690.898601
3282.502668	691.238462
3283.599727	691.897203
3284.696630	685.102797
3285.793378	675.492308
3286.885567	655.646154
3287.982006	658.530769
3289.076822	669.539161
3290.171483	646.073427
3291.264523	646.572727
3292.357409	652.134965
3293.448674	640.213986
3294.541252	625.751049
3295.632210	633.846853
3296.721548	642.420979
3297.810733	662.067832
3298.901230	665.053846
3299.988643	661.021678
3301.075904	681.285315
3302.164477	665.303497
3303.252897	646.112587
3304.336771	631.602797
3305.424885	630.741958
3306.509919	604.618182
3307.593337	610.539161
3308.678067	610.842657
3309.761181	602.258741
3310.845607	597.689510
3311.926956	596.420280
3313.009616	593.124476
3314.090661	618.990210
3315.171556	605.950350
3316.250838	624.147552
3317.329969	624.872727
3318.410412	648.334266
3319.487780	659.918182
3320.566460	680.288811
3321.643528	677.213986
3322.720446	657.722378
3323.795754	642.956643
3324.870912	647.074126
3325.947381	630.411189
3327.020780	639.077622
3328.094029	634.694406
3329.168590	628.657343
3330.241542	624.738462
3331.312885	628.372028
3332.385539	610.494406
3333.455126	625.891608
3334.526024	604.426573
3335.595316	594.767133
3336.665917	590.634266
3337.734912	604.437063
3338.802302	587.630070
3339.868086	594.071329
3340.938096	606.207692
3342.005042	598.932867
3343.068928	630.733566
3344.135580	630.272727
3345.200629	639.083217
3346.264074	685.799301
3347.327373	672.686713
3348.390525	674.803497
3349.453531	673.634965
3350.516391	682.297902
3351.577648	670.055944
3352.635849	665.680420
3353.698271	644.483916
3354.757637	633.602797
3355.816857	614.054545
3356.877386	608.882517
3357.933407	633.879021
3358.992191	634.853846
3360.046468	637.009091
3361.103509	646.145455
3362.158951	666.183916
3363.215702	652.570629
3364.270856	649.978322
3365.324412	636.500699
3366.376371	609.362238
3367.431093	600.039161
3368.482765	577.104895
3369.534293	589.623077
3370.587131	591.922378
3371.636921	584.010490
3372.688020	597.986014
3373.736072	608.879021
3374.786885	621.769231
3375.834652	611.973427
3376.882277	606.322378
3377.929760	590.330769
3378.975650	588.994406
3380.022848	577.802098
3381.067003	578.387413
3382.113917	579.819580
3383.159240	588.195804
3384.201521	590.970629
3385.243661	584.286014
3386.287110	600.920280
3387.330417	606.039161
3388.372134	617.834965
3389.413711	605.592308
3390.455146	597.665734
3391.494993	598.978322
3392.533251	581.644755
3393.572817	586.299301
3394.612243	582.218182
3395.650081	595.565035
3396.686332	600.933566
3397.722443	592.081119
3398.759862	593.631469
3399.794248	594.364336
3400.829942	605.387413
3401.865496	595.343357
3402.898018	596.120979
3403.933294	598.132867
3404.965540	603.323776
3405.997646	601.261538
3407.028170	609.769930
3408.060000	634.430769
3409.091692	633.341958
3410.120356	625.367133
3411.148883	611.379021
3412.178716	609.804196
3413.208412	606.070629
3414.235082	588.248951
3415.263058	596.511888
3416.288010	592.522378
3417.315713	601.447552
3418.340391	593.397902
3419.366376	597.481119
3420.390782	591.020280
3421.415051	576.219580
3422.437741	572.804895
3423.460295	558.893007
3424.484155	538.448252
3425.504995	532.287413
3426.525699	527.130869
3427.547709	528.316309
3428.566701	537.380619
3429.585558	555.860689
3430.605721	585.293407
3431.622867	627.215659
