-117.633747	14.265934
-114.964146	16.162637
-112.297481	17.643956
-109.631568	18.749051
-106.968588	19.517083
-104.304177	19.987213
-101.642697	20.198601
-98.979788	18.949650
-96.321985	19.400699
-93.662753	19.295105
-91.004269	20.995804
-88.348710	22.255944
-85.691721	20.892308
-83.039831	19.885315
-80.386511	19.544755
-77.736110	17.507692
-75.084281	20.165734
-72.437542	21.043357
-69.789373	22.335664
-67.141947	22.289510
-64.497436	23.834965
-61.851495	25.143357
-59.210636	25.322378
-56.568348	24.220979
-53.928969	22.348951
-51.288161	22.480420
-48.648092	23.937063
-46.013097	26.190210
-43.376672	31.305594
-40.743150	33.450350
-38.108200	38.722378
-35.478316	41.154545
-32.844838	42.144056
-30.216423	40.745455
-27.588742	36.984615
-24.959632	17.809091
-22.335580	-110.007692
-19.707937	-583.715385
-17.085349	-1442.059441
-14.463491	-1252.446154
-11.842364	1831.960839
-9.221968	6564.116084
-6.604459	10442.096503
-3.985522	13096.606993
-1.369471	14515.578322
1.245853	14695.606294
3.860448	13644.447552
6.472162	11380.821678
9.085303	7969.730070
11.693412	3726.476923
14.305101	-293.762238
16.911760	-2147.111189
19.519848	-1303.985315
22.127210	-110.583916
24.729548	50.268531
27.335464	53.288112
29.936359	52.891608
32.538681	47.261538
35.135985	40.497203
37.736866	35.748252
40.332731	31.128671
42.930024	29.142657
45.526598	28.662238
48.118163	26.362238
50.711157	25.125874
53.301289	23.546154
55.892848	22.197902
58.481549	20.798601
61.071676	22.737063
63.656804	20.204895
66.243360	20.452448
68.829201	21.295804
71.412189	21.284615
73.996604	23.311888
76.573889	25.609091
79.154741	26.468531
81.732744	28.357343
84.310037	28.660140
86.888757	29.896503
89.462494	29.762937
92.037658	27.248252
94.609979	24.777622
97.181593	23.625175
99.750366	23.041958
102.320566	23.502797
104.887927	25.053846
107.456715	26.574825
110.022666	28.315385
112.585782	31.416084
115.152454	32.072028
117.709904	38.161538
120.273040	40.866434
122.831217	44.982517
125.392948	62.443357
127.949722	91.208392
130.507922	133.591608
133.061170	186.683916
135.613720	253.293706
138.169820	325.301399
140.720972	403.516084
143.271427	481.415385
145.821184	556.259441
148.368122	621.179720
150.914365	664.565734
153.462033	698.217483
156.009005	718.688112
158.551041	727.603497
161.092385	727.979021
163.633035	719.669930
166.175110	708.698601
168.714375	696.559441
171.250830	690.005594
173.786595	683.148252
176.323785	680.386713
178.860284	677.293706
181.393977	673.499301
183.924866	673.648252
186.455067	676.991608
188.986694	683.854545
191.515519	693.175524
194.041545	696.841259
196.566885	699.445455
199.093650	704.572028
201.617619	708.985315
204.140902	709.455245
206.663501	710.353846
209.183307	707.872727
211.702430	707.460140
214.220870	706.190210
216.740735	710.755245
219.253597	710.496503
221.769991	706.588112
224.285704	700.113287
226.796526	697.237063
229.308773	691.974126
231.818237	688.755245
234.327023	685.997203
236.835131	687.758741
239.344663	691.572028
241.849314	700.256643
244.353289	704.584615
246.858688	711.038462
249.359212	725.758741
251.863259	798.283916
254.360336	966.080420
256.860935	1194.684615
259.358763	1421.565035
261.855918	1601.109790
264.352401	1715.529371
266.844020	1753.366434
269.339159	1709.647552
271.831531	1588.534965
274.323233	1406.843357
276.812172	1199.419580
279.302534	1008.255944
281.790135	888.060140
284.274976	847.468531
286.763332	839.830070
289.244748	827.760140
291.729678	802.211888
294.209762	772.479720
296.693359	734.615385
299.172114	698.035664
301.652291	666.634965
304.129717	647.770629
306.606479	650.063636
309.082577	661.865734
311.555927	684.639860
314.028616	709.739860
316.500643	730.369930
318.972008	747.516084
321.440630	761.711189
323.908592	767.002098
326.377977	766.746154
328.842539	757.769231
331.310605	743.744755
333.773850	726.620280
336.236439	711.827273
338.698371	704.332867
341.159646	701.509091
343.618186	697.410490
346.078149	691.016783
348.535380	689.676224
350.991956	691.941259
353.447878	690.797203
355.901070	689.958741
358.355685	684.276923
360.805498	685.308392
363.258807	681.146853
365.707317	678.026573
368.155177	677.806294
370.604459	675.777622
373.048946	672.739161
375.494856	668.337063
377.940117	664.629371
380.382659	661.367832
382.824553	656.018881
385.265799	650.319580
387.704331	647.937063
390.144283	651.969231
392.581522	648.441259
395.016049	645.857343
397.454064	643.629371
399.887303	643.748951
402.321962	642.070629
404.751849	639.500699
407.185221	639.082517
409.613823	641.697203
412.041783	644.222378
414.471164	646.141259
416.895781	653.581119
419.321818	659.628671
421.747216	657.040559
424.171973	659.115385
426.591971	659.930769
429.013391	659.548252
431.432114	661.668531
433.852258	660.102098
436.269707	661.458042
438.688577	659.959441
441.104752	660.286713
443.516181	662.776224
445.931086	669.588811
448.343301	673.452448
450.754882	671.784615
453.165830	675.280420
455.574090	673.143357
457.981719	670.825874
460.388715	666.139161
462.795080	661.751748
465.198762	655.563636
467.601814	648.873427
470.004236	649.116084
472.406028	647.745455
474.805142	652.369231
477.205676	656.913986
479.605581	660.151049
482.000764	663.898601
484.399412	666.313986
486.793341	666.381818
489.186644	663.666434
491.579322	665.983916
493.971373	660.497902
496.364844	653.707692
498.753602	644.211189
501.139694	631.009790
503.527206	621.647552
505.914095	609.788811
508.298319	596.212587
510.683963	584.662937
513.066945	573.380420
515.447265	560.888811
517.829006	554.581119
520.208087	553.772727
522.588586	553.725175
524.966429	550.444056
527.341615	547.596503
529.716184	546.937063
532.092172	546.579021
534.465507	540.760839
536.840259	534.963636
539.210325	532.183916
541.579777	525.344056
543.950646	514.895804
546.316834	508.686713
548.684441	505.383217
551.049402	503.679021
553.413751	498.846853
555.777486	496.552448
558.142639	497.946154
560.503120	495.995804
562.865018	492.253846
565.224277	494.239161
567.580897	498.881119
569.940963	497.638462
572.294337	494.271329
574.651156	491.777622
577.005340	489.449650
579.358915	488.990210
581.711883	482.822378
584.062218	477.237063
586.413971	475.570629
588.759047	474.823776
591.109586	472.190210
593.453453	475.090909
595.802781	480.528671
598.147460	483.178322
600.489515	484.540559
602.832987	486.100699
605.173836	483.703497
607.514082	482.461538
609.851708	472.648252
612.192769	469.883217
614.529193	468.746853
616.867033	468.035664
619.202256	463.926573
621.534862	464.093706
623.868886	467.681818
626.200295	468.966434
628.531106	467.188112
630.861319	472.744056
633.190935	470.879021
635.515927	471.194406
637.846361	466.676224
640.172174	466.620979
642.495379	466.934266
644.820001	467.237762
647.142017	466.743357
649.463439	466.814685
651.782258	468.393007
654.102494	468.198601
656.422135	467.155245
658.739177	465.760140
661.055626	465.148252
663.369477	467.192308
665.684744	463.196503
667.997414	461.127273
670.311499	462.104196
672.620984	462.767832
674.931885	458.058042
677.240192	459.116783
679.547912	459.546853
681.857047	458.715385
684.161589	457.152448
686.465545	451.495804
688.768914	455.616783
691.073699	456.269231
693.373896	453.799301
695.675509	453.688811
697.976536	450.125874
700.272982	449.673427
702.570843	445.232867
704.868120	448.505594
707.164814	447.260140
709.456932	444.410490
711.752460	441.228671
714.043416	436.616084
716.335786	433.186713
718.625580	429.517483
720.914795	425.329371
723.203430	424.341958
725.489492	422.735664
727.776968	427.325874
730.061874	431.897203
732.346202	436.581818
734.627961	439.297902
736.911134	436.465035
739.193730	437.444755
741.471770	440.502797
743.751224	435.751748
746.030103	439.810490
748.308407	440.464336
750.582160	442.882517
752.857328	444.396503
755.131922	446.467832
757.403957	446.395804
759.677405	443.625175
761.948295	441.704196
764.216629	442.687413
766.486376	446.888811
768.753568	455.080420
771.020191	461.858042
773.286243	476.625175
775.549744	479.472028
777.814657	484.831469
780.079002	491.074825
782.338816	491.044755
784.600044	486.919580
786.860704	480.576224
789.118818	471.669231
791.374387	466.686014
793.633346	465.027273
795.885807	464.630070
798.143635	461.346853
800.396944	466.327972
802.647712	467.974126
804.899894	477.825874
807.149536	488.000699
809.400590	498.627273
811.647133	510.706993
813.895089	512.506993
816.140509	510.025175
818.387342	507.297902
820.633612	509.333566
822.875379	503.677622
825.120528	490.311189
827.359206	484.623776
829.601265	474.695105
831.838826	471.790909
834.077799	472.799301
836.314245	477.445455
838.552102	485.662937
840.787434	486.188811
843.020242	492.760839
845.254462	497.419580
847.486160	509.299301
849.717303	511.500699
851.947891	505.568531
854.177925	508.639860
856.407404	505.435664
858.632403	509.700699
860.860775	507.755944
863.084669	508.015385
865.309974	511.762238
867.530803	515.002098
869.755004	524.792308
871.974732	536.881818
874.195870	543.048951
876.416458	549.506993
878.634537	554.793007
880.854025	554.261538
883.069047	549.655944
885.283521	549.700000
887.497448	543.643357
889.710827	541.312587
891.923660	533.272727
894.135945	530.644755
896.345729	534.290210
898.554967	538.383217
900.763660	540.769231
902.969853	553.672028
905.177456	559.233566
907.382562	563.634266
909.587124	575.916783
911.789191	586.003497
913.992667	587.816084
916.193649	590.934266
918.394089	581.303497
920.595938	576.635664
922.791396	574.131469
924.990212	573.748252
927.184591	581.830769
929.382327	594.331469
931.575627	605.521678
933.770336	619.852448
935.962558	633.693007
938.154243	639.630070
940.345390	651.820979
942.534054	658.528671
944.722181	644.954545
946.907828	647.728671
949.096828	653.712587
951.281403	672.784615
953.465444	686.511189
955.652836	708.378322
957.831923	710.458042
960.014361	718.955944
962.196264	736.776923
964.375694	751.381119
966.552651	781.542657
968.731016	797.524476
970.910788	797.895804
973.084210	828.310490
975.260980	851.496503
977.433342	876.370629
979.607112	887.090210
981.776478	898.554545
983.949188	909.209790
986.119433	934.483217
988.289148	966.068531
990.458335	988.967133
992.623125	1017.911189
994.791257	1054.811189
996.954993	1078.328671
999.120137	1093.537762
1001.282821	1129.528671
1003.444980	1165.930070
1005.604682	1205.201399
1007.763859	1241.172028
1009.924443	1291.325175
1012.082572	1331.962238
1014.240178	1353.272727
1016.397259	1387.887413
1018.553818	1424.091608
1020.705997	1488.297902
1022.859583	1534.021678
1025.012647	1575.346154
1027.163262	1648.846154
1029.315283	1704.852448
1031.462932	1746.469231
1033.613912	1784.939860
1035.760521	1810.774825
1037.906611	1847.555944
1040.052183	1864.972727
1042.199160	1906.779021
1044.339848	1922.247552
1046.483865	1967.657343
1048.625443	2035.223077
1050.766503	2082.104895
1052.908969	2106.651748
1055.045154	2121.131469
1057.184666	2139.779021
1059.319822	2161.885315
1061.458303	2150.645455
1063.592431	2173.941259
1065.726045	2168.966434
1067.861063	2168.261538
1069.991732	2162.062238
1072.123807	2158.876923
1074.253451	2176.663636
1076.382584	2150.457343
1078.511206	2099.007692
1080.639316	2070.096503
1082.765000	2051.980420
1084.890174	2016.703497
1087.016752	1954.906294
1089.138992	1925.394406
1091.262637	1861.135664
1093.381947	1813.918182
1095.506486	1777.195804
1097.624781	1742.268531
1099.744479	1704.960140
1101.861760	1660.458042
1103.978533	1612.922378
1106.094800	1577.997203
1108.208652	1535.763636
1110.323907	1492.200000
1112.434840	1446.014685
1114.549085	1404.376923
1116.659009	1351.763636
1118.770336	1327.923077
1120.881160	1307.535664
1122.987667	1289.879021
1125.097483	1258.099301
1127.202985	1225.564336
1129.309891	1202.841259
1131.410581	1161.143357
1133.516483	1122.354545
1135.618076	1096.553846
1137.721071	1062.484615
1139.823567	1029.926573
1141.919855	1009.971329
1144.021350	985.525874
1146.118543	967.111189
1148.215237	954.772727
1150.311434	934.476923
1152.407132	912.073427
1154.502333	905.724476
1156.595137	907.681818
1158.689343	887.342657
1160.777358	885.832867
1162.870571	868.869231
1164.957596	847.430070
1167.047921	830.630769
1169.133957	812.571329
1171.223291	811.181119
1173.306444	802.351748
1175.391000	792.309790
1177.476957	798.318182
1179.558632	790.252448
1181.641708	801.445455
1183.722399	786.651049
1185.802599	783.548252
1187.882307	776.281119
1189.961524	748.021678
1192.038358	736.340559
1194.112812	732.546853
1196.190558	727.513986
1198.264033	720.672727
1200.338910	717.106294
1202.409519	719.704196
1204.481529	708.348252
1206.551163	704.414685
1208.622198	700.253846
1210.692745	696.934965
1212.759032	699.005594
1214.826719	682.460140
1216.892033	690.536364
1218.958748	684.925175
1221.021207	673.665035
1223.086952	665.450350
1225.148442	660.242657
1227.211332	646.146853
1229.271855	630.865035
1231.331895	613.729371
1233.391451	623.788811
1235.448643	626.967832
1237.505352	625.553846
1239.559699	622.925874
1241.617326	632.821678
1243.672591	635.344755
1245.723615	653.223077
1247.776040	666.780420
1249.827984	671.725175
1251.877570	653.818881
1253.926677	652.593706
1255.975305	653.529371
1258.023455	655.427972
1260.071127	646.547552
1262.114568	638.806294
1264.161285	636.828671
1266.205648	651.416783
1268.249534	658.225874
1270.291070	667.155944
1272.330256	678.258042
1274.372715	677.781818
1276.410951	681.545455
1278.450586	690.751748
1280.489745	705.637063
1282.524687	724.135664
1284.561027	735.987413
1286.595022	759.945455
1288.630416	789.842657
1290.661596	822.016783
1292.694175	833.816084
1294.726282	843.002098
1296.756048	865.179021
1298.787211	876.765035
1300.814167	891.413986
1302.842522	879.909091
1304.866671	869.806993
1306.894086	858.451049
1308.917298	836.252448
1310.941908	813.900699
1312.964183	781.008392
1314.987856	752.428671
1317.009196	723.683217
1319.030069	698.623776
1321.050474	691.256643
1323.066686	687.512587
1325.084295	676.300000
1327.099576	646.929371
1329.118116	629.119580
1331.132466	623.009790
1333.144491	618.227273
1335.159774	601.589510
1337.170871	598.418881
1339.183364	606.081818
1341.191675	608.990210
1343.203242	610.813986
1345.208770	613.518182
1347.217553	614.106993
1349.222158	611.654545
1351.230017	599.106294
1353.237414	596.958741
1355.238780	598.516783
1357.241542	592.181119
1359.243845	596.106993
1361.245688	596.672028
1363.247071	591.674825
1365.246140	582.187413
1367.244751	574.976923
1369.242904	571.736364
1371.240599	567.386713
1373.234131	574.006993
1375.229058	568.422378
1377.223529	567.275524
1379.217543	570.860839
1381.209250	580.768531
1383.200501	589.550350
1385.189447	585.102797
1387.179788	585.104895
1389.169675	583.060140
1391.157257	576.556643
1393.144386	580.293706
1395.129213	582.681119
1397.115435	581.662937
1399.099356	573.780420
1401.082825	568.814685
1403.065842	573.651049
1405.046561	576.509091
1407.028674	573.255245
1409.008490	579.470629
1410.987856	576.705594
1412.963083	571.946853
1414.941548	563.401399
1416.917720	576.088811
1418.893442	576.320280
1420.868715	579.816084
1422.841698	581.776224
1424.814232	583.253846
1426.786318	585.275524
1428.757957	589.425175
1430.725467	594.667133
1432.698051	598.067832
1434.662829	591.896503
1436.632680	590.000000
1438.598406	581.691608
1440.565526	591.065734
1442.530362	588.948951
1444.491078	593.216084
1446.456862	592.983217
1448.416691	599.513287
1450.377914	605.395105
1452.340528	615.229371
1454.299028	621.444755
1456.257086	614.785315
1458.214701	619.521678
1460.171875	612.618182
1462.126773	605.572727
1464.083064	610.157343
1466.037080	604.808392
1467.990655	602.795105
1469.941958	608.011189
1471.894653	618.867133
1473.845077	624.956643
1475.795062	630.260839
1477.744608	634.870629
1479.691885	624.483916
1481.636894	631.125175
1483.583296	628.641958
1485.529260	635.413986
1487.474787	641.398601
1489.418048	634.105594
1491.360873	628.614685
1493.301435	622.466434
1495.243389	617.096503
1497.183080	607.748951
1499.122336	610.741259
1501.061158	612.900000
1502.997720	604.372028
1504.935673	612.585315
1506.871367	627.985315
1508.806628	647.304196
1510.739632	652.344056
1512.672204	649.581818
1514.604344	655.444755
1516.536052	657.400000
1518.465507	659.946154
1520.396352	667.938462
1522.326765	684.997203
1524.253106	694.867832
1526.180837	685.575524
1528.106319	702.778322
1530.031371	711.410490
1531.955993	715.872727
1533.880187	716.627273
1535.802134	704.255944
1537.725471	714.553147
1539.646561	712.781119
1541.565407	707.782517
1543.485643	722.774825
1545.403635	733.512587
1547.321201	739.032168
1549.236526	743.230769
1551.153240	765.075524
1553.065898	777.262238
1554.981761	789.158042
1556.895385	791.627273
1558.806770	784.526573
1560.719545	791.480420
1562.628270	782.881818
1564.538384	778.341259
1566.448075	790.281818
1568.357343	780.449650
1570.264376	768.420979
1572.169177	778.163636
1574.075367	781.523077
1575.979326	786.869930
1577.882863	787.644755
1579.785980	783.217483
1581.686867	794.648252
1583.589143	806.859441
1585.489190	813.738462
1587.390626	830.660140
1589.288027	846.612587
1591.185011	856.626573
1593.081576	857.721678
1594.979528	869.564336
1596.871646	873.929371
1598.766958	870.621678
1600.661851	877.936364
1602.554524	886.410490
1604.446779	891.203497
1606.336815	909.979720
1608.226435	906.623077
1610.115640	893.029371
1612.004429	898.969930
1613.891002	909.200699
1615.778962	913.026573
1617.662905	915.339860
1619.548235	934.912587
1621.433152	936.371329
1623.315855	954.627972
1625.199945	973.618881
1627.080023	986.462937
1628.961488	1018.111189
1630.840743	1016.363636
1632.721385	1016.267133
1634.596222	1042.662238
1636.476040	1040.399301
1638.351853	1052.777622
1640.227257	1069.782517
1642.104046	1100.301399
1643.975038	1105.832168
1645.849213	1108.027273
1647.719388	1129.450350
1649.592744	1143.985315
1651.463897	1167.390909
1653.332848	1191.672028
1655.203185	1196.088112
1657.069528	1188.109790
1658.937258	1169.631469
1660.802788	1161.537762
1662.669704	1201.192308
1664.532630	1204.574126
1666.396943	1209.069930
1668.259059	1212.643357
1670.120770	1230.830070
1671.983866	1228.727273
1673.844768	1275.040559
1675.703477	1313.915385
1677.561782	1321.698601
1679.421471	1331.665035
1681.275394	1351.793007
1683.132490	1367.560140
1684.989182	1417.152448
1686.841899	1425.267832
1688.697787	1431.790909
1690.549701	1434.760839
1692.401214	1425.194406
1694.252326	1417.476923
1696.103037	1420.583916
1697.953348	1413.747552
1699.801475	1415.711888
1701.650986	1428.800000
1703.494747	1435.679720
1705.343459	1446.417483
1707.186424	1463.747552
1709.032555	1485.688112
1710.874725	1497.650350
1712.720059	1522.729371
1714.559653	1561.865734
1716.400632	1576.431469
1718.242993	1619.988112
1720.081397	1667.415385
1721.921185	1713.027273
1723.758798	1724.782517
1725.596016	1709.625874
1727.431060	1699.002797
1729.267487	1689.352448
1731.101741	1699.259441
1732.935602	1704.797902
1734.769068	1672.499301
1736.598588	1667.458042
1738.431267	1669.532867
1740.260002	1702.048951
1742.091895	1694.443357
1743.919845	1689.041259
1745.747403	1666.800000
1747.574570	1656.265035
1749.401345	1633.809091
1751.227728	1648.280420
1753.050175	1677.037063
1754.875777	1690.572028
1756.697443	1694.605594
1758.520492	1735.000000
1760.341380	1779.904196
1762.161878	1790.145455
1763.983758	1809.483217
1765.799938	1810.781119
1767.619270	1794.264336
1769.434675	1770.632867
1771.253231	1731.662238
1773.067861	1721.602098
1774.882104	1687.151748
1776.695961	1649.285315
1778.509431	1643.650350
1780.320747	1629.338462
1782.133445	1613.074126
1783.945756	1619.708392
1785.754150	1614.635664
1787.563925	1591.700000
1789.369784	1577.652448
1791.178790	1572.962937
1792.983882	1582.137762
1794.790355	1561.316783
1796.596443	1554.777622
1798.398622	1534.730769
1800.203944	1543.683916
1802.005358	1530.037762
1803.808153	1502.523077
1805.607041	1495.218182
1807.407310	1472.937762
1809.207197	1446.416783
1811.004942	1428.203497
1812.802307	1418.918182
1814.599291	1419.256643
1816.395895	1406.983916
1818.190360	1404.790210
1819.986205	1400.986713
1821.776394	1407.709790
1823.571480	1412.662238
1825.360913	1381.728671
1827.153484	1379.409091
1828.943919	1381.146154
1830.732219	1347.704895
1832.523655	1321.102797
1834.309446	1306.869930
1836.096615	1285.337063
1837.881654	1270.349650
1839.669825	1244.048951
1841.454111	1253.563636
1843.236268	1252.921678
1845.019804	1236.629371
1846.801211	1197.542657
1848.583996	1186.097902
1850.362902	1155.155245
1852.143186	1124.446154
1853.921345	1108.163636
1855.700881	1087.236364
1857.478293	1065.805594
1859.253582	1058.956643
1861.030248	1060.400699
1862.804792	1068.515385
1864.580713	1053.562238
1866.351015	1047.718881
1868.124444	1042.336364
1869.895753	1052.349650
1871.666691	1043.741958
1873.439007	1042.811888
1875.205709	1036.235664
1876.975536	1010.893007
1878.741500	1011.837063
1880.510588	990.216783
1882.275814	995.084615
1884.040672	990.394406
1885.806906	978.332168
1887.569282	994.819580
1889.331291	987.835664
1891.092933	989.180420
1892.854207	999.971329
1894.615115	989.632168
1896.375655	980.459441
1898.134087	972.230769
1899.892152	982.113287
1901.648110	942.543357
1903.405444	932.708392
1905.162413	908.743357
1906.917275	883.993706
1908.670032	889.495105
1910.422426	888.383217
1912.176196	879.931469
1913.927862	895.408392
1915.677425	881.039161
1917.428365	873.946154
1919.178941	866.441259
1920.925679	875.081818
1922.673792	854.361538
1924.419806	850.051748
1926.167196	844.269231
1927.912487	848.973427
1929.655681	864.079021
1931.400251	856.348252
1933.142724	844.424476
1934.884837	839.671329
1936.626591	829.912238
1938.367984	826.378322
1940.107284	824.003846
1941.846225	846.716084
1943.584807	852.861888
1945.321298	868.943357
1947.057430	872.859091
1948.794938	880.075524
1950.528623	872.489860
1952.263683	860.105594
1953.996654	847.350699
1955.729269	842.296503
1957.461527	833.329021
1959.193429	829.351049
1960.923246	807.027972
1962.650977	822.710490
1964.380083	826.387413
1966.108833	835.997203
1967.835500	833.323776
1969.561813	834.467133
1971.289500	823.927972
1973.011650	810.040559
1974.736901	804.512587
1976.458345	807.069231
1978.182889	797.772028
1979.905354	782.337063
1981.624015	760.488112
1983.345775	768.601399
1985.063733	755.839860
1986.783065	752.723077
1988.498597	752.029371
1990.218949	741.762937
1991.935503	736.117483
1993.648260	729.209790
1995.364113	732.804196
1997.077894	740.228671
1998.791325	745.475524
2000.502685	736.232168
2002.215417	725.682517
2003.924358	733.904196
2005.636393	742.665035
2007.342918	752.368531
2009.052536	757.014685
2010.760086	763.541259
2012.467289	774.086014
2014.172426	771.030070
2015.877216	769.453147
2017.583379	767.641958
2019.285758	763.332168
2020.989510	749.452448
2022.691199	742.971329
2024.392542	743.217483
2026.093541	732.634965
2027.792478	728.193706
2029.492787	731.839161
2031.189320	742.041259
2032.887225	739.013287
2034.583072	736.367832
2036.282004	727.969231
2037.975450	725.297203
2039.670267	733.123776
2041.364741	729.910490
2043.055448	729.663636
2044.749237	717.837762
2046.439261	704.296503
2048.130654	714.145455
2049.819995	716.641958
2051.510707	707.586713
2053.197655	704.365035
2054.884263	710.097902
2056.572242	703.862937
2058.256461	710.579021
2059.942050	715.032867
2061.627300	714.385315
2063.310502	719.344755
2064.995074	714.581119
2066.674182	715.520979
2068.358077	727.839161
2070.036510	731.419580
2071.718021	729.133566
2073.395780	736.804895
2075.073203	737.870629
2076.751995	728.011888
2078.428744	727.016084
2080.103452	725.987413
2081.779530	717.587413
2083.453566	708.394406
2085.127267	704.461538
2086.800634	711.493706
2088.471961	708.269930
2090.142954	706.903497
2091.813613	713.106993
2093.483938	719.606294
2095.153929	709.446853
2096.821883	713.286014
2098.489505	710.899301
2100.155093	716.642657
2101.822049	701.369930
2103.486972	698.654545
2105.151563	698.271329
2106.814122	703.344755
2108.478049	695.286014
2110.139945	698.824476
2111.801510	703.841958
2113.462745	708.211189
2115.121950	698.046853
2116.780826	708.783916
2118.439371	712.545455
2120.097587	716.764336
2121.752080	718.034266
2123.409637	722.531469
2125.066864	720.886014
2126.720371	728.372028
2128.375245	729.804196
2130.026400	726.220280
2131.680618	713.433566
2133.331118	717.523077
2134.982986	716.391608
2136.629445	719.072727
2138.280658	736.681818
2139.928159	741.882517
2141.577026	755.584615
2143.223874	753.511888
2144.870397	749.422378
2146.516594	742.466434
2148.159082	753.848951
2149.804629	741.133566
2151.446469	731.406294
2153.091366	741.630070
2154.732558	736.435664
2156.373426	741.265734
2158.013971	764.042657
2159.652503	762.545455
2161.292401	757.435664
2162.928599	745.347552
2164.566163	740.483217
2166.203405	741.151049
2167.838637	763.618881
2169.473547	759.655944
2171.108136	756.994406
2172.742404	761.215385
2174.372978	766.762238
2176.006604	786.005594
2177.636537	782.848252
2179.267837	778.744755
2180.897131	769.709790
2182.526106	761.360140
2184.154761	754.814685
2185.783097	754.588112
2187.409430	753.428671
2189.035445	745.663636
2190.659459	748.902797
2192.284838	763.939161
2193.908216	778.297203
2195.532959	777.098601
2197.154021	783.275524
2198.774766	797.654545
2200.396875	802.711888
2202.016987	796.368531
2203.635103	790.062238
2205.252903	791.638462
2206.870387	791.220280
2208.487556	788.508392
2210.104410	792.911189
2211.720949	794.344056
2213.335494	784.226573
2214.948048	786.151748
2216.561965	806.474126
2218.173891	807.895105
2219.787180	824.483217
2221.398478	833.180420
2223.007788	831.722378
2224.618460	836.380420
2226.227144	838.294406
2227.835516	837.853147
2229.441901	839.132168
2231.049648	845.353846
2232.655410	844.128671
2234.260860	856.234266
2235.864325	867.296503
2237.469153	875.172727
2239.071997	873.117483
2240.672858	885.701399
2242.275082	878.701399
2243.875324	893.058741
2245.476928	892.465035
2247.074879	891.848252
2248.674193	886.777622
2250.271527	885.885315
2251.868553	877.574126
2253.466940	880.132867
2255.061680	885.258042
2256.654442	891.697902
2258.248567	883.737063
2259.844053	902.799301
2261.435894	915.092308
2263.027429	922.469231
2264.620325	920.755245
2266.207912	937.385315
2267.800196	926.606294
2269.387172	943.990210
2270.977177	944.245455
2272.561877	958.540559
2274.151271	953.172028
2275.735362	940.058042
2277.320815	945.541958
2278.904299	948.920280
2280.490808	942.371329
2282.073684	929.202797
2283.656257	932.832517
2285.238526	944.817483
2286.817165	943.513636
2288.398829	971.882517
2289.976864	976.009441
2291.557922	984.020280
2293.135353	983.586364
2294.710821	977.833566
2296.289311	997.222727
2297.864177	1010.796503
2299.438742	1015.602448
2301.013006	1019.294406
2302.586970	1026.703846
2304.160634	1035.337063
2305.733998	1032.245455
2307.303742	1024.239161
2308.873189	1023.399301
2310.445653	1017.577622
2312.012843	1023.607692
2313.583050	1022.938462
2315.149644	1054.216084
2316.717596	1080.604895
2318.283594	1105.690909
2319.849294	1109.600000
2321.414696	1128.304895
2322.978145	1147.162937
2324.542953	1148.944056
2326.104152	1157.234965
2327.668366	1163.955245
2329.227319	1177.395804
2330.789285	1195.809091
2332.349301	1220.784615
2333.909021	1231.332168
2335.466792	1233.590210
2337.024269	1230.638462
2338.581451	1213.113287
2340.136685	1223.126573
2341.691625	1225.930769
2343.246272	1229.839161
2344.800625	1227.617483
2346.354684	1229.461538
2347.908450	1251.453846
2349.460271	1257.930070
2351.010149	1255.825175
2352.563036	1247.693007
2354.110679	1269.144755
2355.661330	1278.956643
2357.208391	1299.185315
2358.756809	1320.458042
2360.304935	1338.725874
2361.849474	1352.850350
2363.395370	1361.576224
2364.939327	1370.081119
2366.484642	1373.555245
2368.026372	1341.090909
2369.569460	1310.779720
2371.110611	1294.472727
2372.651473	1296.800699
2374.192046	1304.946853
2375.732330	1319.097902
2377.272325	1334.063636
2378.808741	1367.127273
2380.348159	1392.646154
2381.884000	1416.139161
2383.421198	1449.088112
2384.954820	1472.204196
2386.491442	1472.708392
2388.026134	1482.351748
2389.558895	1479.453846
2391.091371	1476.660140
2392.621918	1477.637063
2394.155463	1469.876923
2395.683797	1453.977622
2397.213487	1424.126573
2398.742892	1409.687413
2400.272012	1393.229371
2401.800846	1406.087413
2403.324476	1425.013287
2404.852741	1437.618881
2406.375803	1443.428671
2407.903500	1457.713287
2409.424357	1479.895105
2410.949846	1493.569930
2412.471776	1515.006993
2413.995060	1528.686014
2415.516424	1535.264336
2417.035868	1549.547552
2418.556667	1535.121678
2420.075547	1522.929371
2421.594146	1530.167133
2423.110826	1508.909091
2424.628862	1503.637063
2426.146616	1491.304196
2427.660818	1485.726573
2429.174741	1491.860839
2430.688383	1515.281119
2432.203379	1507.460140
2433.714828	1492.258741
2435.227630	1471.498601
2436.738520	1463.696503
2438.249131	1464.745455
2439.757830	1486.124476
2441.269515	1506.166434
2442.777657	1519.209091
2444.285521	1512.326573
2445.793106	1523.840559
2447.297152	1537.125874
2448.804182	1520.751748
2450.309304	1496.366434
2451.814149	1477.304196
2453.317087	1455.945455
2454.819748	1462.204196
2456.322134	1427.865035
2457.822613	1426.777622
2459.324447	1418.823077
2460.824375	1385.716783
2462.324028	1400.799301
2463.823406	1391.902797
2465.320881	1410.795804
2466.816454	1406.260839
2468.315007	1424.151049
2469.810032	1421.748252
2471.306409	1415.554545
2472.799260	1426.873427
2474.293464	1429.811888
2475.787394	1431.364336
2477.277800	1442.041958
2478.771184	1449.549650
2480.262670	1468.220979
2481.752259	1458.984615
2483.241576	1449.467832
2484.728997	1420.936364
2486.219394	1410.198601
2487.706273	1405.432168
2489.194503	1401.293007
2490.679216	1406.801399
2492.163659	1424.283916
2493.649454	1426.090909
2495.133357	1448.783217
2496.618610	1449.745455
2498.098730	1438.183217
2499.581822	1444.625175
2501.063025	1422.125874
2502.543958	1423.860140
2504.023001	1407.634266
2505.501777	1404.586713
2506.980284	1383.980420
2508.458522	1355.525874
2509.936493	1342.037762
2511.410958	1332.697203
2512.888393	1316.927273
2514.362323	1324.772028
2515.837605	1334.071329
2517.312619	1351.490210
2518.784132	1361.232867
2520.256996	1387.951748
2521.727977	1381.308392
2523.200308	1387.448951
2524.667525	1381.537762
2526.137709	1350.449650
2527.606012	1337.197902
2529.074049	1317.806993
2530.541822	1315.287413
2532.009330	1306.081119
2533.476574	1296.245455
2534.940325	1278.521678
2536.405426	1280.188811
2537.868650	1289.354545
2539.333223	1272.272028
2540.794308	1288.986713
2542.256742	1286.411189
2543.718913	1278.783916
2545.177597	1287.355944
2546.640854	1281.920280
2548.099014	1281.071329
2549.558523	1286.751748
2551.012939	1309.152448
2552.471925	1316.804895
2553.929039	1334.641259
2555.384281	1343.828671
2556.839263	1335.623077
2558.292375	1359.808392
2559.746836	1333.163636
2561.199428	1316.360140
2562.651760	1294.539161
2564.102224	1257.453846
2565.555645	1237.485315
2567.003983	1238.901399
2568.455276	1242.848252
2569.904703	1246.731469
2571.350659	1251.377622
2572.799569	1266.613287
2574.245008	1257.752448
2575.691796	1270.093706
2577.136720	1257.046853
2578.581387	1257.583217
2580.027401	1253.009790
2581.469948	1236.847552
2582.913843	1219.308392
2584.354273	1207.023077
2585.796051	1185.169930
2587.235969	1168.653846
2588.677234	1171.544755
2590.115037	1189.734965
2591.555790	1173.046154
2592.991481	1196.146853
2594.430120	1193.292308
2595.866903	1200.446853
2597.301830	1211.148252
2598.739704	1205.215385
2600.172521	1197.439860
2601.606685	1199.430769
2603.038994	1186.103497
2604.472651	1202.204196
2605.904453	1210.602098
2607.336003	1213.229371
2608.767299	1202.937762
2610.196744	1213.292308
2611.625936	1187.480420
2613.053277	1195.823077
2614.481965	1198.620979
2615.910400	1180.404895
2617.335389	1171.215385
2618.761723	1165.703497
2620.186210	1167.554545
2621.612041	1180.079720
2623.034430	1172.893706
2624.458163	1181.996503
2625.880051	1181.179021
2627.301688	1174.758741
2628.721481	1180.316783
2630.142619	1179.394406
2631.563507	1168.925175
2632.980956	1154.406993
2634.401345	1147.181119
2635.818297	1146.365734
2637.235001	1162.654545
2638.651456	1178.160839
2640.067663	1181.976224
2641.483622	1198.712587
2642.897740	1187.342657
2644.311610	1186.274126
2645.723641	1201.866434
2647.137017	1188.544056
2648.546963	1189.959441
2649.959845	1199.668531
2651.369298	1188.946154
2652.778505	1171.482517
2654.185876	1161.351748
2655.596181	1159.359441
2657.004650	1153.203497
2658.411284	1167.823077
2659.817673	1151.484615
2661.222229	1149.296503
2662.628128	1174.116783
2664.032193	1185.320979
2665.436015	1189.053147
2666.839592	1181.626573
2668.241338	1160.263636
2669.644427	1151.880420
2671.044098	1154.625175
2672.445113	1173.460839
2673.842712	1171.272028
2675.243240	1168.523077
2676.640354	1164.186713
2678.038811	1159.380420
2679.435440	1167.754545
2680.831828	1155.747552
2682.227973	1132.289510
2683.622292	1107.841958
2685.017954	1104.193007
2686.410207	1129.411888
2687.803802	1127.646154
2689.195573	1133.581818
2690.588687	1140.335664
2691.979976	1154.783916
2693.369444	1159.192308
2694.758671	1153.990210
2696.147658	1141.204895
2697.537988	1139.449650
2698.923334	1137.077622
2700.311603	1131.992308
2701.698052	1144.527972
2703.084262	1164.876923
2704.470233	1154.100000
2705.852806	1156.959441
2707.236721	1162.790909
2708.620397	1152.712587
2710.003836	1128.669930
2711.383879	1123.299301
2712.765264	1121.838462
2714.144833	1132.218881
2715.525744	1131.015385
2716.904840	1144.188112
2718.282122	1158.326573
2719.660745	1157.227972
2721.037554	1161.868531
2722.414128	1182.239860
2723.790466	1176.402797
2725.164992	1178.367832
2726.540859	1167.446853
2727.913339	1176.137063
2729.288736	1180.229371
2730.659172	1171.092308
2732.030948	1155.586713
2733.402491	1169.126573
2734.772225	1161.943357
2736.143299	1161.995105
2737.512566	1160.710490
2738.881599	1184.816783
2740.248826	1158.708392
2741.615819	1165.651049
2742.982580	1148.020280
2744.349108	1144.909790
2745.713832	1132.969930
2747.078323	1127.647552
2748.442582	1147.562937
2749.806610	1168.517483
2751.170405	1177.208392
2752.530828	1173.013986
2753.894160	1169.968531
2755.252550	1179.057343
2756.613850	1150.049650
2757.971780	1160.110490
2759.332618	1143.571329
2760.691656	1150.091608
2762.047326	1147.569231
2763.405905	1154.740559
2764.761116	1176.813986
2766.116098	1174.015385
2767.469283	1170.306294
2768.825375	1153.306993
2770.178103	1143.081818
2771.530602	1134.902797
2772.882874	1124.851748
2774.236483	1136.237762
2775.586731	1141.940559
2776.935186	1144.178322
2778.286545	1127.602098
2779.634545	1135.569930
2780.983884	1141.340559
2782.331430	1146.319580
2783.678750	1157.139860
2785.025842	1167.406993
2786.371144	1185.788811
2787.716220	1210.053846
2789.061070	1213.071329
2790.405694	1229.275524
2791.746965	1238.484615
2793.089575	1216.148252
2794.431960	1191.355245
2795.774119	1201.282517
2797.112929	1190.472727
2798.454639	1198.900000
2799.793000	1203.471329
2801.132699	1213.018881
2802.470612	1216.858741
2803.806741	1208.407692
2805.142647	1199.877622
2806.479889	1210.800699
2807.815348	1199.587413
2809.150584	1167.423776
2810.484038	1147.660839
2811.818828	1159.881119
2813.150277	1153.574825
2814.484622	1154.922378
2815.814069	1155.646154
2817.144853	1166.848252
2818.475415	1174.988112
2819.804198	1167.292308
2821.134318	1187.497203
2822.462659	1190.700699
2823.790778	1176.042657
2825.117121	1154.206294
2826.444799	1151.062238
2827.769145	1155.769930
2829.094827	1154.930769
2830.418733	1156.495804
2831.742419	1167.949650
2833.067441	1184.227273
2834.389134	1198.204895
2835.710608	1186.588112
2837.031862	1200.802797
2838.352898	1189.694406
2839.672162	1170.709790
2840.992761	1144.132867
2842.311588	1134.256643
2843.630197	1125.358042
2844.947036	1106.539161
2846.263657	1106.870629
2847.580061	1116.378322
2848.894695	1135.909091
2850.210664	1151.906993
2851.523314	1173.996503
2852.837298	1196.601399
2854.151066	1222.451748
2855.464617	1212.562238
2856.776402	1213.237762
2858.086420	1214.568531
2859.397773	1199.411189
2860.705811	1161.581818
2862.015183	1158.665734
2863.324340	1165.421678
2864.633282	1171.858042
2865.940461	1177.513287
2867.245876	1187.969231
2868.552626	1206.741958
2869.857614	1223.179021
2871.162387	1212.487413
2872.465400	1228.504196
2873.771293	1241.317483
2875.072332	1237.149650
2876.374704	1212.931469
2877.675318	1216.262238
2878.977264	1208.072028
2880.278998	1212.089510
2881.577428	1214.718182
2882.877191	1205.669231
2884.175197	1230.944056
2885.472991	1234.468531
2886.769028	1236.153846
2888.066399	1267.627972
2889.362015	1269.874825
2890.657419	1270.118182
2891.952612	1252.739860
2893.244508	1264.132168
2894.539279	1243.060839
2895.830755	1247.806294
2897.123563	1232.445455
2898.416161	1201.567832
2899.705464	1206.176224
2900.996101	1209.633566
2902.284986	1218.867832
2903.575203	1218.911189
2904.862129	1190.025175
2906.150387	1183.202098
2907.436896	1163.212587
2908.723196	1185.503497
2910.009288	1172.100000
2911.293632	1164.395804
2912.580848	1170.130769
2913.863237	1158.325175
2915.146958	1173.946853
2916.428932	1185.008392
2917.710700	1196.507692
2918.990722	1167.785315
2920.273614	1150.793706
2921.554761	1149.502098
2922.832626	1134.192308
2924.113360	1163.239860
2925.390813	1157.382517
2926.668061	1176.684615
2927.943566	1202.560839
2929.221939	1207.880420
2930.495498	1223.951049
2931.771924	1234.859441
2933.046608	1234.691608
2934.319553	1213.212587
2935.593829	1223.716084
2936.866364	1228.510490
2938.138696	1211.727972
2939.407755	1208.009790
2940.679679	1185.499301
2941.949865	1197.716084
2943.219847	1187.213287
2944.489626	1171.909790
2945.757668	1183.846154
2947.023975	1199.239860
2948.290079	1194.988811
2949.557514	1198.746853
2950.823213	1194.196503
2952.088710	1184.507692
2953.354006	1174.023776
2954.616036	1151.159441
2955.879396	1142.409790
2957.142555	1137.339860
2958.403981	1119.751049
2959.666738	1105.621678
2960.927762	1124.147552
2962.187056	1141.282517
2963.446149	1148.710490
2964.705042	1141.996503
2965.963735	1143.577622
2967.222228	1146.013986
2968.478992	1145.803497
2969.735557	1135.133566
2970.990393	1132.675524
2972.246559	1121.920979
2973.499470	1122.480420
2974.753709	1118.755245
2976.007750	1111.881119
2977.260065	1121.138462
2978.512182	1132.326573
2979.762574	1128.930070
2981.015821	1136.260839
2982.264291	1126.627273
2983.515616	1121.658042
2984.763691	1129.184615
2986.011569	1134.986713
2987.259251	1139.203497
2988.506735	1159.041958
2989.752498	1155.923077
2990.998064	1150.639161
2992.244959	1170.777622
2993.488609	1184.238462
2994.733586	1168.145455
2995.975321	1160.564336
2997.219907	1157.042657
2998.462774	1148.859441
2999.702400	1175.739860
3000.944876	1182.774126
3002.184112	1177.510490
3003.424676	1184.801399
3004.663523	1187.576923
3005.902176	1190.005594
3007.139113	1191.654545
3008.377378	1198.013986
3009.613927	1166.840559
3010.850283	1153.483916
3012.086445	1127.593706
3013.320893	1115.915385
3014.555148	1109.227972
3015.789210	1089.353147
3017.021560	1087.327972
3018.252198	1102.909091
3019.485682	1113.633566
3020.717455	1108.644755
3021.947516	1113.938462
3023.177386	1138.516084
3024.405546	1132.864336
3025.635033	1132.802797
3026.862810	1138.898601
3028.090396	1136.323776
3029.319308	1119.913986
3030.543478	1105.890210
3031.770491	1105.851748
3032.994281	1086.557343
3034.219396	1072.793007
3035.442806	1065.995804
3036.666025	1069.959441
3037.887539	1069.547552
3039.111894	1080.294406
3040.331514	1083.504895
3041.552460	1108.563636
3042.773216	1111.102797
3043.992270	1095.559441
3045.212648	1078.262238
3046.429810	1077.192308
3047.648297	1080.240559
3048.865083	1096.241958
3050.081680	1093.893007
3051.298090	1091.434965
3052.511286	1089.814685
3053.727320	1095.796503
3054.940142	1092.809790
3056.155801	1100.473427
3057.366737	1089.593706
3058.578999	1072.154545
3059.791073	1070.941958
3061.002961	1076.937762
3062.213152	1078.509790
3063.423156	1076.832517
3064.632974	1067.888112
3065.841096	1061.352797
3067.049033	1063.638462
3068.255274	1063.958392
3069.462840	1054.456643
3070.668711	1050.659790
3071.874397	1038.365035
3073.079899	1036.205245
3074.283707	1020.876224
3075.488839	1003.924825
3076.692278	1009.031469
3077.894025	1021.291958
3079.095589	1017.545455
3080.296969	1032.223776
3081.498165	1054.200699
3082.697671	1071.497902
3083.896994	1057.329371
3085.097640	1082.425874
3086.296596	1074.197902
3087.492357	1080.369231
3088.690948	1071.888811
3089.886345	1065.956643
3091.083066	1079.131469
3092.276594	1079.615385
3093.472950	1064.610490
3094.667619	1087.375524
3095.859098	1069.814685
3097.054908	1050.375524
3098.246025	1010.960839
3099.438465	1017.522378
3100.627716	995.155245
3101.819794	987.779720
3103.010188	977.314685
3104.197396	981.189510
3105.385926	988.159441
3106.575779	994.990909
3107.762447	1011.422378
3108.948936	1039.393007
3110.135246	1037.086713
3111.322877	1036.671329
3112.507326	1045.570629
3113.690096	1044.037063
3114.875688	1031.385315
3116.059601	1008.687413
3117.241834	1001.329371
3118.423890	981.951748
3119.605767	965.355245
3120.787466	957.417483
3121.967488	970.446154
3123.145833	979.984615
3124.326998	989.707692
3125.504988	994.808392
3126.682801	1008.763636
3127.860437	995.737762
3129.036398	1003.921678
3130.212183	996.902797
3131.389288	1002.565035
3132.564720	988.713986
3133.738478	987.053147
3134.910563	987.170629
3136.083969	995.243357
3137.257200	987.299301
3138.428759	978.898601
3139.601638	971.851049
3140.771350	963.874126
3141.942383	965.940559
3143.111745	976.568531
3144.279438	975.541259
3145.449946	982.520280
3146.615795	992.745455
3147.785954	997.248951
3148.951455	1003.650350
3150.116783	1006.854545
3151.281937	1008.984615
3152.446918	995.188112
3153.613218	978.284615
3154.774865	964.157343
3155.937833	966.648252
3157.100628	963.106294
3158.263249	973.298601
3159.424206	986.110490
3160.584991	995.493706
3161.745603	996.748252
3162.904551	987.338462
3164.063327	991.440559
3165.221932	995.776923
3166.380365	974.113986
3167.538626	957.370629
3168.695226	954.014685
3169.850164	953.780420
3171.006421	960.818182
3172.161017	973.161538
3173.315443	990.523776
3174.468208	995.412587
3175.620804	989.520979
3176.773230	987.116084
3177.925485	988.020979
3179.077571	991.940559
3180.226510	1005.667133
3181.378256	998.246154
3182.528345	992.251748
3183.676776	1002.587413
3184.825039	1001.184615
3185.973133	1001.690909
3187.121058	1018.716084
3188.267327	1025.974825
3189.413428	1030.659441
3190.557875	1027.374126
3191.702153	1023.862937
3192.846264	1030.400000
3193.991693	1036.758741
3195.133983	1037.318182
3196.276105	1051.196503
3197.418061	1077.942657
3198.559849	1062.400000
3199.701470	1069.748252
3200.839956	1074.378322
3201.979759	1071.427273
3203.120879	1066.025874
3204.258866	1046.711888
3205.395202	1041.502797
3206.531374	1030.486713
3207.668862	1023.634965
3208.804702	1038.061538
3209.941859	1045.365734
3211.074403	1057.509091
3212.211228	1050.607692
3213.343443	1054.103497
3214.476974	1058.517483
3215.610340	1035.397902
3216.740580	1025.459441
3217.873617	1006.585315
3219.003527	990.642657
3220.134755	978.944755
3221.262857	968.609790
3222.393757	954.397902
3223.523012	962.734266
3224.650624	971.614685
3225.775113	973.927273
3226.903878	984.202098
3228.029521	1009.325874
3229.155001	1007.332168
3230.278840	1029.228671
3231.405474	1045.368531
3232.527510	1055.459441
3233.650862	1067.185315
3234.774051	1070.780420
3235.897079	1066.000000
3237.018467	1078.269930
3238.139694	1066.169930
3239.259282	1051.425874
3240.378709	1043.541259
3241.496499	1043.923077
3242.617080	1036.748951
3243.734548	1041.876224
3244.851855	1059.177622
3245.969002	1046.925874
3247.084512	1054.518881
3248.201338	1060.629371
3249.315053	1070.038462
3250.431559	1064.548252
3251.546429	1054.607692
3252.658191	1052.958042
3253.769794	1040.818881
3254.882712	1042.281818
3255.995470	1039.469231
3257.105122	1034.297203
3258.216089	1031.909091
3259.326897	1022.260140
3260.436073	1045.399301
3261.543618	1067.925874
3262.652478	1075.100000
3263.761179	1089.839161
3264.866778	1102.641958
3265.973692	1107.869930
3267.078976	1105.798601
3268.185574	1125.106294
3269.289072	1129.300699
3270.393884	1132.107692
3271.498539	1119.890210
3272.600096	1125.074825
3273.701496	1120.362937
3274.804210	1109.912587
3275.906768	1107.705594
3277.006229	1115.560839
3278.108474	1110.242657
3279.207623	1112.025874
3280.305147	1124.207692
3281.402517	1137.508392
3282.502668	1141.715385
3283.599727	1142.672727
3284.696630	1125.232168
3285.793378	1116.548951
3286.885567	1102.032867
3287.982006	1097.577622
3289.076822	1094.327273
3290.171483	1090.865734
3291.264523	1086.646154
3292.357409	1091.396503
3293.448674	1088.633566
3294.541252	1089.431469
3295.632210	1085.343357
3296.721548	1086.144056
3297.810733	1082.288811
3298.901230	1085.905594
3299.988643	1084.658741
3301.075904	1080.071329
3302.164477	1068.615385
3303.252897	1062.364336
3304.336771	1057.804895
3305.424885	1046.830070
3306.509919	1044.709091
3307.593337	1061.604196
3308.678067	1072.017483
3309.761181	1088.753147
3310.845607	1107.002098
3311.926956	1104.217483
3313.009616	1091.802098
3314.090661	1098.001399
3315.171556	1093.492308
3316.250838	1090.763636
3317.329969	1094.555245
3318.410412	1083.135664
3319.487780	1100.027972
3320.566460	1116.333566
3321.643528	1133.317483
3322.720446	1137.016084
3323.795754	1136.044755
3324.870912	1118.166434
3325.947381	1104.393706
3327.020780	1098.478322
3328.094029	1087.193706
3329.168590	1084.443357
3330.241542	1077.797902
3331.312885	1081.837762
3332.385539	1079.344056
3333.455126	1072.051748
3334.526024	1066.948951
3335.595316	1070.434266
3336.665917	1063.201399
3337.734912	1081.612587
3338.802302	1066.428671
3339.868086	1078.046154
3340.938096	1083.544056
3342.005042	1082.357343
3343.068928	1091.820979
3344.135580	1106.616783
3345.200629	1089.532867
3346.264074	1084.503497
3347.327373	1084.790909
3348.390525	1096.175524
3349.453531	1094.148252
3350.516391	1110.969930
3351.577648	1105.167133
3352.635849	1117.011189
3353.698271	1102.730769
3354.757637	1106.696503
3355.816857	1121.416783
3356.877386	1110.797203
3357.933407	1095.238462
3358.992191	1087.551049
3360.046468	1083.286713
3361.103509	1082.878322
3362.158951	1082.994406
3363.215702	1078.239860
3364.270856	1089.955245
3365.324412	1097.592308
3366.376371	1084.393007
3367.431093	1098.737762
3368.482765	1101.371329
3369.534293	1090.673427
3370.587131	1087.897203
3371.636921	1087.170629
3372.688020	1077.516084
3373.736072	1083.512587
3374.786885	1087.955245
3375.834652	1091.023077
3376.882277	1095.979021
3377.929760	1080.432168
3378.975650	1057.668531
3380.022848	1064.183217
3381.067003	1057.989510
3382.113917	1068.456643
3383.159240	1085.658741
3384.201521	1094.033566
3385.243661	1088.685315
3386.287110	1100.570629
3387.330417	1114.723077
3388.372134	1112.053147
3389.413711	1104.839860
3390.455146	1101.490909
3391.494993	1085.482517
3392.533251	1080.195804
3393.572817	1084.716084
3394.612243	1103.360839
3395.650081	1109.688811
3396.686332	1089.922378
3397.722443	1090.043357
3398.759862	1090.872727
3399.794248	1095.182517
3400.829942	1092.824476
3401.865496	1092.035664
3402.898018	1102.452448
3403.933294	1102.926573
3404.965540	1108.890909
3405.997646	1118.081119
3407.028170	1126.128671
3408.060000	1122.583916
3409.091692	1119.890210
3410.120356	1134.062937
3411.148883	1127.960140
3412.178716	1126.213287
3413.208412	1113.304196
3414.235082	1084.623776
3415.263058	1092.517483
3416.288010	1084.892308
3417.315713	1077.709790
3418.340391	1084.141958
3419.366376	1088.974825
3420.390782	1082.381818
3421.415051	1082.685315
3422.437741	1094.212587
3423.460295	1100.344056
3424.484155	1120.790909
3425.504995	1133.178322
3426.525699	1149.982318
3427.547709	1165.285365
3428.566701	1177.218581
3429.585558	1183.913087
3430.605721	1183.500000
3431.622867	1174.110440
