-117.967255	-27.600000
-115.297655	-5.000000
-112.630990	0.800000
-109.965077	-1.000000
-107.302096	7.600000
-104.637686	-3.400000
-101.976206	10.400000
-99.313296	-9.800000
-96.655494	-4.200000
-93.996262	-1.000000
-91.337778	-10.800000
-88.682218	-12.200000
-86.025230	-5.000000
-83.373339	-0.800000
-80.720019	1.600000
-78.069619	-17.200000
-75.417789	-6.000000
-72.771050	-10.000000
-70.122881	13.800000
-67.475456	0.200000
-64.830944	-4.400000
-62.185004	-8.000000
-59.544145	-1.800000
-56.901857	-12.400000
-54.262477	-12.800000
-51.621669	-18.200000
-48.981601	0.200000
-46.346605	0.600000
-43.710181	-9.000000
-41.076659	-20.600000
-38.441709	8.000000
-35.811824	-24.600000
-33.178347	-15.000000
-30.549932	16.400000
-27.922251	1.600000
-25.293141	18.000000
-22.669088	14.600000
-20.041446	19.400000
-17.418857	10.400000
-14.797000	21.200000
-12.175873	33.000000
-9.555476	76.200000
-6.937968	317.600000
-4.319030	805.000000
-1.702979	2053.200000
0.912344	2453.600000
3.526940	1130.400000
6.138653	137.200000
8.751795	37.800000
11.359903	36.200000
13.971593	16.400000
16.578252	6.800000
19.186339	21.000000
21.793702	-18.400000
24.396040	4.400000
27.001956	2.800000
29.602850	3.800000
32.205172	8.600000
34.802477	23.000000
37.403357	28.200000
39.999223	6.000000
42.596516	-2.200000
45.193090	14.800000
47.784655	-11.800000
50.377648	-8.400000
52.967780	13.600000
55.559340	-12.200000
58.148040	-3.200000
60.738167	-3.800000
63.323296	-2.400000
65.909851	9.400000
68.495693	-27.000000
71.078681	5.200000
73.663095	-16.200000
76.240381	5.200000
78.821233	-11.600000
81.399236	7.600000
83.976529	-5.800000
86.555248	5.000000
89.128986	5.400000
91.704150	17.400000
94.276471	-0.400000
96.848084	-0.200000
99.416857	13.600000
101.987057	8.600000
104.554419	-8.200000
107.123206	7.800000
109.689157	-18.800000
112.252273	-2.000000
114.818945	8.800000
117.376396	16.600000
119.939532	-21.800000
122.497708	26.200000
125.059439	4.000000
127.616213	12.000000
130.174414	16.000000
132.727662	37.000000
135.280211	48.000000
137.836311	98.600000
140.387464	107.400000
142.937918	133.800000
145.487675	189.400000
148.034614	196.400000
150.580856	181.800000
153.128524	187.200000
155.675496	198.600000
158.217533	196.200000
160.758876	189.600000
163.299526	229.800000
165.841602	191.800000
168.380866	191.400000
170.917322	211.000000
173.453086	195.000000
175.990276	186.600000
178.526775	197.800000
181.060468	173.000000
183.591358	187.000000
186.121559	183.800000
188.653185	179.400000
191.182010	188.800000
193.708036	209.000000
196.233376	186.400000
198.760142	195.400000
201.284110	176.000000
203.807394	203.000000
206.329993	194.000000
208.849799	188.600000
211.368922	173.800000
213.887362	216.000000
216.407226	200.800000
218.920089	208.000000
221.436483	186.000000
223.952195	205.400000
226.463017	197.200000
228.975265	194.800000
231.484729	222.800000
233.993515	208.000000
236.501623	201.600000
239.011154	201.200000
241.515805	189.600000
244.019780	188.800000
246.525180	194.600000
249.025704	197.200000
251.529751	178.600000
254.026828	199.400000
256.527427	165.000000
259.025255	208.600000
261.522410	207.000000
264.018892	193.800000
266.510511	192.000000
269.005650	193.600000
271.498023	182.600000
273.989725	212.200000
276.478663	205.200000
278.969026	217.400000
281.456626	208.800000
283.941467	224.400000
286.429823	210.200000
288.911239	220.000000
291.396169	198.400000
293.876254	219.600000
296.359851	187.600000
298.838605	169.600000
301.318783	221.800000
303.796208	207.600000
306.272970	228.600000
308.749069	208.400000
311.222419	209.400000
313.695107	218.800000
316.167134	214.800000
318.638500	264.800000
321.107122	265.800000
323.575084	288.200000
326.044468	272.400000
328.509030	251.000000
330.977096	230.400000
333.440342	241.200000
335.902930	243.800000
338.364862	248.400000
340.826137	235.200000
343.284678	212.000000
345.744641	217.200000
348.201871	230.600000
350.658447	217.600000
353.114369	247.600000
355.567562	199.000000
358.022176	208.800000
360.471989	209.400000
362.925298	260.600000
365.373809	228.600000
367.821669	212.200000
370.270950	236.800000
372.715438	206.600000
375.161348	223.400000
377.606609	231.800000
380.049150	208.800000
382.491044	226.400000
384.932291	220.200000
387.370822	202.000000
389.810775	197.600000
392.248014	218.800000
394.682541	212.000000
397.120556	241.800000
399.553794	193.200000
401.988454	233.400000
404.418340	235.600000
406.851712	223.200000
409.280314	216.400000
411.708275	232.800000
414.137656	237.000000
416.562272	229.600000
418.988310	201.400000
421.413707	230.000000
423.838464	219.400000
426.258463	227.600000
428.679883	184.000000
431.098606	248.600000
433.518750	191.400000
435.936199	228.600000
438.355068	227.200000
440.771244	207.600000
443.182673	228.400000
445.597578	233.000000
448.009793	224.000000
450.421374	233.800000
452.832321	242.000000
455.240582	245.800000
457.648210	205.000000
460.055207	234.000000
462.461571	250.200000
464.865253	225.600000
467.268305	235.800000
469.670727	229.200000
472.072519	194.600000
474.471634	215.800000
476.872168	216.600000
479.272073	221.000000
481.667255	243.200000
484.065904	214.400000
486.459833	214.200000
488.853136	225.800000
491.245813	200.600000
493.637865	203.800000
496.031335	217.400000
498.420094	198.600000
500.806186	170.000000
503.193697	166.200000
505.580586	185.000000
507.964811	188.200000
510.350455	172.400000
512.733436	156.800000
515.113757	156.000000
517.495497	162.600000
519.874578	134.200000
522.255078	153.400000
524.632920	151.800000
527.008107	146.000000
529.382676	165.800000
531.758664	135.200000
534.131998	148.600000
536.506750	154.200000
538.876817	120.400000
541.246268	129.000000
543.617137	139.800000
545.983326	146.400000
548.350933	144.400000
550.715894	140.800000
553.080242	121.800000
555.443978	169.600000
557.809130	132.400000
560.169611	158.600000
562.531510	119.800000
564.890768	144.200000
567.247389	123.000000
569.607454	146.200000
571.960828	147.000000
574.317647	133.000000
576.671831	139.200000
579.025407	141.800000
581.378374	148.800000
583.728710	158.600000
586.080462	130.600000
588.425538	102.800000
590.776078	134.400000
593.119944	110.400000
595.469272	113.600000
597.813952	142.400000
600.156006	146.600000
602.499478	126.600000
604.840327	143.400000
607.180574	110.000000
609.518200	112.400000
611.859261	158.000000
614.195684	115.400000
616.533524	137.400000
618.868747	132.800000
621.201354	142.400000
623.535377	108.400000
625.866787	141.200000
628.197598	127.400000
630.527811	118.400000
632.857426	156.600000
635.182419	145.800000
637.512853	129.600000
639.838665	130.000000
642.161871	122.200000
644.486492	119.400000
646.808508	127.200000
649.129931	124.800000
651.448750	110.200000
653.768985	143.000000
656.088627	126.600000
658.405668	113.400000
660.722117	125.800000
663.035968	145.000000
665.351235	147.000000
667.663905	121.000000
669.977990	143.200000
672.287475	117.000000
674.598376	145.800000
676.906684	133.200000
679.214404	114.600000
681.523539	118.800000
683.828081	109.800000
686.132036	137.200000
688.435406	95.600000
690.740190	125.400000
693.040388	111.600000
695.342000	102.600000
697.643028	125.200000
699.939473	124.600000
702.237334	117.600000
704.534611	143.000000
706.831305	133.400000
709.123423	131.600000
711.418952	128.400000
713.709908	134.400000
716.002277	114.000000
718.292072	122.400000
720.581286	139.400000
722.869921	140.000000
725.155984	112.000000
727.443460	116.400000
729.728365	94.400000
732.012693	122.600000
734.294452	119.400000
736.577625	104.600000
738.860221	110.000000
741.138262	121.600000
743.417716	123.200000
745.696595	121.000000
747.974898	125.800000
750.248652	131.400000
752.523820	145.400000
754.798414	129.000000
757.070448	121.200000
759.343896	138.800000
761.614786	135.400000
763.883120	127.800000
766.152867	131.200000
768.420060	120.400000
770.686682	101.800000
772.952734	151.200000
775.216235	140.800000
777.481149	120.200000
779.745493	118.000000
782.005308	125.800000
784.266535	121.000000
786.527195	137.800000
788.785309	131.400000
791.040878	112.600000
793.299838	114.600000
795.552299	149.800000
797.810127	132.200000
800.063435	133.800000
802.314204	113.600000
804.566385	137.600000
806.816028	135.000000
809.067082	141.800000
811.313625	121.600000
813.561580	119.000000
815.807001	132.800000
818.053833	124.600000
820.300104	96.000000
822.541871	140.400000
824.787020	116.000000
827.025697	134.800000
829.267756	87.200000
831.505317	149.000000
833.744290	138.000000
835.980736	122.200000
838.218593	111.200000
840.453925	100.000000
842.686734	127.600000
844.920954	126.800000
847.152652	105.600000
849.383794	146.000000
851.614383	149.000000
853.844416	159.400000
856.073896	102.800000
858.298894	108.600000
860.527267	128.800000
862.751161	134.000000
864.976465	117.400000
867.197294	123.000000
869.421495	118.200000
871.641223	120.800000
873.862362	124.200000
876.082950	117.600000
878.301028	108.800000
880.520516	156.600000
882.735538	114.400000
884.950013	125.000000
887.163939	131.800000
889.377319	109.200000
891.590151	101.400000
893.802437	142.000000
896.012220	121.600000
898.221458	135.200000
900.430151	117.800000
902.636345	114.200000
904.843948	106.000000
907.049053	131.200000
909.253615	105.400000
911.455682	134.800000
913.659158	132.800000
915.860140	115.800000
918.060581	103.800000
920.262429	113.400000
922.457887	112.400000
924.656704	127.400000
926.851082	142.000000
929.048818	126.000000
931.242118	118.000000
933.436827	118.600000
935.629050	130.000000
937.820735	136.400000
940.011882	128.400000
942.200546	126.200000
944.388673	120.400000
946.574320	129.800000
948.763319	118.200000
950.947895	133.400000
953.131936	138.800000
955.319327	138.200000
957.498414	130.400000
959.680852	164.400000
961.862756	91.200000
964.042186	153.600000
966.219142	131.000000
968.397507	150.200000
970.577279	129.400000
972.750702	149.200000
974.927471	112.200000
977.099833	143.600000
979.273603	145.000000
981.442969	162.600000
983.615679	127.600000
985.785924	143.600000
987.955640	164.600000
990.124827	157.800000
992.289617	124.800000
994.457748	169.000000
996.621485	167.600000
998.786628	168.600000
1000.949312	157.000000
1003.111471	163.200000
1005.271173	185.400000
1007.430351	179.200000
1009.590935	141.000000
1011.749064	177.200000
1013.906669	155.400000
1016.063751	121.800000
1018.220310	155.000000
1020.372489	169.800000
1022.526074	155.200000
1024.679138	166.200000
1026.829754	146.600000
1028.981775	174.400000
1031.129423	180.400000
1033.280403	169.000000
1035.427012	202.400000
1037.573103	155.800000
1039.718674	169.200000
1041.865651	164.800000
1044.006339	183.800000
1046.150357	178.600000
1048.291934	153.200000
1050.432995	176.800000
1052.575460	162.000000
1054.711646	181.800000
1056.851158	170.600000
1058.986314	166.200000
1061.124795	175.000000
1063.258922	204.800000
1065.392536	156.200000
1067.527555	169.600000
1069.658224	167.000000
1071.790298	177.600000
1073.919943	177.600000
1076.049076	181.600000
1078.177697	158.200000
1080.305807	210.800000
1082.431491	150.000000
1084.556665	189.800000
1086.683243	175.000000
1088.805483	157.200000
1090.929128	162.400000
1093.048439	174.600000
1095.172978	156.400000
1097.291272	180.200000
1099.410971	145.000000
1101.528251	147.800000
1103.645025	160.600000
1105.761292	163.000000
1107.875144	146.000000
1109.990399	135.800000
1112.101331	145.200000
1114.215576	146.200000
1116.325500	141.400000
1118.436828	151.400000
1120.547651	151.600000
1122.654158	149.000000
1124.763975	146.600000
1126.869477	142.400000
1128.976382	154.400000
1131.077072	149.600000
1133.182974	176.200000
1135.284567	148.400000
1137.387563	139.000000
1139.490058	142.800000
1141.586346	143.200000
1143.687842	158.600000
1145.785034	148.400000
1147.881729	135.800000
1149.977925	149.200000
1152.073624	162.000000
1154.168824	139.400000
1156.261629	144.400000
1158.355835	143.000000
1160.443850	142.600000
1162.537063	174.800000
1164.624088	153.400000
1166.714412	129.000000
1168.800449	145.600000
1170.889783	161.200000
1172.972936	148.800000
1175.057491	144.200000
1177.143448	131.000000
1179.225123	152.200000
1181.308200	127.600000
1183.388891	126.600000
1185.469090	145.000000
1187.548798	130.800000
1189.628015	143.600000
1191.704850	146.400000
1193.779304	166.200000
1195.857049	135.800000
1197.930525	157.200000
1200.005401	136.800000
1202.076010	168.400000
1204.148021	169.000000
1206.217655	144.000000
1208.288690	134.000000
1210.359237	140.000000
1212.425523	176.800000
1214.493210	177.200000
1216.558525	132.200000
1218.625240	155.000000
1220.687699	156.200000
1222.753443	145.800000
1224.814934	144.200000
1226.877824	144.200000
1228.938347	154.000000
1230.998386	139.200000
1233.057943	144.400000
1235.115134	124.200000
1237.171844	156.200000
1239.226191	155.400000
1241.283818	137.400000
1243.339083	165.600000
1245.390107	153.000000
1247.442531	138.200000
1249.494475	145.800000
1251.544061	130.800000
1253.593168	138.400000
1255.641797	141.400000
1257.689947	134.800000
1259.737618	159.200000
1261.781060	163.800000
1263.827776	138.200000
1265.872139	168.600000
1267.916026	146.800000
1269.957561	180.000000
1271.996747	121.600000
1274.039206	144.600000
1276.077442	152.200000
1278.117077	165.000000
1280.156237	177.000000
1282.191178	137.800000
1284.227518	157.400000
1286.261514	165.200000
1288.296908	162.600000
1290.328088	163.200000
1292.360666	171.600000
1294.392773	194.200000
1296.422539	151.400000
1298.453703	162.200000
1300.480659	185.600000
1302.509013	187.600000
1304.533163	189.200000
1306.560577	150.400000
1308.583789	206.200000
1310.608399	171.400000
1312.630675	201.400000
1314.654348	178.200000
1316.675688	192.600000
1318.696560	188.600000
1320.716965	184.600000
1322.733177	212.600000
1324.750786	218.800000
1326.766067	197.600000
1328.784607	227.200000
1330.798958	212.600000
1332.810983	224.400000
1334.826265	205.000000
1336.837362	218.400000
1338.849856	193.600000
1340.858167	249.800000
1342.869734	221.400000
1344.875261	220.600000
1346.884044	211.800000
1348.888649	234.200000
1350.896508	218.400000
1352.903905	232.600000
1354.905271	196.200000
1356.908034	205.000000
1358.910336	184.000000
1360.912179	180.400000
1362.913562	186.800000
1364.912632	195.200000
1366.911243	169.600000
1368.909396	215.400000
1370.907090	155.000000
1372.900622	203.400000
1374.895550	154.600000
1376.890020	151.200000
1378.884035	172.600000
1380.875741	161.800000
1382.866993	168.800000
1384.855939	163.600000
1386.846280	151.400000
1388.836166	162.600000
1390.823749	152.400000
1392.810877	199.200000
1394.795704	149.000000
1396.781926	163.200000
1398.765848	123.600000
1400.749317	174.600000
1402.732333	144.200000
1404.713052	165.000000
1406.695165	139.800000
1408.674982	170.000000
1410.654347	152.400000
1412.629574	172.200000
1414.608040	176.200000
1416.584211	161.000000
1418.559934	135.600000
1420.535207	139.400000
1422.508189	152.400000
1424.480723	178.400000
1426.452809	148.000000
1428.424448	145.000000
1430.391958	147.200000
1432.364542	155.800000
1434.329321	148.000000
1436.299171	160.600000
1438.264898	146.800000
1440.232017	155.600000
1442.196853	142.400000
1444.157569	138.400000
1446.123354	154.600000
1448.083183	183.800000
1450.044405	138.800000
1452.007020	160.600000
1453.965520	157.800000
1455.923577	159.200000
1457.881193	172.600000
1459.838367	158.600000
1461.793265	155.400000
1463.749555	169.600000
1465.703571	141.800000
1467.657147	170.400000
1469.608450	163.800000
1471.561145	159.400000
1473.511569	168.000000
1475.461553	164.200000
1477.411099	129.000000
1479.358376	161.800000
1481.303386	154.600000
1483.249787	176.000000
1485.195751	178.600000
1487.141278	159.200000
1489.084540	156.200000
1491.027365	171.400000
1492.967927	181.200000
1494.909880	166.400000
1496.849571	178.400000
1498.788828	172.000000
1500.727649	157.200000
1502.664211	163.200000
1504.602164	173.800000
1506.537858	175.000000
1508.473119	162.000000
1510.406124	180.600000
1512.338696	159.800000
1514.270836	200.800000
1516.202544	166.000000
1518.131998	177.200000
1520.062843	164.400000
1521.993256	188.200000
1523.919597	179.600000
1525.847329	192.200000
1527.772810	200.000000
1529.697862	224.200000
1531.622485	184.200000
1533.546679	215.600000
1535.468625	209.200000
1537.391962	253.400000
1539.313053	226.600000
1541.231899	255.200000
1543.152134	271.600000
1545.070127	274.800000
1546.987693	299.800000
1548.903017	330.600000
1550.819731	331.600000
1552.732390	402.800000
1554.648253	452.000000
1556.561876	518.000000
1558.473262	603.400000
1560.386036	716.600000
1562.294761	778.800000
1564.204875	884.600000
1566.114566	904.000000
1568.023834	966.600000
1569.930868	895.800000
1571.835669	894.200000
1573.741859	815.200000
1575.645817	705.600000
1577.549354	634.200000
1579.452471	562.800000
1581.353358	486.200000
1583.255634	418.800000
1585.155682	384.200000
1587.057117	353.800000
1588.954519	331.000000
1590.851502	310.600000
1592.748067	315.600000
1594.646020	285.800000
1596.538138	262.600000
1598.433449	252.000000
1600.328343	242.600000
1602.221015	229.400000
1604.113271	229.200000
1606.003306	220.800000
1607.892927	215.000000
1609.782131	228.600000
1611.670921	214.000000
1613.557493	215.400000
1615.445453	213.400000
1617.329396	195.000000
1619.214727	158.800000
1621.099643	205.200000
1622.982346	180.200000
1624.866436	204.200000
1626.746515	144.200000
1628.627980	151.600000
1630.507235	147.800000
1632.387876	165.200000
1634.262713	158.600000
1636.142531	146.400000
1638.018345	158.400000
1639.893748	160.000000
1641.770537	144.800000
1643.641530	147.600000
1645.515704	157.600000
1647.385880	153.800000
1649.259236	131.200000
1651.130389	163.000000
1652.999340	138.800000
1654.869677	123.600000
1656.736020	118.400000
1658.603749	135.800000
1660.469279	147.800000
1662.336195	145.400000
1664.199122	126.800000
1666.063434	120.600000
1667.925550	121.000000
1669.787262	156.600000
1671.650358	119.200000
1673.511260	120.200000
1675.369968	158.200000
1677.228273	136.600000
1679.087963	131.600000
1680.941885	108.600000
1682.798981	119.600000
1684.655674	134.800000
1686.508391	122.000000
1688.364278	139.000000
1690.216192	117.600000
1692.067705	105.800000
1693.918817	127.000000
1695.769529	123.200000
1697.619840	124.200000
1699.467966	140.600000
1701.317477	133.000000
1703.161239	135.400000
1705.009950	118.200000
1706.852916	144.400000
1708.699047	112.000000
1710.541216	128.200000
1712.386551	116.200000
1714.226145	126.800000
1716.067123	120.800000
1717.909484	145.800000
1719.747889	142.200000
1721.587677	119.200000
1723.425290	108.200000
1725.262507	125.200000
1727.097551	149.800000
1728.933978	132.600000
1730.768233	106.400000
1732.602093	139.000000
1734.435560	122.800000
1736.265080	107.200000
1738.097759	138.800000
1739.926494	131.200000
1741.758386	133.800000
1743.586337	127.200000
1745.413895	101.200000
1747.241061	140.200000
1749.067836	111.800000
1750.894220	119.200000
1752.716666	119.800000
1754.542268	154.800000
1756.363935	109.000000
1758.186984	120.400000
1760.007871	107.000000
1761.828370	121.200000
1763.650250	126.400000
1765.466430	133.400000
1767.285762	109.400000
1769.101167	138.800000
1770.919722	119.200000
1772.734352	132.800000
1774.548596	112.200000
1776.362452	124.000000
1778.175922	111.800000
1779.987239	124.400000
1781.799937	106.200000
1783.612248	129.200000
1785.420642	138.000000
1787.230416	123.600000
1789.036276	115.400000
1790.845281	110.000000
1792.650373	121.200000
1794.456846	118.600000
1796.262935	111.400000
1798.065114	121.000000
1799.870436	105.000000
1801.671850	129.000000
1803.474644	111.600000
1805.273532	110.800000
1807.073801	107.000000
1808.873688	120.000000
1810.671434	121.000000
1812.468798	104.600000
1814.265783	108.600000
1816.062387	123.600000
1817.856852	78.200000
1819.652696	103.800000
1821.442886	106.200000
1823.237971	126.600000
1825.027405	89.600000
1826.819975	109.400000
1828.610410	123.800000
1830.398711	111.600000
1832.190147	116.000000
1833.975937	119.600000
1835.763107	102.200000
1837.548145	123.800000
1839.336317	104.800000
1841.120603	120.000000
1842.902760	123.000000
1844.686295	115.000000
1846.467702	112.400000
1848.250488	104.400000
1850.029393	100.200000
1851.809678	131.200000
1853.587836	101.400000
1855.367373	99.400000
1857.144785	121.200000
1858.920073	106.400000
1860.696739	111.400000
1862.471283	104.000000
1864.247205	107.000000
1866.017506	136.800000
1867.790935	94.400000
1869.562244	115.600000
1871.333183	122.200000
1873.105498	123.400000
1874.872200	117.800000
1876.642028	124.200000
1878.407992	103.600000
1880.177079	109.000000
1881.942306	98.400000
1883.707163	130.200000
1885.473398	118.400000
1887.235774	117.800000
1888.997783	120.400000
1890.759424	125.600000
1892.520699	108.600000
1894.281606	130.400000
1896.042147	101.600000
1897.800578	112.600000
1899.558644	78.000000
1901.314601	114.800000
1903.071935	95.800000
1904.828904	120.600000
1906.583767	105.600000
1908.336524	131.800000
1910.088918	94.200000
1911.842687	117.000000
1913.594353	103.000000
1915.343917	129.600000
1917.094856	123.000000
1918.845433	120.000000
1920.592170	97.000000
1922.340284	114.200000
1924.086298	102.200000
1925.833688	115.800000
1927.578979	84.600000
1929.322173	131.200000
1931.066742	106.800000
1932.809216	118.000000
1934.551329	120.800000
1936.293082	93.200000
1938.034476	125.600000
1939.773775	137.600000
1941.512716	87.600000
1943.251298	119.400000
1944.987789	121.600000
1946.723922	117.200000
1948.461429	112.800000
1950.195114	127.000000
1951.930174	127.200000
1953.663146	110.600000
1955.395760	111.600000
1957.128019	133.800000
1958.859921	133.800000
1960.589737	136.000000
1962.317468	101.400000
1964.046574	110.800000
1965.775325	102.000000
1967.501992	119.800000
1969.228305	107.000000
1970.955991	115.000000
1972.678141	98.000000
1974.403392	106.000000
1976.124837	114.400000
1977.849381	118.000000
1979.571846	108.000000
1981.290507	115.000000
1983.012267	108.000000
1984.730225	100.400000
1986.449556	86.600000
1988.165088	133.400000
1989.885440	76.400000
1991.601994	129.400000
1993.314751	125.400000
1995.030605	119.000000
1996.744385	122.000000
1998.457816	124.800000
2000.169176	112.400000
2001.881908	106.200000
2003.590850	123.200000
2005.302885	112.000000
2007.009410	94.600000
2008.719028	134.600000
2010.426578	96.200000
2012.133781	129.800000
2013.838918	121.400000
2015.543708	114.000000
2017.249870	115.600000
2018.952250	99.400000
2020.656002	106.000000
2022.357690	98.000000
2024.059034	119.200000
2025.760032	104.200000
2027.458969	127.600000
2029.159278	113.600000
2030.855812	127.600000
2032.553717	103.000000
2034.249563	110.600000
2035.948495	101.000000
2037.641941	115.000000
2039.336758	109.000000
2041.031233	98.800000
2042.721939	126.800000
2044.415729	114.800000
2046.105752	140.600000
2047.797146	104.600000
2049.486487	102.800000
2051.177198	124.800000
2052.864146	107.400000
2054.550755	93.000000
2056.238734	108.800000
2057.922952	83.600000
2059.608542	107.200000
2061.293792	78.600000
2062.976994	117.400000
2064.661565	129.200000
2066.340674	144.800000
2068.024568	109.800000
2069.703002	113.000000
2071.384512	110.600000
2073.062272	108.200000
2074.739694	92.000000
2076.418486	113.200000
2078.095236	95.800000
2079.769944	96.200000
2081.446021	127.800000
2083.120058	115.400000
2084.793759	108.600000
2086.467125	106.800000
2088.138453	122.200000
2089.809446	112.000000
2091.480105	109.400000
2093.150429	101.200000
2094.820420	114.200000
2096.488375	105.400000
2098.155997	84.600000
2099.821584	130.200000
2101.488540	100.800000
2103.153463	104.200000
2104.818054	128.800000
2106.480613	104.600000
2108.144540	90.600000
2109.806437	80.000000
2111.468002	120.600000
2113.129236	110.200000
2114.788442	113.200000
2116.447317	126.600000
2118.105863	116.600000
2119.764079	121.600000
2121.418571	116.400000
2123.076128	109.000000
2124.733356	101.600000
2126.386862	97.400000
2128.041736	105.000000
2129.692892	116.600000
2131.347109	128.200000
2132.997610	114.800000
2134.649477	107.400000
2136.295936	107.200000
2137.947150	77.000000
2139.594650	134.000000
2141.243517	126.600000
2142.890366	119.400000
2144.536888	100.400000
2146.183085	112.400000
2147.825574	107.200000
2149.471121	136.400000
2151.112961	118.000000
2152.757858	116.400000
2154.399050	111.600000
2156.039918	128.400000
2157.680462	103.400000
2159.318994	115.200000
2160.958892	122.400000
2162.595090	98.600000
2164.232655	116.000000
2165.869896	118.600000
2167.505128	108.000000
2169.140039	120.600000
2170.774628	92.800000
2172.408895	133.800000
2174.039469	93.000000
2175.673095	92.600000
2177.303029	91.800000
2178.934328	121.200000
2180.563622	97.200000
2182.192597	111.400000
2183.821252	109.400000
2185.449588	127.600000
2187.075922	109.600000
2188.701937	135.200000
2190.325951	99.200000
2191.951329	124.400000
2193.574708	110.200000
2195.199450	114.000000
2196.820512	121.200000
2198.441257	124.000000
2200.063367	95.600000
2201.683479	95.400000
2203.301594	112.600000
2204.919394	117.800000
2206.536879	82.600000
2208.154048	127.800000
2209.770902	92.000000
2211.387441	118.200000
2213.001986	82.000000
2214.614539	103.800000
2216.228456	100.200000
2217.840382	124.800000
2219.453671	98.600000
2221.064970	112.800000
2222.674279	119.800000
2224.284952	115.000000
2225.893636	108.800000
2227.502008	126.800000
2229.108392	139.400000
2230.716140	99.600000
2232.321901	120.400000
2233.927351	104.200000
2235.530816	113.200000
2237.135644	116.600000
2238.738488	92.200000
2240.339350	97.000000
2241.941573	101.600000
2243.541815	114.000000
2245.143419	102.600000
2246.741371	113.600000
2248.340685	87.400000
2249.938019	99.400000
2251.535044	115.200000
2253.133432	108.400000
2254.728171	110.000000
2256.320933	111.800000
2257.915058	105.800000
2259.510544	110.400000
2261.102386	103.200000
2262.693921	111.000000
2264.286817	97.600000
2265.874404	106.000000
2267.466688	92.000000
2269.053664	126.800000
2270.643669	98.400000
2272.228369	101.400000
2273.817762	105.200000
2275.401854	102.200000
2276.987307	113.000000
2278.570790	105.400000
2280.157300	79.600000
2281.740175	97.600000
2283.322748	108.200000
2284.905017	114.000000
2286.483657	96.800000
2288.065320	93.000000
2289.643355	103.800000
2291.224413	103.800000
2292.801844	104.100000
2294.377312	104.400000
2295.955802	93.800000
2297.530668	117.200000
2299.105233	114.400000
2300.679498	116.800000
2302.253462	110.200000
2303.827126	130.800000
2305.400489	86.000000
2306.970234	93.000000
2308.539680	93.600000
2310.112144	119.800000
2311.679334	100.800000
2313.249542	109.000000
2314.816135	113.000000
2316.384088	106.600000
2317.950085	96.800000
2319.515785	106.400000
2321.081188	119.600000
2322.644636	131.200000
2324.209444	113.800000
2325.770644	125.800000
2327.334858	130.000000
2328.893810	119.000000
2330.455777	100.000000
2332.015793	123.000000
2333.575513	117.600000
2335.133284	99.800000
2336.690760	82.600000
2338.247942	124.000000
2339.803176	111.600000
2341.358117	118.400000
2342.912764	74.400000
2344.467116	98.600000
2346.021176	95.000000
2347.574941	108.600000
2349.126763	75.200000
2350.676641	106.600000
2352.229527	104.600000
2353.777171	114.600000
2355.327822	115.800000
2356.874882	98.400000
2358.423301	99.400000
2359.971427	75.800000
2361.515965	127.200000
2363.061861	95.200000
2364.605819	107.800000
2366.151134	100.200000
2367.692864	119.000000
2369.235951	112.600000
2370.777102	119.200000
2372.317965	102.400000
2373.858537	86.600000
2375.398821	104.200000
2376.938816	108.800000
2378.475233	91.400000
2380.014651	91.800000
2381.550492	124.600000
2383.087689	119.400000
2384.621311	79.200000
2386.157934	116.000000
2387.692625	115.800000
2389.225387	90.800000
2390.757862	109.000000
2392.288409	82.000000
2393.821954	112.800000
2395.350288	110.400000
2396.879979	140.600000
2398.409384	102.000000
2399.938503	99.400000
2401.467338	72.200000
2402.990967	129.600000
2404.519233	84.600000
2406.042295	113.400000
2407.569991	114.800000
2409.090848	129.400000
2410.616338	100.400000
2412.138267	140.400000
2413.661552	109.600000
2415.182916	136.200000
2416.702360	118.000000
2418.223159	103.400000
2419.742039	117.800000
2421.260637	124.800000
2422.777318	128.400000
2424.295353	127.400000
2425.813107	111.400000
2427.327310	119.200000
2428.841232	105.000000
2430.354874	108.600000
2431.869871	111.600000
2433.381319	115.000000
2434.894122	117.600000
2436.405011	130.400000
2437.915622	117.200000
2439.424321	96.400000
2440.936006	100.800000
2442.444148	142.400000
2443.952012	117.000000
2445.459598	113.200000
2446.963643	115.000000
2448.470674	121.000000
2449.975796	115.200000
2451.480641	126.200000
2452.983578	106.400000
2454.486240	112.800000
2455.988625	123.800000
2457.489105	125.200000
2458.990938	87.400000
2460.490867	136.800000
2461.990520	100.800000
2463.489897	107.600000
2464.987372	132.800000
2466.482945	115.200000
2467.981498	102.200000
2469.476523	106.400000
2470.972900	99.800000
2472.465751	97.200000
2473.959955	114.000000
2475.453885	116.000000
2476.944291	115.400000
2478.437675	128.800000
2479.929161	94.200000
2481.418750	118.400000
2482.908067	108.400000
2484.395489	96.000000
2485.885886	78.200000
2487.372764	108.400000
2488.860994	95.600000
2490.345708	120.400000
2491.830151	80.200000
2493.315946	114.200000
2494.799848	118.400000
2496.285102	118.200000
2497.765221	103.600000
2499.248314	106.800000
2500.729516	81.000000
2502.210449	120.000000
2503.689493	100.200000
2505.168268	117.000000
2506.646775	100.800000
2508.125014	105.400000
2509.602984	115.800000
2511.077449	103.600000
2512.554884	126.600000
2514.028815	113.800000
2515.504096	77.200000
2516.979111	111.800000
2518.450624	89.400000
2519.923487	80.800000
2521.394468	98.800000
2522.866799	121.400000
2524.334017	101.000000
2525.804200	131.000000
2527.272503	102.400000
2528.740541	112.400000
2530.208314	97.800000
2531.675822	87.600000
2533.143065	91.200000
2534.606816	96.000000
2536.071917	151.800000
2537.535141	106.400000
2538.999715	91.600000
2540.460799	99.200000
2541.923233	77.600000
2543.385404	132.800000
2544.844089	106.400000
2546.307346	122.400000
2547.765506	99.200000
2549.225015	114.400000
2550.679430	110.800000
2552.138416	103.200000
2553.595530	107.800000
2555.050773	125.600000
2556.505755	96.600000
2557.958867	95.400000
2559.413328	109.400000
2560.865920	114.600000
2562.318252	119.200000
2563.768716	122.000000
2565.222136	130.400000
2566.670474	109.800000
2568.121768	103.400000
2569.571195	108.800000
2571.017150	110.800000
2572.466060	145.000000
2573.911500	95.600000
2575.358288	121.600000
2576.803212	82.800000
2578.247878	108.000000
2579.693893	129.200000
2581.136440	116.000000
2582.580335	118.400000
2584.020765	132.400000
2585.462542	129.000000
2586.902460	120.800000
2588.343725	109.800000
2589.781529	133.200000
2591.222282	120.200000
2592.657972	150.400000
2594.096612	117.000000
2595.533394	105.000000
2596.968321	113.400000
2598.406195	105.800000
2599.839012	120.600000
2601.273176	135.600000
2602.705486	106.600000
2604.139142	110.400000
2605.570945	111.200000
2607.002494	135.600000
2608.433791	119.800000
2609.863235	147.200000
2611.292427	134.400000
2612.719769	148.400000
2614.148456	116.400000
2615.576892	160.800000
2617.001880	139.800000
2618.428215	144.000000
2619.852701	147.000000
2621.278533	123.400000
2622.700921	161.800000
2624.124655	148.200000
2625.546542	113.800000
2626.968180	164.400000
2628.387972	160.200000
2629.809110	150.800000
2631.229998	145.200000
2632.647448	161.800000
2634.067837	170.400000
2635.484789	160.200000
2636.901492	169.200000
2638.317948	188.200000
2639.734154	158.600000
2641.150113	195.600000
2642.564231	174.800000
2643.978102	195.800000
2645.390133	193.600000
2646.803509	179.200000
2648.213455	189.800000
2649.626336	208.800000
2651.035789	191.400000
2652.444996	196.400000
2653.852367	203.800000
2655.262673	189.600000
2656.671142	207.200000
2658.077776	221.400000
2659.484165	219.600000
2660.888720	235.400000
2662.294619	237.600000
2663.698685	230.000000
2665.102506	230.000000
2666.506084	220.200000
2667.907829	244.600000
2669.310918	258.600000
2670.710589	236.800000
2672.111604	237.600000
2673.509203	226.600000
2674.909732	242.000000
2676.306846	265.200000
2677.705303	272.800000
2679.101932	241.200000
2680.498319	273.200000
2681.894465	258.200000
2683.288784	275.400000
2684.684446	265.800000
2686.076698	274.200000
2687.470293	266.800000
2688.862065	282.000000
2690.255178	270.000000
2691.646468	265.400000
2693.035935	261.000000
2694.425162	265.200000
2695.814150	263.800000
2697.204480	247.000000
2698.589825	220.200000
2699.978094	229.800000
2701.364543	228.200000
2702.750753	239.400000
2704.136725	256.400000
2705.519297	217.600000
2706.903212	223.600000
2708.286889	253.800000
2709.670328	200.000000
2711.050371	227.200000
2712.431756	190.200000
2713.811325	206.200000
2715.192236	202.200000
2716.571331	207.200000
2717.948613	181.800000
2719.327236	200.200000
2720.704046	179.800000
2722.080620	181.000000
2723.456958	166.600000
2724.831484	174.000000
2726.207351	169.600000
2727.579831	172.000000
2728.955227	137.800000
2730.325663	166.400000
2731.697440	160.800000
2733.068982	140.000000
2734.438716	131.800000
2735.809791	127.000000
2737.179057	113.000000
2738.548090	143.000000
2739.915317	128.000000
2741.282311	130.800000
2742.649072	135.600000
2744.015600	128.600000
2745.380323	111.400000
2746.744815	117.400000
2748.109074	111.600000
2749.473101	149.200000
2750.836897	103.000000
2752.197319	133.600000
2753.560652	105.200000
2754.919042	129.000000
2756.280342	116.200000
2757.638271	127.400000
2758.999109	115.000000
2760.358148	111.600000
2761.713818	101.200000
2763.072396	124.600000
2764.427607	111.000000
2765.782590	109.000000
2767.135775	110.600000
2768.491867	100.400000
2769.844594	101.800000
2771.197094	118.200000
2772.549365	105.800000
2773.902975	117.000000
2775.253223	106.600000
2776.601678	88.600000
2777.953037	102.600000
2779.301037	103.800000
2780.650375	107.200000
2781.997922	101.600000
2783.345241	60.800000
2784.692334	88.000000
2786.037636	100.600000
2787.382712	135.400000
2788.727561	86.000000
2790.072185	95.000000
2791.413457	97.800000
2792.756067	77.600000
2794.098451	93.400000
2795.440611	99.000000
2796.779421	108.000000
2798.121130	112.600000
2799.459492	77.200000
2800.799191	120.800000
2802.137104	66.200000
2803.473233	111.600000
2804.809138	80.800000
2806.146381	106.000000
2807.481840	101.600000
2808.817076	92.000000
2810.150529	81.000000
2811.485320	92.200000
2812.816769	91.000000
2814.151114	115.200000
2815.480561	95.800000
2816.811345	101.400000
2818.141907	104.000000
2819.470690	99.600000
2820.800809	96.800000
2822.129150	89.200000
2823.457270	78.400000
2824.783612	92.000000
2826.111291	98.000000
2827.435636	101.600000
2828.761318	68.600000
2830.085224	112.400000
2831.408911	103.200000
2832.733933	83.200000
2834.055625	64.800000
2835.377099	87.800000
2836.698354	82.800000
2838.019390	87.200000
2839.338654	71.000000
2840.659253	92.200000
2841.978080	60.600000
2843.296689	85.000000
2844.613527	70.000000
2845.930148	84.800000
2847.246552	89.200000
2848.561186	77.000000
2849.877156	91.400000
2851.189805	103.200000
2852.503790	73.200000
2853.817557	73.200000
2855.131109	55.200000
2856.442893	94.800000
2857.752911	87.800000
2859.064264	85.600000
2860.372302	69.200000
2861.681674	81.800000
2862.990832	70.400000
2864.299774	79.400000
2865.606952	101.600000
2866.912368	79.600000
2868.219118	95.600000
2869.524105	73.400000
2870.828879	73.400000
2872.131891	73.200000
2873.437785	99.000000
2874.738823	105.400000
2876.041196	94.200000
2877.341809	82.200000
2878.643756	107.800000
2879.945490	85.200000
2881.243919	83.400000
2882.543682	85.000000
2883.841688	66.800000
2885.139482	86.000000
2886.435520	79.800000
2887.732891	89.600000
2889.028506	70.400000
2890.323910	105.200000
2891.619103	88.800000
2892.910999	107.400000
2894.205771	81.800000
2895.497246	99.600000
2896.790054	72.600000
2898.082652	94.200000
2899.371956	78.200000
2900.662592	102.400000
2901.951477	61.200000
2903.241695	78.400000
2904.528620	80.600000
2905.816879	73.600000
2907.103387	69.600000
2908.389688	75.800000
2909.675780	76.400000
2910.960124	94.000000
2912.247339	92.800000
2913.529728	81.400000
2914.813449	57.600000
2916.095424	95.200000
2917.377191	98.000000
2918.657214	80.200000
2919.940106	88.800000
2921.221253	79.800000
2922.499118	101.800000
2923.779852	98.000000
2925.057305	64.400000
2926.334552	84.800000
2927.610058	85.800000
2928.888431	113.000000
2930.161989	74.200000
2931.438415	99.000000
2932.713100	103.400000
2933.986045	74.000000
2935.260320	72.400000
2936.532856	78.800000
2937.805188	85.600000
2939.074246	71.600000
2940.346170	93.800000
2941.616356	99.000000
2942.886339	73.600000
2944.156118	104.800000
2945.424160	74.600000
2946.690467	61.800000
2947.956571	86.800000
2949.224005	86.200000
2950.489705	78.400000
2951.755202	100.000000
2953.020497	97.000000
2954.282527	72.200000
2955.545888	79.000000
2956.809046	89.400000
2958.070473	82.600000
2959.333229	108.400000
2960.594254	110.800000
2961.853547	99.400000
2963.112641	92.200000
2964.371534	75.800000
2965.630227	96.800000
2966.888720	84.400000
2968.145484	76.200000
2969.402048	90.600000
2970.656885	68.400000
2971.913050	87.800000
2973.165961	70.000000
2974.420201	92.200000
2975.674242	62.000000
2976.926557	97.200000
2978.178673	75.400000
2979.429065	83.200000
2980.682312	76.000000
2981.930782	85.000000
2983.182107	55.000000
2984.430182	75.600000
2985.678061	63.200000
2986.925742	72.600000
2988.173227	70.200000
2989.418989	66.800000
2990.664556	88.600000
2991.911450	91.400000
2993.155100	90.600000
2994.400078	78.600000
2995.641812	93.200000
2996.886398	87.400000
2998.129265	74.800000
2999.368891	74.400000
3000.611367	85.400000
3001.850604	95.400000
3003.091167	83.000000
3004.330015	77.200000
3005.568667	44.800000
3006.805605	76.800000
3008.043869	67.600000
3009.280419	86.400000
3010.516774	63.800000
3011.752936	78.400000
3012.987385	69.000000
3014.221640	76.400000
3015.455702	54.600000
3016.688052	84.000000
3017.918690	43.200000
3019.152174	81.200000
3020.383946	51.400000
3021.614008	62.000000
3022.843878	45.800000
3024.072038	75.200000
3025.301524	48.200000
3026.529302	101.200000
3027.756888	77.200000
3028.985800	72.600000
3030.209970	62.600000
3031.436983	64.200000
3032.660772	71.800000
3033.885888	78.200000
3035.109297	75.200000
3036.332516	68.000000
3037.554030	69.800000
3038.778385	58.400000
3039.998005	80.600000
3041.218951	67.800000
3042.439708	81.800000
3043.658761	80.200000
3044.879140	68.800000
3046.096302	71.800000
3047.314789	65.800000
3048.531574	68.000000
3049.748172	76.200000
3050.964581	85.400000
3052.177778	83.400000
3053.393812	82.600000
3054.606634	54.400000
3055.822293	68.800000
3057.033229	55.400000
3058.245490	78.200000
3059.457565	68.400000
3060.669453	80.000000
3061.879643	64.200000
3063.089647	77.400000
3064.299465	62.000000
3065.507588	70.000000
3066.715524	59.400000
3067.921765	76.000000
3069.129331	75.000000
3070.335202	63.200000
3071.540889	51.400000
3072.746390	73.200000
3073.950198	58.000000
3075.155330	64.400000
3076.358770	58.800000
3077.560517	65.600000
3078.762081	60.600000
3079.963460	88.400000
3081.164657	59.400000
3082.364162	41.400000
3083.563485	89.200000
3084.764131	85.400000
3085.963087	104.400000
3087.158849	91.000000
3088.357440	66.000000
3089.552837	96.200000
3090.749557	58.400000
3091.943085	68.600000
3093.139441	54.800000
3094.334111	78.800000
3095.525590	65.400000
3096.721400	69.400000
3097.912517	69.400000
3099.104956	75.400000
3100.294208	68.400000
3101.486286	61.400000
3102.676679	69.200000
3103.863887	74.000000
3105.052418	62.200000
3106.242270	59.200000
3107.428939	67.800000
3108.615428	59.200000
3109.801737	70.000000
3110.989368	72.000000
3112.173818	53.400000
3113.356587	64.600000
3114.542179	59.800000
3115.726092	94.600000
3116.908326	49.000000
3118.090381	64.600000
3119.272259	89.000000
3120.453958	73.600000
3121.633979	41.600000
3122.812324	51.000000
3123.993489	55.800000
3125.171480	82.800000
3126.349293	38.600000
3127.526929	70.800000
3128.702890	49.000000
3129.878674	75.200000
3131.055780	82.800000
3132.231211	67.600000
3133.404969	69.400000
3134.577055	109.800000
3135.750461	46.400000
3136.923691	84.600000
3138.095250	57.000000
3139.268129	93.400000
3140.437842	61.000000
3141.608874	63.600000
3142.778237	71.200000
3143.945930	79.200000
3145.116438	58.000000
3146.282287	78.600000
3147.452446	59.800000
3148.617947	66.000000
3149.783275	51.000000
3150.948429	85.600000
3152.113409	86.800000
3153.279709	76.600000
3154.441357	60.200000
3155.604324	71.000000
3156.767119	62.000000
3157.929741	84.600000
3159.090698	75.400000
3160.251482	72.200000
3161.412094	51.200000
3162.571042	61.200000
3163.729819	42.800000
3164.888424	43.000000
3166.046857	40.000000
3167.205118	74.600000
3168.361717	35.400000
3169.516655	56.200000
3170.672912	52.000000
3171.827508	73.400000
3172.981934	38.200000
3174.134700	87.200000
3175.287296	57.200000
3176.439721	65.800000
3177.591977	60.800000
3178.744062	65.600000
3179.893002	56.600000
3181.044748	73.000000
3182.194836	75.400000
3183.343268	73.600000
3184.491531	63.600000
3185.639624	68.600000
3186.787549	59.000000
3187.933819	33.800000
3189.079920	45.000000
3190.224366	63.000000
3191.368645	50.400000
3192.512756	65.000000
3193.658184	57.600000
3194.800474	36.200000
3195.942597	45.800000
3197.084552	78.000000
3198.226341	44.000000
3199.367962	66.400000
3200.506447	57.800000
3201.646250	69.600000
3202.787371	72.400000
3203.925357	80.800000
3205.061694	53.600000
3206.197865	42.200000
3207.335354	51.800000
3208.471193	104.600000
3209.608350	50.200000
3210.740894	99.600000
3211.877720	60.600000
3213.009934	99.000000
3214.143465	78.400000
3215.276832	83.200000
3216.407071	82.600000
3217.540108	53.200000
3218.670019	73.800000
3219.801246	73.400000
3220.929349	54.400000
3222.060248	86.800000
3223.189503	77.400000
3224.317115	83.000000
3225.441605	39.400000
3226.570369	72.800000
3227.696012	62.800000
3228.821493	55.400000
3229.945332	52.400000
3231.071965	68.200000
3232.194001	45.400000
3233.317353	77.000000
3234.440543	55.200000
3235.563571	67.400000
3236.684959	56.800000
3237.806186	55.600000
3238.925774	51.600000
3240.045201	55.800000
3241.162990	56.800000
3242.283572	62.800000
3243.401039	69.800000
3244.518346	64.800000
3245.635493	66.800000
3246.751004	76.200000
3247.867830	32.000000
3248.981545	62.200000
3250.098050	50.200000
3251.212921	57.400000
3252.324683	61.400000
3253.436285	98.800000
3254.549203	60.800000
3255.661962	53.800000
3256.771614	70.400000
3257.882580	91.800000
3258.993388	25.400000
3260.102565	56.000000
3261.210110	68.600000
3262.318969	26.800000
3263.427671	55.000000
3264.533270	63.000000
3265.640183	40.400000
3266.745467	63.200000
3267.852066	11.600000
3268.955564	72.000000
3270.060376	34.800000
3271.165031	81.200000
3272.266587	45.600000
3273.367988	71.800000
3274.470702	56.400000
3275.573259	31.000000
3276.672720	38.400000
3277.774965	51.000000
3278.874114	72.200000
3279.971639	43.600000
3281.069008	62.800000
3282.169160	72.600000
3283.266218	64.400000
3284.363121	73.200000
3285.459869	56.400000
3286.552059	61.800000
3287.648497	43.400000
3288.743313	74.800000
3289.837975	68.000000
3290.931015	37.800000
3292.023901	40.200000
3293.115166	62.400000
3294.207744	74.800000
3295.298701	50.000000
3296.388039	47.600000
3297.477224	61.400000
3298.567722	50.400000
3299.655135	47.000000
3300.742396	42.600000
3301.830969	37.400000
3302.919389	49.600000
3304.003262	54.800000
3305.091377	72.600000
3306.176411	58.400000
3307.259828	49.200000
3308.344558	44.000000
3309.427673	45.800000
3310.512099	56.200000
3311.593447	49.800000
3312.676107	73.600000
3313.757153	64.600000
3314.838048	58.000000
3315.917329	59.000000
3316.996461	58.000000
3318.076903	45.000000
3319.154271	60.200000
3320.232951	28.000000
3321.310020	61.000000
3322.386938	42.400000
3323.462245	62.200000
3324.537403	60.000000
3325.613872	62.200000
3326.687271	31.800000
3327.760521	85.000000
3328.835081	63.200000
3329.908033	30.000000
3330.979376	54.000000
3332.052031	44.200000
3333.121618	45.400000
3334.192516	57.000000
3335.261807	37.800000
3336.332409	62.600000
3337.401404	41.600000
3338.468793	48.200000
3339.534577	58.200000
3340.604587	52.200000
3341.671534	34.200000
3342.735419	71.600000
3343.802072	49.600000
3344.867120	74.800000
3345.930565	55.000000
3346.993864	42.200000
3348.057016	55.400000
3349.120022	62.200000
3350.182882	46.800000
3351.244140	68.200000
3352.302341	56.200000
3353.364763	62.200000
3354.424128	38.600000
3355.483348	68.200000
3356.543878	28.200000
3357.599898	83.400000
3358.658682	44.400000
3359.712959	71.200000
3360.770000	41.400000
3361.825443	53.600000
3362.882194	46.800000
3363.937347	47.000000
3364.990903	57.600000
3366.042863	65.000000
3367.097584	58.200000
3368.149256	44.200000
3369.200785	52.600000
3370.253622	75.800000
3371.303412	64.600000
3372.354511	44.400000
3373.402564	49.800000
3374.453376	32.400000
3375.501144	71.600000
3376.548769	31.800000
3377.596251	42.400000
3378.642141	60.000000
3379.689339	52.800000
3380.733495	47.200000
3381.780409	47.000000
3382.825731	40.600000
3383.868012	39.600000
3384.910153	46.000000
3385.953601	64.400000
3386.996909	58.000000
3388.038626	34.000000
3389.080202	42.200000
3390.121638	58.800000
3391.161484	64.600000
3392.199742	52.800000
3393.239309	59.600000
3394.278734	55.200000
3395.316572	56.600000
3396.352823	58.000000
3397.388935	74.200000
3398.426354	63.200000
3399.460740	32.000000
3400.496433	26.800000
3401.531987	53.200000
3402.564510	52.600000
3403.599786	48.000000
3404.632031	33.400000
3405.664138	61.000000
3406.694661	46.000000
3407.726491	67.800000
3408.758183	39.400000
3409.786847	71.600000
3410.815374	42.000000
3411.845208	41.000000
3412.874903	43.600000
3413.901573	78.600000
3414.929550	46.200000
3415.954502	60.000000
3416.982204	36.200000
3418.006883	41.000000
3419.032868	38.800000
3420.057273	75.400000
3421.081542	37.800000
3422.104232	54.000000
3423.126786	76.200000
3424.150646	62.800000
3425.171486	30.600000
3426.192191	53.200000
3427.214201	36.200000
3428.233193	71.200000
3429.252050	58.800000
3430.272212	48.800000
3431.289358	23.200000
