-117.967255	-8.000000
-115.297655	-2.400000
-112.630990	-11.000000
-109.965077	-27.800000
-107.302096	-5.400000
-104.637686	-11.000000
-101.976206	-11.800000
-99.313296	9.600000
-96.655494	-12.200000
-93.996262	-17.200000
-91.337778	-3.200000
-88.682218	-2.800000
-86.025230	-18.200000
-83.373339	12.400000
-80.720019	3.000000
-78.069619	1.800000
-75.417789	-6.400000
-72.771050	-21.200000
-70.122881	-12.000000
-67.475456	-11.000000
-64.830944	-15.400000
-62.185004	11.200000
-59.544145	-7.400000
-56.901857	-6.800000
-54.262477	-30.600000
-51.621669	2.200000
-48.981601	16.000000
-46.346605	26.000000
-43.710181	-18.600000
-41.076659	-12.600000
-38.441709	18.600000
-35.811824	-0.600000
-33.178347	-18.600000
-30.549932	-20.200000
-27.922251	3.200000
-25.293141	10.000000
-22.669088	14.800000
-20.041446	11.600000
-17.418857	-7.800000
-14.797000	17.400000
-12.175873	42.800000
-9.555476	74.600000
-6.937968	239.600000
-4.319030	774.000000
-1.702979	1738.600000
0.912344	1760.200000
3.526940	932.800000
6.138653	108.000000
8.751795	27.000000
11.359903	17.400000
13.971593	20.600000
16.578252	-2.200000
19.186339	-16.000000
21.793702	-11.200000
24.396040	26.200000
27.001956	-30.400000
29.602850	-12.800000
32.205172	4.600000
34.802477	8.800000
37.403357	18.800000
39.999223	-3.200000
42.596516	-15.400000
45.193090	-10.600000
47.784655	12.000000
50.377648	9.200000
52.967780	-8.400000
55.559340	-23.000000
58.148040	14.600000
60.738167	-2.600000
63.323296	-1.400000
65.909851	17.000000
68.495693	-15.000000
71.078681	-9.600000
73.663095	6.800000
76.240381	-13.200000
78.821233	-0.200000
81.399236	-7.400000
83.976529	6.400000
86.555248	-19.800000
89.128986	-10.000000
91.704150	-1.400000
94.276471	10.400000
96.848084	4.000000
99.416857	20.600000
101.987057	3.200000
104.554419	2.400000
107.123206	-12.000000
109.689157	-9.800000
112.252273	9.600000
114.818945	16.200000
117.376396	19.600000
119.939532	1.600000
122.497708	10.600000
125.059439	24.000000
127.616213	14.800000
130.174414	7.000000
132.727662	65.200000
135.280211	76.600000
137.836311	122.400000
140.387464	156.000000
142.937918	185.800000
145.487675	238.600000
148.034614	241.200000
150.580856	225.000000
153.128524	257.800000
155.675496	260.400000
158.217533	238.600000
160.758876	255.600000
163.299526	277.200000
165.841602	260.200000
168.380866	278.200000
170.917322	265.400000
173.453086	254.800000
175.990276	275.600000
178.526775	233.000000
181.060468	240.400000
183.591358	271.800000
186.121559	225.600000
188.653185	252.200000
191.182010	264.200000
193.708036	248.800000
196.233376	237.200000
198.760142	271.400000
201.284110	242.200000
203.807394	253.800000
206.329993	258.400000
208.849799	247.800000
211.368922	248.000000
213.887362	257.400000
216.407226	265.800000
218.920089	265.800000
221.436483	282.400000
223.952195	272.800000
226.463017	297.400000
228.975265	258.000000
231.484729	261.800000
233.993515	251.400000
236.501623	258.800000
239.011154	277.600000
241.515805	264.200000
244.019780	251.200000
246.525180	267.200000
249.025704	248.600000
251.529751	264.600000
254.026828	257.800000
256.527427	263.400000
259.025255	280.400000
261.522410	276.200000
264.018892	267.800000
266.510511	258.600000
269.005650	220.800000
271.498023	251.200000
273.989725	255.200000
276.478663	269.400000
278.969026	268.800000
281.456626	277.200000
283.941467	285.000000
286.429823	277.400000
288.911239	272.600000
291.396169	275.600000
293.876254	281.200000
296.359851	265.200000
298.838605	243.800000
301.318783	288.800000
303.796208	277.000000
306.272970	299.800000
308.749069	287.200000
311.222419	280.400000
313.695107	303.200000
316.167134	286.800000
318.638500	314.200000
321.107122	319.000000
323.575084	341.200000
326.044468	327.800000
328.509030	332.400000
330.977096	295.800000
333.440342	309.000000
335.902930	273.200000
338.364862	291.800000
340.826137	282.200000
343.284678	310.400000
345.744641	294.200000
348.201871	301.200000
350.658447	269.400000
353.114369	296.400000
355.567562	278.800000
358.022176	269.200000
360.471989	288.800000
362.925298	315.800000
365.373809	301.000000
367.821669	265.600000
370.270950	286.800000
372.715438	298.400000
375.161348	268.600000
377.606609	293.000000
380.049150	287.600000
382.491044	282.000000
384.932291	272.200000
387.370822	289.400000
389.810775	291.600000
392.248014	289.800000
394.682541	288.000000
397.120556	286.600000
399.553794	305.600000
401.988454	284.000000
404.418340	293.800000
406.851712	249.600000
409.280314	270.000000
411.708275	270.800000
414.137656	313.600000
416.562272	312.800000
418.988310	281.000000
421.413707	309.000000
423.838464	270.600000
426.258463	283.200000
428.679883	276.200000
431.098606	304.000000
433.518750	244.800000
435.936199	282.000000
438.355068	291.600000
440.771244	288.800000
443.182673	284.000000
445.597578	281.400000
448.009793	285.400000
450.421374	287.200000
452.832321	305.000000
455.240582	315.400000
457.648210	298.000000
460.055207	309.000000
462.461571	305.200000
464.865253	283.600000
467.268305	296.400000
469.670727	308.200000
472.072519	265.400000
474.471634	273.600000
476.872168	291.400000
479.272073	288.000000
481.667255	302.800000
484.065904	270.400000
486.459833	278.400000
488.853136	308.400000
491.245813	271.600000
493.637865	272.600000
496.031335	274.400000
498.420094	274.400000
500.806186	237.800000
503.193697	254.600000
505.580586	262.000000
507.964811	225.400000
510.350455	221.200000
512.733436	202.200000
515.113757	217.400000
517.495497	251.000000
519.874578	209.400000
522.255078	212.800000
524.632920	226.200000
527.008107	223.000000
529.382676	252.800000
531.758664	171.600000
534.131998	219.600000
536.506750	238.000000
538.876817	208.800000
541.246268	205.400000
543.617137	191.600000
545.983326	206.400000
548.350933	215.200000
550.715894	206.200000
553.080242	214.400000
555.443978	236.800000
557.809130	209.600000
560.169611	224.600000
562.531510	208.200000
564.890768	204.400000
567.247389	198.800000
569.607454	192.800000
571.960828	209.600000
574.317647	198.000000
576.671831	208.000000
579.025407	212.600000
581.378374	234.000000
583.728710	241.200000
586.080462	193.400000
588.425538	161.800000
590.776078	185.600000
593.119944	191.200000
595.469272	178.800000
597.813952	205.800000
600.156006	222.600000
602.499478	188.000000
604.840327	205.200000
607.180574	213.000000
609.518200	183.000000
611.859261	206.800000
614.195684	197.400000
616.533524	189.000000
618.868747	203.000000
621.201354	182.000000
623.535377	200.800000
625.866787	201.400000
628.197598	183.200000
630.527811	200.000000
632.857426	202.400000
635.182419	191.000000
637.512853	184.800000
639.838665	190.800000
642.161871	202.400000
644.486492	194.800000
646.808508	181.000000
649.129931	214.000000
651.448750	190.200000
653.768985	192.200000
656.088627	184.600000
658.405668	184.200000
660.722117	197.000000
663.035968	188.600000
665.351235	210.800000
667.663905	203.800000
669.977990	203.400000
672.287475	198.000000
674.598376	175.400000
676.906684	182.600000
679.214404	154.400000
681.523539	173.400000
683.828081	180.200000
686.132036	184.000000
688.435406	194.800000
690.740190	187.000000
693.040388	175.800000
695.342000	161.800000
697.643028	174.600000
699.939473	175.400000
702.237334	166.200000
704.534611	193.800000
706.831305	173.400000
709.123423	177.000000
711.418952	185.200000
713.709908	199.800000
716.002277	189.000000
718.292072	207.800000
720.581286	192.800000
722.869921	195.400000
725.155984	195.600000
727.443460	182.600000
729.728365	200.800000
732.012693	201.000000
734.294452	200.400000
736.577625	162.600000
738.860221	163.000000
741.138262	181.400000
743.417716	173.400000
745.696595	200.000000
747.974898	192.400000
750.248652	201.000000
752.523820	199.200000
754.798414	208.600000
757.070448	178.800000
759.343896	206.600000
761.614786	198.600000
763.883120	183.400000
766.152867	174.000000
768.420060	188.800000
770.686682	180.200000
772.952734	203.400000
775.216235	192.200000
777.481149	192.000000
779.745493	191.400000
782.005308	166.800000
784.266535	181.000000
786.527195	209.600000
788.785309	209.600000
791.040878	196.800000
793.299838	189.200000
795.552299	201.200000
797.810127	190.600000
800.063435	190.200000
802.314204	210.400000
804.566385	201.200000
806.816028	247.800000
809.067082	198.000000
811.313625	202.000000
813.561580	191.600000
815.807001	189.800000
818.053833	174.800000
820.300104	155.600000
822.541871	187.200000
824.787020	189.400000
827.025697	184.000000
829.267756	166.000000
831.505317	230.000000
833.744290	215.400000
835.980736	182.800000
838.218593	184.000000
840.453925	158.400000
842.686734	192.000000
844.920954	193.000000
847.152652	191.800000
849.383794	192.800000
851.614383	192.000000
853.844416	190.400000
856.073896	180.400000
858.298894	161.000000
860.527267	193.600000
862.751161	189.600000
864.976465	177.400000
867.197294	177.400000
869.421495	194.400000
871.641223	197.200000
873.862362	193.400000
876.082950	180.200000
878.301028	197.600000
880.520516	202.000000
882.735538	163.800000
884.950013	191.800000
887.163939	203.200000
889.377319	189.200000
891.590151	174.800000
893.802437	196.000000
896.012220	204.200000
898.221458	210.600000
900.430151	182.200000
902.636345	194.000000
904.843948	188.000000
907.049053	198.000000
909.253615	179.600000
911.455682	164.600000
913.659158	209.600000
915.860140	184.400000
918.060581	198.000000
920.262429	164.800000
922.457887	186.000000
924.656704	180.000000
926.851082	216.800000
929.048818	179.200000
931.242118	183.600000
933.436827	203.600000
935.629050	200.000000
937.820735	183.200000
940.011882	178.600000
942.200546	196.600000
944.388673	192.600000
946.574320	199.200000
948.763319	166.200000
950.947895	184.400000
953.131936	206.600000
955.319327	203.600000
957.498414	205.600000
959.680852	188.000000
961.862756	186.000000
964.042186	175.800000
966.219142	196.200000
968.397507	192.200000
970.577279	182.400000
972.750702	210.200000
974.927471	184.800000
977.099833	218.200000
979.273603	203.600000
981.442969	207.400000
983.615679	228.400000
985.785924	186.600000
987.955640	205.800000
990.124827	232.400000
992.289617	211.000000
994.457748	216.800000
996.621485	210.800000
998.786628	209.200000
1000.949312	218.600000
1003.111471	202.000000
1005.271173	234.800000
1007.430351	209.600000
1009.590935	214.000000
1011.749064	227.200000
1013.906669	230.200000
1016.063751	195.600000
1018.220310	229.000000
1020.372489	213.800000
1022.526074	246.200000
1024.679138	225.600000
1026.829754	200.600000
1028.981775	219.600000
1031.129423	247.000000
1033.280403	234.400000
1035.427012	236.400000
1037.573103	233.800000
1039.718674	232.000000
1041.865651	239.200000
1044.006339	235.200000
1046.150357	241.600000
1048.291934	249.400000
1050.432995	229.400000
1052.575460	260.800000
1054.711646	236.400000
1056.851158	242.800000
1058.986314	223.400000
1061.124795	254.200000
1063.258922	240.200000
1065.392536	225.000000
1067.527555	239.000000
1069.658224	238.200000
1071.790298	226.000000
1073.919943	221.600000
1076.049076	251.600000
1078.177697	233.400000
1080.305807	247.600000
1082.431491	206.800000
1084.556665	254.200000
1086.683243	240.800000
1088.805483	207.400000
1090.929128	249.400000
1093.048439	209.400000
1095.172978	242.600000
1097.291272	250.000000
1099.410971	217.600000
1101.528251	213.200000
1103.645025	221.800000
1105.761292	234.400000
1107.875144	180.200000
1109.990399	210.800000
1112.101331	216.000000
1114.215576	218.200000
1116.325500	224.000000
1118.436828	223.600000
1120.547651	227.400000
1122.654158	227.600000
1124.763975	221.800000
1126.869477	229.000000
1128.976382	224.800000
1131.077072	202.600000
1133.182974	222.400000
1135.284567	221.600000
1137.387563	220.800000
1139.490058	202.400000
1141.586346	197.600000
1143.687842	186.800000
1145.785034	196.600000
1147.881729	214.400000
1149.977925	216.200000
1152.073624	207.400000
1154.168824	215.800000
1156.261629	196.800000
1158.355835	228.000000
1160.443850	203.400000
1162.537063	208.800000
1164.624088	207.400000
1166.714412	201.200000
1168.800449	190.200000
1170.889783	221.000000
1172.972936	177.000000
1175.057491	186.400000
1177.143448	215.400000
1179.225123	211.400000
1181.308200	214.200000
1183.388891	188.200000
1185.469090	211.400000
1187.548798	187.200000
1189.628015	220.600000
1191.704850	212.200000
1193.779304	172.600000
1195.857049	198.600000
1197.930525	215.000000
1200.005401	194.600000
1202.076010	228.400000
1204.148021	201.000000
1206.217655	204.200000
1208.288690	202.800000
1210.359237	208.400000
1212.425523	224.600000
1214.493210	204.400000
1216.558525	200.400000
1218.625240	203.600000
1220.687699	211.400000
1222.753443	214.200000
1224.814934	211.600000
1226.877824	206.800000
1228.938347	203.600000
1230.998386	205.400000
1233.057943	190.600000
1235.115134	206.200000
1237.171844	208.000000
1239.226191	180.000000
1241.283818	220.400000
1243.339083	167.400000
1245.390107	174.400000
1247.442531	215.600000
1249.494475	202.800000
1251.544061	212.200000
1253.593168	211.600000
1255.641797	198.800000
1257.689947	190.800000
1259.737618	213.000000
1261.781060	193.600000
1263.827776	194.800000
1265.872139	215.800000
1267.916026	203.200000
1269.957561	198.000000
1271.996747	216.000000
1274.039206	195.000000
1276.077442	216.400000
1278.117077	195.400000
1280.156237	225.200000
1282.191178	193.400000
1284.227518	214.000000
1286.261514	247.800000
1288.296908	226.800000
1290.328088	210.800000
1292.360666	200.200000
1294.392773	235.400000
1296.422539	229.200000
1298.453703	223.600000
1300.480659	252.200000
1302.509013	239.400000
1304.533163	217.200000
1306.560577	216.000000
1308.583789	257.400000
1310.608399	232.800000
1312.630675	262.200000
1314.654348	241.200000
1316.675688	242.400000
1318.696560	245.800000
1320.716965	251.800000
1322.733177	280.600000
1324.750786	282.800000
1326.766067	282.200000
1328.784607	296.400000
1330.798958	291.000000
1332.810983	300.000000
1334.826265	294.000000
1336.837362	292.600000
1338.849856	308.600000
1340.858167	321.000000
1342.869734	266.600000
1344.875261	301.400000
1346.884044	272.200000
1348.888649	291.400000
1350.896508	285.000000
1352.903905	303.800000
1354.905271	253.200000
1356.908034	278.800000
1358.910336	258.600000
1360.912179	241.000000
1362.913562	234.000000
1364.912632	263.600000
1366.911243	235.400000
1368.909396	226.800000
1370.907090	221.200000
1372.900622	234.400000
1374.895550	217.000000
1376.890020	184.800000
1378.884035	202.000000
1380.875741	209.000000
1382.866993	204.600000
1384.855939	222.000000
1386.846280	199.200000
1388.836166	193.800000
1390.823749	208.800000
1392.810877	246.200000
1394.795704	195.200000
1396.781926	170.200000
1398.765848	185.800000
1400.749317	217.200000
1402.732333	185.200000
1404.713052	211.600000
1406.695165	197.600000
1408.674982	207.600000
1410.654347	173.200000
1412.629574	207.800000
1414.608040	202.400000
1416.584211	223.600000
1418.559934	194.200000
1420.535207	186.200000
1422.508189	191.600000
1424.480723	180.600000
1426.452809	178.200000
1428.424448	201.400000
1430.391958	192.600000
1432.364542	211.800000
1434.329321	221.200000
1436.299171	168.800000
1438.264898	194.600000
1440.232017	204.800000
1442.196853	190.400000
1444.157569	205.000000
1446.123354	213.400000
1448.083183	204.000000
1450.044405	184.800000
1452.007020	210.600000
1453.965520	209.600000
1455.923577	213.200000
1457.881193	222.400000
1459.838367	180.200000
1461.793265	209.200000
1463.749555	213.600000
1465.703571	220.400000
1467.657147	204.200000
1469.608450	226.400000
1471.561145	205.200000
1473.511569	212.800000
1475.461553	215.000000
1477.411099	199.800000
1479.358376	194.400000
1481.303386	184.000000
1483.249787	228.600000
1485.195751	204.000000
1487.141278	196.600000
1489.084540	197.000000
1491.027365	208.200000
1492.967927	229.400000
1494.909880	177.800000
1496.849571	211.200000
1498.788828	195.400000
1500.727649	181.800000
1502.664211	219.200000
1504.602164	220.800000
1506.537858	220.600000
1508.473119	217.400000
1510.406124	200.400000
1512.338696	204.400000
1514.270836	230.600000
1516.202544	215.800000
1518.131998	204.000000
1520.062843	207.400000
1521.993256	235.800000
1523.919597	217.000000
1525.847329	227.000000
1527.772810	234.000000
1529.697862	234.400000
1531.622485	257.200000
1533.546679	240.400000
1535.468625	253.600000
1537.391962	298.600000
1539.313053	292.600000
1541.231899	279.800000
1543.152134	294.000000
1545.070127	353.400000
1546.987693	343.000000
1548.903017	403.400000
1550.819731	420.200000
1552.732390	469.400000
1554.648253	541.800000
1556.561876	588.600000
1558.473262	648.200000
1560.386036	701.000000
1562.294761	719.600000
1564.204875	707.400000
1566.114566	668.200000
1568.023834	642.200000
1569.930868	592.200000
1571.835669	569.200000
1573.741859	536.200000
1575.645817	455.000000
1577.549354	436.000000
1579.452471	409.200000
1581.353358	352.600000
1583.255634	341.600000
1585.155682	343.000000
1587.057117	309.400000
1588.954519	316.800000
1590.851502	286.800000
1592.748067	298.400000
1594.646020	282.200000
1596.538138	302.400000
1598.433449	249.000000
1600.328343	268.800000
1602.221015	275.800000
1604.113271	261.000000
1606.003306	215.000000
1607.892927	233.600000
1609.782131	224.000000
1611.670921	226.400000
1613.557493	230.800000
1615.445453	246.400000
1617.329396	199.800000
1619.214727	212.800000
1621.099643	225.200000
1622.982346	212.000000
1624.866436	203.400000
1626.746515	191.400000
1628.627980	221.800000
1630.507235	208.400000
1632.387876	225.600000
1634.262713	210.200000
1636.142531	165.600000
1638.018345	226.000000
1639.893748	201.600000
1641.770537	217.400000
1643.641530	210.400000
1645.515704	210.800000
1647.385880	200.400000
1649.259236	207.800000
1651.130389	192.000000
1652.999340	206.200000
1654.869677	197.000000
1656.736020	176.800000
1658.603749	191.600000
1660.469279	202.400000
1662.336195	191.800000
1664.199122	183.800000
1666.063434	174.800000
1667.925550	197.800000
1669.787262	190.800000
1671.650358	169.400000
1673.511260	200.400000
1675.369968	192.000000
1677.228273	193.400000
1679.087963	175.200000
1680.941885	174.400000
1682.798981	185.400000
1684.655674	205.800000
1686.508391	194.800000
1688.364278	190.400000
1690.216192	167.800000
1692.067705	183.000000
1693.918817	192.600000
1695.769529	173.400000
1697.619840	161.200000
1699.467966	172.400000
1701.317477	181.000000
1703.161239	170.400000
1705.009950	186.600000
1706.852916	192.600000
1708.699047	179.600000
1710.541216	179.200000
1712.386551	184.600000
1714.226145	204.400000
1716.067123	188.800000
1717.909484	176.200000
1719.747889	196.800000
1721.587677	195.400000
1723.425290	174.000000
1725.262507	181.600000
1727.097551	217.200000
1728.933978	157.200000
1730.768233	176.400000
1732.602093	182.000000
1734.435560	203.800000
1736.265080	190.600000
1738.097759	194.200000
1739.926494	176.400000
1741.758386	187.600000
1743.586337	187.000000
1745.413895	157.800000
1747.241061	184.600000
1749.067836	190.800000
1750.894220	186.400000
1752.716666	186.400000
1754.542268	195.400000
1756.363935	185.600000
1758.186984	181.400000
1760.007871	162.000000
1761.828370	168.400000
1763.650250	193.000000
1765.466430	177.000000
1767.285762	195.800000
1769.101167	179.400000
1770.919722	170.800000
1772.734352	173.000000
1774.548596	179.800000
1776.362452	165.200000
1778.175922	185.000000
1779.987239	158.400000
1781.799937	157.000000
1783.612248	169.400000
1785.420642	204.200000
1787.230416	181.600000
1789.036276	179.800000
1790.845281	146.800000
1792.650373	191.400000
1794.456846	165.600000
1796.262935	195.200000
1798.065114	175.600000
1799.870436	174.600000
1801.671850	183.000000
1803.474644	197.200000
1805.273532	184.800000
1807.073801	209.800000
1808.873688	188.600000
1810.671434	181.400000
1812.468798	183.400000
1814.265783	157.600000
1816.062387	173.800000
1817.856852	158.400000
1819.652696	178.800000
1821.442886	168.200000
1823.237971	177.000000
1825.027405	147.400000
1826.819975	172.400000
1828.610410	187.200000
1830.398711	170.000000
1832.190147	187.000000
1833.975937	170.800000
1835.763107	188.000000
1837.548145	179.200000
1839.336317	145.800000
1841.120603	172.000000
1842.902760	198.000000
1844.686295	180.000000
1846.467702	169.200000
1848.250488	168.800000
1850.029393	163.800000
1851.809678	194.200000
1853.587836	168.600000
1855.367373	172.600000
1857.144785	195.800000
1858.920073	165.400000
1860.696739	166.400000
1862.471283	158.000000
1864.247205	162.200000
1866.017506	180.000000
1867.790935	173.400000
1869.562244	178.800000
1871.333183	175.800000
1873.105498	173.000000
1874.872200	174.400000
1876.642028	176.000000
1878.407992	175.400000
1880.177079	183.800000
1881.942306	185.200000
1883.707163	177.600000
1885.473398	168.000000
1887.235774	175.000000
1888.997783	159.400000
1890.759424	164.000000
1892.520699	206.200000
1894.281606	173.000000
1896.042147	172.000000
1897.800578	177.000000
1899.558644	155.400000
1901.314601	164.800000
1903.071935	172.000000
1904.828904	179.400000
1906.583767	177.400000
1908.336524	170.000000
1910.088918	154.200000
1911.842687	161.800000
1913.594353	161.200000
1915.343917	167.600000
1917.094856	160.800000
1918.845433	169.600000
1920.592170	148.000000
1922.340284	175.600000
1924.086298	146.600000
1925.833688	174.000000
1927.578979	145.800000
1929.322173	183.000000
1931.066742	154.400000
1932.809216	186.200000
1934.551329	192.400000
1936.293082	164.600000
1938.034476	178.400000
1939.773775	169.000000
1941.512716	154.200000
1943.251298	167.800000
1944.987789	194.200000
1946.723922	193.900000
1948.461429	193.600000
1950.195114	163.400000
1951.930174	166.800000
1953.663146	178.000000
1955.395760	184.200000
1957.128019	180.600000
1958.859921	174.400000
1960.589737	191.800000
1962.317468	159.000000
1964.046574	169.800000
1965.775325	181.400000
1967.501992	177.000000
1969.228305	176.000000
1970.955991	181.800000
1972.678141	182.200000
1974.403392	169.600000
1976.124837	185.400000
1977.849381	189.600000
1979.571846	156.800000
1981.290507	168.400000
1983.012267	161.200000
1984.730225	158.200000
1986.449556	140.200000
1988.165088	183.800000
1989.885440	166.600000
1991.601994	202.200000
1993.314751	211.600000
1995.030605	168.400000
1996.744385	170.800000
1998.457816	160.200000
2000.169176	208.400000
2001.881908	166.400000
2003.590850	175.600000
2005.302885	179.400000
2007.009410	164.200000
2008.719028	213.400000
2010.426578	188.000000
2012.133781	139.000000
2013.838918	160.000000
2015.543708	162.400000
2017.249870	183.200000
2018.952250	156.400000
2020.656002	193.600000
2022.357690	163.600000
2024.059034	181.000000
2025.760032	160.400000
2027.458969	184.800000
2029.159278	161.800000
2030.855812	190.200000
2032.553717	160.400000
2034.249563	161.400000
2035.948495	174.800000
2037.641941	185.600000
2039.336758	192.600000
2041.031233	159.400000
2042.721939	198.000000
2044.415729	189.400000
2046.105752	173.600000
2047.797146	158.200000
2049.486487	161.400000
2051.177198	174.600000
2052.864146	182.600000
2054.550755	175.400000
2056.238734	189.000000
2057.922952	155.200000
2059.608542	161.400000
2061.293792	158.600000
2062.976994	158.200000
2064.661565	170.400000
2066.340674	175.400000
2068.024568	178.600000
2069.703002	151.400000
2071.384512	155.600000
2073.062272	176.000000
2074.739694	148.400000
2076.418486	159.400000
2078.095236	166.600000
2079.769944	141.400000
2081.446021	185.200000
2083.120058	175.600000
2084.793759	153.800000
2086.467125	171.000000
2088.138453	178.600000
2089.809446	167.400000
2091.480105	165.600000
2093.150429	167.800000
2094.820420	163.800000
2096.488375	171.400000
2098.155997	131.200000
2099.821584	161.600000
2101.488540	160.600000
2103.153463	171.000000
2104.818054	157.600000
2106.480613	160.800000
2108.144540	183.400000
2109.806437	132.000000
2111.468002	176.600000
2113.129236	185.600000
2114.788442	181.800000
2116.447317	185.200000
2118.105863	167.800000
2119.764079	162.400000
2121.418571	155.600000
2123.076128	165.200000
2124.733356	177.000000
2126.386862	171.800000
2128.041736	145.000000
2129.692892	195.000000
2131.347109	177.200000
2132.997610	173.200000
2134.649477	180.600000
2136.295936	159.200000
2137.947150	147.600000
2139.594650	183.600000
2141.243517	180.000000
2142.890366	167.200000
2144.536888	173.200000
2146.183085	177.000000
2147.825574	175.400000
2149.471121	196.000000
2151.112961	171.400000
2152.757858	180.000000
2154.399050	177.800000
2156.039918	182.000000
2157.680462	162.800000
2159.318994	164.800000
2160.958892	164.600000
2162.595090	164.000000
2164.232655	157.400000
2165.869896	174.600000
2167.505128	158.600000
2169.140039	179.200000
2170.774628	158.000000
2172.408895	157.400000
2174.039469	172.800000
2175.673095	150.400000
2177.303029	177.600000
2178.934328	169.400000
2180.563622	160.000000
2182.192597	176.000000
2183.821252	165.400000
2185.449588	162.600000
2187.075922	180.400000
2188.701937	197.600000
2190.325951	167.400000
2191.951329	185.200000
2193.574708	186.400000
2195.199450	159.200000
2196.820512	180.600000
2198.441257	174.200000
2200.063367	150.600000
2201.683479	146.200000
2203.301594	183.000000
2204.919394	184.800000
2206.536879	163.000000
2208.154048	169.400000
2209.770902	164.000000
2211.387441	173.400000
2213.001986	151.400000
2214.614539	164.800000
2216.228456	167.200000
2217.840382	169.400000
2219.453671	167.200000
2221.064970	188.800000
2222.674279	187.200000
2224.284952	163.200000
2225.893636	172.000000
2227.502008	157.800000
2229.108392	168.800000
2230.716140	182.000000
2232.321901	169.400000
2233.927351	162.000000
2235.530816	159.400000
2237.135644	177.400000
2238.738488	158.800000
2240.339350	148.400000
2241.941573	164.400000
2243.541815	161.000000
2245.143419	157.200000
2246.741371	161.800000
2248.340685	160.800000
2249.938019	151.800000
2251.535044	151.400000
2253.133432	153.000000
2254.728171	147.600000
2256.320933	165.000000
2257.915058	141.800000
2259.510544	157.000000
2261.102386	169.600000
2262.693921	155.200000
2264.286817	176.000000
2265.874404	187.400000
2267.466688	173.200000
2269.053664	167.800000
2270.643669	177.000000
2272.228369	169.800000
2273.817762	183.200000
2275.401854	154.400000
2276.987307	181.000000
2278.570790	167.200000
2280.157300	136.400000
2281.740175	174.400000
2283.322748	170.200000
2284.905017	150.400000
2286.483657	161.200000
2288.065320	172.000000
2289.643355	165.400000
2291.224413	155.400000
2292.801844	169.100000
2294.377312	182.800000
2295.955802	167.800000
2297.530668	174.400000
2299.105233	167.800000
2300.679498	170.400000
2302.253462	157.200000
2303.827126	159.600000
2305.400489	146.400000
2306.970234	159.200000
2308.539680	160.200000
2310.112144	154.800000
2311.679334	175.600000
2313.249542	159.000000
2314.816135	158.400000
2316.384088	148.800000
2317.950085	183.000000
2319.515785	161.800000
2321.081188	182.800000
2322.644636	168.800000
2324.209444	162.200000
2325.770644	158.000000
2327.334858	192.000000
2328.893810	166.000000
2330.455777	158.400000
2332.015793	165.800000
2333.575513	171.800000
2335.133284	138.400000
2336.690760	170.000000
2338.247942	180.400000
2339.803176	186.000000
2341.358117	162.600000
2342.912764	155.800000
2344.467116	137.800000
2346.021176	162.800000
2347.574941	156.200000
2349.126763	164.800000
2350.676641	168.600000
2352.229527	168.000000
2353.777171	148.800000
2355.327822	172.800000
2356.874882	150.000000
2358.423301	123.200000
2359.971427	163.000000
2361.515965	190.000000
2363.061861	159.600000
2364.605819	163.200000
2366.151134	150.400000
2367.692864	156.200000
2369.235951	159.400000
2370.777102	171.400000
2372.317965	155.600000
2373.858537	144.800000
2375.398821	156.000000
2376.938816	175.000000
2378.475233	134.400000
2380.014651	147.400000
2381.550492	183.000000
2383.087689	155.800000
2384.621311	152.400000
2386.157934	163.000000
2387.692625	165.000000
2389.225387	145.000000
2390.757862	173.400000
2392.288409	158.800000
2393.821954	170.000000
2395.350288	174.800000
2396.879979	163.000000
2398.409384	159.400000
2399.938503	177.800000
2401.467338	153.400000
2402.990967	170.400000
2404.519233	145.800000
2406.042295	152.000000
2407.569991	170.200000
2409.090848	173.600000
2410.616338	183.800000
2412.138267	187.000000
2413.661552	176.200000
2415.182916	162.600000
2416.702360	158.200000
2418.223159	152.000000
2419.742039	167.600000
2421.260637	172.600000
2422.777318	155.800000
2424.295353	178.600000
2425.813107	186.200000
2427.327310	161.600000
2428.841232	161.400000
2430.354874	143.600000
2431.869871	175.800000
2433.381319	154.400000
2434.894122	166.800000
2436.405011	158.000000
2437.915622	187.200000
2439.424321	138.000000
2440.936006	163.400000
2442.444148	180.800000
2443.952012	164.200000
2445.459598	154.200000
2446.963643	168.200000
2448.470674	180.600000
2449.975796	171.600000
2451.480641	169.600000
2452.983578	169.400000
2454.486240	167.800000
2455.988625	163.400000
2457.489105	134.800000
2458.990938	156.400000
2460.490867	172.800000
2461.990520	148.000000
2463.489897	160.800000
2464.987372	168.200000
2466.482945	138.800000
2467.981498	144.000000
2469.476523	162.000000
2470.972900	176.400000
2472.465751	132.600000
2473.959955	161.400000
2475.453885	170.600000
2476.944291	163.800000
2478.437675	169.000000
2479.929161	145.000000
2481.418750	166.600000
2482.908067	140.200000
2484.395489	146.400000
2485.885886	138.800000
2487.372764	152.400000
2488.860994	154.600000
2490.345708	147.600000
2491.830151	145.000000
2493.315946	160.400000
2494.799848	156.800000
2496.285102	164.600000
2497.765221	148.600000
2499.248314	155.400000
2500.729516	144.400000
2502.210449	175.600000
2503.689493	163.200000
2505.168268	168.000000
2506.646775	147.400000
2508.125014	146.800000
2509.602984	174.000000
2511.077449	149.800000
2512.554884	153.200000
2514.028815	149.400000
2515.504096	184.800000
2516.979111	142.000000
2518.450624	137.800000
2519.923487	142.000000
2521.394468	166.600000
2522.866799	158.600000
2524.334017	133.400000
2525.804200	139.600000
2527.272503	127.600000
2528.740541	149.800000
2530.208314	147.000000
2531.675822	147.600000
2533.143065	137.400000
2534.606816	148.400000
2536.071917	179.400000
2537.535141	149.800000
2538.999715	156.600000
2540.460799	149.400000
2541.923233	144.000000
2543.385404	143.400000
2544.844089	149.600000
2546.307346	166.000000
2547.765506	168.600000
2549.225015	155.800000
2550.679430	176.400000
2552.138416	161.800000
2553.595530	153.000000
2555.050773	154.200000
2556.505755	173.400000
2557.958867	150.800000
2559.413328	183.000000
2560.865920	189.000000
2562.318252	159.400000
2563.768716	162.600000
2565.222136	179.600000
2566.670474	152.400000
2568.121768	127.400000
2569.571195	138.200000
2571.017150	145.400000
2572.466060	176.200000
2573.911500	163.000000
2575.358288	135.400000
2576.803212	160.200000
2578.247878	139.800000
2579.693893	190.800000
2581.136440	172.400000
2582.580335	177.600000
2584.020765	174.200000
2585.462542	168.400000
2586.902460	192.000000
2588.343725	144.000000
2589.781529	174.400000
2591.222282	176.400000
2592.657972	195.400000
2594.096612	179.800000
2595.533394	180.200000
2596.968321	169.400000
2598.406195	182.800000
2599.839012	166.800000
2601.273176	172.800000
2602.705486	162.600000
2604.139142	182.600000
2605.570945	180.800000
2607.002494	163.400000
2608.433791	182.000000
2609.863235	192.600000
2611.292427	178.200000
2612.719769	184.000000
2614.148456	170.200000
2615.576892	189.600000
2617.001880	197.600000
2618.428215	191.000000
2619.852701	191.800000
2621.278533	183.400000
2622.700921	187.200000
2624.124655	189.600000
2625.546542	187.400000
2626.968180	212.000000
2628.387972	189.200000
2629.809110	224.800000
2631.229998	205.800000
2632.647448	208.000000
2634.067837	226.200000
2635.484789	209.600000
2636.901492	206.800000
2638.317948	201.400000
2639.734154	204.600000
2641.150113	232.400000
2642.564231	195.200000
2643.978102	223.800000
2645.390133	224.800000
2646.803509	240.400000
2648.213455	216.000000
2649.626336	242.600000
2651.035789	209.400000
2652.444996	217.600000
2653.852367	263.800000
2655.262673	236.800000
2656.671142	258.800000
2658.077776	232.600000
2659.484165	250.000000
2660.888720	244.400000
2662.294619	250.200000
2663.698685	237.400000
2665.102506	234.600000
2666.506084	229.600000
2667.907829	264.000000
2669.310918	243.000000
2670.710589	258.200000
2672.111604	239.800000
2673.509203	264.200000
2674.909732	240.600000
2676.306846	285.200000
2677.705303	283.000000
2679.101932	243.400000
2680.498319	229.200000
2681.894465	235.400000
2683.288784	245.400000
2684.684446	270.000000
2686.076698	260.400000
2687.470293	235.600000
2688.862065	260.600000
2690.255178	266.400000
2691.646468	234.200000
2693.035935	254.800000
2694.425162	231.200000
2695.814150	240.200000
2697.204480	238.000000
2698.589825	199.800000
2699.978094	232.600000
2701.364543	226.200000
2702.750753	219.600000
2704.136725	212.000000
2705.519297	230.600000
2706.903212	217.400000
2708.286889	239.400000
2709.670328	210.400000
2711.050371	208.600000
2712.431756	183.200000
2713.811325	207.800000
2715.192236	206.800000
2716.571331	199.200000
2717.948613	172.200000
2719.327236	197.600000
2720.704046	170.400000
2722.080620	187.600000
2723.456958	179.400000
2724.831484	186.200000
2726.207351	149.200000
2727.579831	171.800000
2728.955227	183.800000
2730.325663	157.800000
2731.697440	189.000000
2733.068982	156.400000
2734.438716	142.600000
2735.809791	143.400000
2737.179057	156.600000
2738.548090	163.200000
2739.915317	158.200000
2741.282311	186.600000
2742.649072	173.800000
2744.015600	154.800000
2745.380323	169.400000
2746.744815	175.800000
2748.109074	157.600000
2749.473101	179.000000
2750.836897	154.000000
2752.197319	144.800000
2753.560652	164.200000
2754.919042	164.000000
2756.280342	133.200000
2757.638271	158.200000
2758.999109	155.600000
2760.358148	148.400000
2761.713818	140.800000
2763.072396	167.200000
2764.427607	170.000000
2765.782590	141.000000
2767.135775	151.400000
2768.491867	144.800000
2769.844594	142.000000
2771.197094	136.200000
2772.549365	139.400000
2773.902975	144.000000
2775.253223	151.600000
2776.601678	124.200000
2777.953037	150.000000
2779.301037	127.000000
2780.650375	152.600000
2781.997922	153.800000
2783.345241	140.400000
2784.692334	150.200000
2786.037636	137.200000
2787.382712	132.200000
2788.727561	137.600000
2790.072185	143.400000
2791.413457	155.000000
2792.756067	111.800000
2794.098451	144.400000
2795.440611	146.000000
2796.779421	137.800000
2798.121130	124.200000
2799.459492	125.000000
2800.799191	147.800000
2802.137104	153.400000
2803.473233	154.200000
2804.809138	148.600000
2806.146381	159.000000
2807.481840	150.000000
2808.817076	112.800000
2810.150529	144.400000
2811.485320	146.400000
2812.816769	147.800000
2814.151114	157.000000
2815.480561	142.600000
2816.811345	145.600000
2818.141907	133.800000
2819.470690	149.600000
2820.800809	133.200000
2822.129150	144.800000
2823.457270	138.600000
2824.783612	141.600000
2826.111291	152.000000
2827.435636	151.600000
2828.761318	124.600000
2830.085224	164.200000
2831.408911	125.600000
2832.733933	130.200000
2834.055625	108.400000
2835.377099	105.800000
2836.698354	159.000000
2838.019390	140.000000
2839.338654	124.200000
2840.659253	127.800000
2841.978080	132.200000
2843.296689	146.000000
2844.613527	122.200000
2845.930148	116.000000
2847.246552	151.600000
2848.561186	114.400000
2849.877156	136.000000
2851.189805	145.200000
2852.503790	120.600000
2853.817557	97.400000
2855.131109	136.400000
2856.442893	151.600000
2857.752911	132.200000
2859.064264	112.400000
2860.372302	120.400000
2861.681674	135.000000
2862.990832	118.600000
2864.299774	108.800000
2865.606952	149.600000
2866.912368	152.600000
2868.219118	146.800000
2869.524105	137.400000
2870.828879	142.200000
2872.131891	126.800000
2873.437785	134.400000
2874.738823	142.800000
2876.041196	162.400000
2877.341809	126.400000
2878.643756	143.200000
2879.945490	137.800000
2881.243919	134.600000
2882.543682	140.800000
2883.841688	127.200000
2885.139482	130.800000
2886.435520	132.800000
2887.732891	135.800000
2889.028506	127.600000
2890.323910	145.000000
2891.619103	153.400000
2892.910999	132.200000
2894.205771	118.200000
2895.497246	162.600000
2896.790054	146.800000
2898.082652	131.600000
2899.371956	135.200000
2900.662592	143.800000
2901.951477	141.000000
2903.241695	125.200000
2904.528620	126.000000
2905.816879	141.400000
2907.103387	116.000000
2908.389688	120.800000
2909.675780	122.200000
2910.960124	144.200000
2912.247339	145.400000
2913.529728	157.200000
2914.813449	129.600000
2916.095424	115.600000
2917.377191	147.200000
2918.657214	110.400000
2919.940106	117.200000
2921.221253	133.600000
2922.499118	142.400000
2923.779852	159.800000
2925.057305	116.200000
2926.334552	133.600000
2927.610058	131.000000
2928.888431	155.200000
2930.161989	113.800000
2931.438415	125.000000
2932.713100	163.000000
2933.986045	124.200000
2935.260320	129.600000
2936.532856	134.200000
2937.805188	132.000000
2939.074246	121.600000
2940.346170	133.000000
2941.616356	136.000000
2942.886339	110.600000
2944.156118	158.800000
2945.424160	136.000000
2946.690467	126.200000
2947.956571	140.000000
2949.224005	130.200000
2950.489705	122.000000
2951.755202	129.200000
2953.020497	145.800000
2954.282527	121.000000
2955.545888	140.000000
2956.809046	149.600000
2958.070473	127.000000
2959.333229	137.000000
2960.594254	163.800000
2961.853547	127.800000
2963.112641	129.800000
2964.371534	126.200000
2965.630227	125.000000
2966.888720	130.600000
2968.145484	128.800000
2969.402048	119.800000
2970.656885	115.000000
2971.913050	116.000000
2973.165961	127.200000
2974.420201	120.600000
2975.674242	102.400000
2976.926557	137.600000
2978.178673	98.600000
2979.429065	95.000000
2980.682312	126.400000
2981.930782	120.800000
2983.182107	118.000000
2984.430182	127.200000
2985.678061	130.000000
2986.925742	112.800000
2988.173227	141.000000
2989.418989	115.800000
2990.664556	131.600000
2991.911450	127.400000
2993.155100	142.800000
2994.400078	118.600000
2995.641812	160.600000
2996.886398	112.200000
2998.129265	119.200000
2999.368891	121.400000
3000.611367	133.800000
3001.850604	98.200000
3003.091167	112.800000
3004.330015	151.800000
3005.568667	83.600000
3006.805605	115.200000
3008.043869	117.600000
3009.280419	135.600000
3010.516774	116.600000
3011.752936	108.200000
3012.987385	150.400000
3014.221640	123.400000
3015.455702	109.800000
3016.688052	110.000000
3017.918690	93.600000
3019.152174	117.800000
3020.383946	108.600000
3021.614008	106.400000
3022.843878	106.000000
3024.072038	115.200000
3025.301524	93.800000
3026.529302	147.800000
3027.756888	109.600000
3028.985800	136.800000
3030.209970	133.800000
3031.436983	107.800000
3032.660772	141.800000
3033.885888	116.600000
3035.109297	121.000000
3036.332516	139.400000
3037.554030	120.200000
3038.778385	113.600000
3039.998005	131.200000
3041.218951	103.800000
3042.439708	116.800000
3043.658761	111.000000
3044.879140	123.400000
3046.096302	130.200000
3047.314789	121.800000
3048.531574	118.200000
3049.748172	118.600000
3050.964581	116.400000
3052.177778	126.600000
3053.393812	137.600000
3054.606634	116.800000
3055.822293	124.400000
3057.033229	112.400000
3058.245490	130.000000
3059.457565	136.200000
3060.669453	119.000000
3061.879643	100.000000
3063.089647	102.600000
3064.299465	118.000000
3065.507588	139.600000
3066.715524	111.800000
3067.921765	126.200000
3069.129331	119.200000
3070.335202	106.000000
3071.540889	92.800000
3072.746390	108.400000
3073.950198	112.400000
3075.155330	109.000000
3076.358770	102.800000
3077.560517	133.600000
3078.762081	128.800000
3079.963460	138.400000
3081.164657	112.800000
3082.364162	107.600000
3083.563485	124.400000
3084.764131	124.600000
3085.963087	145.000000
3087.158849	137.200000
3088.357440	124.000000
3089.552837	109.400000
3090.749557	110.200000
3091.943085	134.200000
3093.139441	107.200000
3094.334111	106.800000
3095.525590	132.000000
3096.721400	116.000000
3097.912517	118.200000
3099.104956	123.800000
3100.294208	100.400000
3101.486286	94.000000
3102.676679	119.600000
3103.863887	121.800000
3105.052418	106.200000
3106.242270	100.600000
3107.428939	128.800000
3108.615428	104.600000
3109.801737	107.200000
3110.989368	99.200000
3112.173818	103.800000
3113.356587	113.400000
3114.542179	102.200000
3115.726092	127.400000
3116.908326	87.800000
3118.090381	97.200000
3119.272259	133.400000
3120.453958	117.200000
3121.633979	83.400000
3122.812324	89.400000
3123.993489	132.200000
3125.171480	110.800000
3126.349293	117.600000
3127.526929	114.800000
3128.702890	101.000000
3129.878674	108.800000
3131.055780	146.200000
3132.231211	112.400000
3133.404969	113.400000
3134.577055	127.400000
3135.750461	95.400000
3136.923691	108.200000
3138.095250	101.200000
3139.268129	125.200000
3140.437842	119.800000
3141.608874	120.200000
3142.778237	129.600000
3143.945930	114.000000
3145.116438	106.800000
3146.282287	86.400000
3147.452446	116.200000
3148.617947	99.400000
3149.783275	107.800000
3150.948429	136.400000
3152.113409	132.200000
3153.279709	112.400000
3154.441357	118.200000
3155.604324	96.200000
3156.767119	114.600000
3157.929741	102.800000
3159.090698	120.200000
3160.251482	129.800000
3161.412094	105.400000
3162.571042	128.200000
3163.729819	99.800000
3164.888424	92.400000
3166.046857	90.400000
3167.205118	96.000000
3168.361717	117.600000
3169.516655	84.400000
3170.672912	112.200000
3171.827508	98.600000
3172.981934	98.200000
3174.134700	101.200000
3175.287296	100.600000
3176.439721	101.200000
3177.591977	118.400000
3178.744062	108.800000
3179.893002	118.200000
3181.044748	97.800000
3182.194836	106.200000
3183.343268	121.600000
3184.491531	114.400000
3185.639624	120.200000
3186.787549	110.200000
3187.933819	83.000000
3189.079920	96.800000
3190.224366	128.400000
3191.368645	114.200000
3192.512756	106.000000
3193.658184	109.600000
3194.800474	79.800000
3195.942597	97.000000
3197.084552	118.800000
3198.226341	121.000000
3199.367962	115.200000
3200.506447	97.600000
3201.646250	131.200000
3202.787371	113.200000
3203.925357	125.600000
3205.061694	85.800000
3206.197865	104.400000
3207.335354	102.600000
3208.471193	131.200000
3209.608350	113.400000
3210.740894	112.200000
3211.877720	118.600000
3213.009934	130.800000
3214.143465	78.200000
3215.276832	117.200000
3216.407071	104.800000
3217.540108	112.200000
3218.670019	87.200000
3219.801246	105.800000
3220.929349	89.800000
3222.060248	135.400000
3223.189503	96.000000
3224.317115	122.000000
3225.441605	99.600000
3226.570369	102.000000
3227.696012	124.800000
3228.821493	105.800000
3229.945332	90.200000
3231.071965	112.600000
3232.194001	102.600000
3233.317353	110.000000
3234.440543	84.200000
3235.563571	109.000000
3236.684959	86.600000
3237.806186	96.800000
3238.925774	103.600000
3240.045201	98.000000
3241.162990	111.600000
3242.283572	101.400000
3243.401039	114.800000
3244.518346	90.400000
3245.635493	114.400000
3246.751004	113.200000
3247.867830	85.400000
3248.981545	109.200000
3250.098050	98.600000
3251.212921	100.600000
3252.324683	85.600000
3253.436285	116.000000
3254.549203	107.800000
3255.661962	118.000000
3256.771614	124.000000
3257.882580	140.000000
3258.993388	87.600000
3260.102565	97.400000
3261.210110	97.800000
3262.318969	74.000000
3263.427671	105.400000
3264.533270	88.000000
3265.640183	98.000000
3266.745467	94.400000
3267.852066	63.600000
3268.955564	107.800000
3270.060376	125.000000
3271.165031	113.400000
3272.266587	85.400000
3273.367988	116.200000
3274.470702	115.400000
3275.573259	87.800000
3276.672720	91.200000
3277.774965	100.400000
3278.874114	113.600000
3279.971639	96.600000
3281.069008	108.400000
3282.169160	110.400000
3283.266218	112.400000
3284.363121	87.200000
3285.459869	104.200000
3286.552059	103.000000
3287.648497	96.400000
3288.743313	112.400000
3289.837975	99.600000
3290.931015	64.000000
3292.023901	111.600000
3293.115166	80.400000
3294.207744	117.000000
3295.298701	98.000000
3296.388039	103.200000
3297.477224	84.200000
3298.567722	104.400000
3299.655135	119.800000
3300.742396	112.200000
3301.830969	87.200000
3302.919389	101.000000
3304.003262	106.800000
3305.091377	105.200000
3306.176411	80.200000
3307.259828	109.800000
3308.344558	69.000000
3309.427673	112.600000
3310.512099	113.600000
3311.593447	94.800000
3312.676107	90.800000
3313.757153	109.800000
3314.838048	96.200000
3315.917329	89.600000
3316.996461	120.200000
3318.076903	105.800000
3319.154271	105.800000
3320.232951	99.200000
3321.310020	111.800000
3322.386938	88.800000
3323.462245	74.400000
3324.537403	92.000000
3325.613872	86.200000
3326.687271	68.000000
3327.760521	116.800000
3328.835081	105.600000
3329.908033	80.600000
3330.979376	101.400000
3332.052031	106.000000
3333.121618	71.600000
3334.192516	122.000000
3335.261807	111.800000
3336.332409	116.800000
3337.401404	52.200000
3338.468793	83.600000
3339.534577	92.000000
3340.604587	100.200000
3341.671534	94.800000
3342.735419	101.600000
3343.802072	111.000000
3344.867120	103.800000
3345.930565	93.800000
3346.993864	96.200000
3348.057016	133.400000
3349.120022	88.000000
3350.182882	88.800000
3351.244140	99.800000
3352.302341	101.000000
3353.364763	100.800000
3354.424128	91.800000
3355.483348	87.000000
3356.543878	95.400000
3357.599898	100.400000
3358.658682	112.600000
3359.712959	77.000000
3360.770000	91.000000
3361.825443	86.800000
3362.882194	98.000000
3363.937347	84.600000
3364.990903	114.000000
3366.042863	117.400000
3367.097584	86.400000
3368.149256	91.600000
3369.200785	101.800000
3370.253622	98.600000
3371.303412	100.400000
3372.354511	86.400000
3373.402564	108.600000
3374.453376	109.000000
3375.501144	99.000000
3376.548769	115.000000
3377.596251	87.200000
3378.642141	95.000000
3379.689339	92.600000
3380.733495	98.000000
3381.780409	93.200000
3382.825731	99.400000
3383.868012	103.000000
3384.910153	118.800000
3385.953601	95.800000
3386.996909	105.400000
3388.038626	110.400000
3389.080202	79.600000
3390.121638	101.400000
3391.161484	100.200000
3392.199742	71.600000
3393.239309	106.400000
3394.278734	78.800000
3395.316572	101.200000
3396.352823	95.200000
3397.388935	130.000000
3398.426354	101.000000
3399.460740	70.600000
3400.496433	84.600000
3401.531987	102.200000
3402.564510	88.000000
3403.599786	122.200000
3404.632031	101.000000
3405.664138	95.000000
3406.694661	101.800000
3407.726491	108.200000
3408.758183	117.600000
3409.786847	119.800000
3410.815374	98.000000
3411.845208	94.800000
3412.874903	88.400000
3413.901573	94.400000
3414.929550	121.600000
3415.954502	111.200000
3416.982204	97.800000
3418.006883	96.200000
3419.032868	100.400000
3420.057273	109.400000
3421.081542	89.800000
3422.104232	85.200000
3423.126786	98.200000
3424.150646	81.400000
3425.171486	81.400000
3426.192191	83.800000
3427.214201	80.400000
3428.233193	100.800000
3429.252050	88.400000
3430.272212	96.200000
3431.289358	75.000000
