-117.967255	-5.200000
-115.297655	-26.800000
-112.630990	0.200000
-109.965077	-8.200000
-107.302096	-1.400000
-104.637686	5.000000
-101.976206	6.200000
-99.313296	-5.800000
-96.655494	-11.600000
-93.996262	-3.800000
-91.337778	13.000000
-88.682218	3.800000
-86.025230	3.400000
-83.373339	-21.600000
-80.720019	14.400000
-78.069619	-6.200000
-75.417789	5.600000
-72.771050	-11.000000
-70.122881	-5.800000
-67.475456	-6.600000
-64.830944	-9.200000
-62.185004	-10.800000
-59.544145	14.400000
-56.901857	-15.000000
-54.262477	-3.200000
-51.621669	-32.000000
-48.981601	15.200000
-46.346605	10.200000
-43.710181	-13.400000
-41.076659	-22.600000
-38.441709	10.800000
-35.811824	-15.400000
-33.178347	6.200000
-30.549932	11.200000
-27.922251	-3.000000
-25.293141	4.000000
-22.669088	1.200000
-20.041446	-3.800000
-17.418857	1.000000
-14.797000	24.000000
-12.175873	49.800000
-9.555476	76.400000
-6.937968	247.600000
-4.319030	832.400000
-1.702979	1871.200000
0.912344	2313.200000
3.526940	1387.000000
6.138653	163.800000
8.751795	32.800000
11.359903	30.000000
13.971593	23.600000
16.578252	-7.200000
19.186339	11.200000
21.793702	-15.000000
24.396040	11.000000
27.001956	-16.200000
29.602850	28.200000
32.205172	23.600000
34.802477	27.400000
37.403357	17.400000
39.999223	-8.400000
42.596516	-2.200000
45.193090	1.000000
47.784655	-1.600000
50.377648	7.000000
52.967780	3.600000
55.559340	-0.200000
58.148040	-5.400000
60.738167	4.400000
63.323296	-2.400000
65.909851	6.200000
68.495693	-4.800000
71.078681	-4.800000
73.663095	6.200000
76.240381	6.600000
78.821233	9.600000
81.399236	0.000000
83.976529	-12.000000
86.555248	-2.600000
89.128986	-7.600000
91.704150	1.400000
94.276471	-13.400000
96.848084	-5.800000
99.416857	4.200000
101.987057	16.200000
104.554419	3.800000
107.123206	22.600000
109.689157	1.200000
112.252273	-3.600000
114.818945	14.200000
117.376396	29.800000
119.939532	-9.600000
122.497708	23.400000
125.059439	12.200000
127.616213	31.800000
130.174414	25.400000
132.727662	55.600000
135.280211	93.800000
137.836311	133.600000
140.387464	160.000000
142.937918	192.000000
145.487675	246.200000
148.034614	232.000000
150.580856	232.200000
153.128524	250.000000
155.675496	281.000000
158.217533	247.000000
160.758876	254.600000
163.299526	261.400000
165.841602	247.600000
168.380866	252.800000
170.917322	270.200000
173.453086	240.400000
175.990276	247.000000
178.526775	243.000000
181.060468	238.200000
183.591358	255.200000
186.121559	221.400000
188.653185	246.400000
191.182010	243.400000
193.708036	254.800000
196.233376	249.400000
198.760142	241.200000
201.284110	224.400000
203.807394	265.400000
206.329993	234.800000
208.849799	256.400000
211.368922	261.600000
213.887362	270.200000
216.407226	279.600000
218.920089	271.000000
221.436483	265.600000
223.952195	284.400000
226.463017	280.200000
228.975265	270.200000
231.484729	241.600000
233.993515	273.800000
236.501623	243.200000
239.011154	261.200000
241.515805	242.200000
244.019780	243.600000
246.525180	275.200000
249.025704	240.400000
251.529751	255.200000
254.026828	260.800000
256.527427	255.400000
259.025255	283.000000
261.522410	250.200000
264.018892	268.200000
266.510511	219.600000
269.005650	263.200000
271.498023	237.800000
273.989725	283.200000
276.478663	271.200000
278.969026	277.800000
281.456626	281.400000
283.941467	259.200000
286.429823	272.600000
288.911239	264.600000
291.396169	273.200000
293.876254	252.200000
296.359851	248.200000
298.838605	262.200000
301.318783	271.400000
303.796208	278.000000
306.272970	295.000000
308.749069	301.000000
311.222419	247.600000
313.695107	296.800000
316.167134	297.200000
318.638500	325.800000
321.107122	333.600000
323.575084	342.400000
326.044468	299.000000
328.509030	325.400000
330.977096	282.600000
333.440342	329.000000
335.902930	261.600000
338.364862	288.600000
340.826137	255.800000
343.284678	305.800000
345.744641	270.200000
348.201871	291.800000
350.658447	268.600000
353.114369	304.400000
355.567562	265.800000
358.022176	266.400000
360.471989	299.800000
362.925298	322.200000
365.373809	276.600000
367.821669	281.200000
370.270950	276.400000
372.715438	288.000000
375.161348	259.400000
377.606609	297.000000
380.049150	285.400000
382.491044	263.600000
384.932291	278.400000
387.370822	269.400000
389.810775	278.800000
392.248014	262.600000
394.682541	307.000000
397.120556	293.200000
399.553794	268.600000
401.988454	292.600000
404.418340	268.200000
406.851712	289.200000
409.280314	294.200000
411.708275	284.000000
414.137656	294.400000
416.562272	301.400000
418.988310	260.800000
421.413707	294.800000
423.838464	282.800000
426.258463	281.200000
428.679883	288.400000
431.098606	273.200000
433.518750	267.200000
435.936199	296.000000
438.355068	274.400000
440.771244	260.200000
443.182673	297.000000
445.597578	296.400000
448.009793	271.000000
450.421374	300.600000
452.832321	289.400000
455.240582	266.200000
457.648210	261.200000
460.055207	287.200000
462.461571	304.200000
464.865253	286.000000
467.268305	270.600000
469.670727	293.000000
472.072519	248.600000
474.471634	259.400000
476.872168	284.800000
479.272073	287.800000
481.667255	296.200000
484.065904	265.800000
486.459833	244.200000
488.853136	292.200000
491.245813	274.200000
493.637865	273.600000
496.031335	252.800000
498.420094	264.200000
500.806186	254.200000
503.193697	258.200000
505.580586	244.000000
507.964811	245.800000
510.350455	250.000000
512.733436	215.200000
515.113757	222.200000
517.495497	215.000000
519.874578	202.400000
522.255078	217.000000
524.632920	217.600000
527.008107	221.000000
529.382676	217.200000
531.758664	189.000000
534.131998	206.600000
536.506750	239.200000
538.876817	198.200000
541.246268	201.000000
543.617137	175.800000
545.983326	224.400000
548.350933	198.800000
550.715894	203.400000
553.080242	188.800000
555.443978	199.200000
557.809130	198.400000
560.169611	220.600000
562.531510	188.400000
564.890768	199.000000
567.247389	176.600000
569.607454	198.800000
571.960828	192.200000
574.317647	186.200000
576.671831	186.000000
579.025407	198.400000
581.378374	200.800000
583.728710	204.800000
586.080462	181.800000
588.425538	163.800000
590.776078	165.000000
593.119944	186.200000
595.469272	178.800000
597.813952	201.600000
600.156006	224.000000
602.499478	167.800000
604.840327	221.000000
607.180574	203.400000
609.518200	167.200000
611.859261	195.200000
614.195684	200.600000
616.533524	206.000000
618.868747	179.800000
621.201354	205.800000
623.535377	177.400000
625.866787	189.000000
628.197598	161.400000
630.527811	208.400000
632.857426	195.600000
635.182419	209.800000
637.512853	182.400000
639.838665	181.200000
642.161871	177.200000
644.486492	188.200000
646.808508	188.000000
649.129931	167.600000
651.448750	156.400000
653.768985	180.800000
656.088627	167.600000
658.405668	186.800000
660.722117	178.800000
663.035968	162.000000
665.351235	198.200000
667.663905	169.800000
669.977990	172.800000
672.287475	177.800000
674.598376	177.200000
676.906684	181.400000
679.214404	164.600000
681.523539	176.800000
683.828081	173.200000
686.132036	176.600000
688.435406	150.600000
690.740190	201.000000
693.040388	148.000000
695.342000	183.200000
697.643028	154.600000
699.939473	188.200000
702.237334	180.400000
704.534611	211.800000
706.831305	177.000000
709.123423	167.800000
711.418952	184.600000
713.709908	197.400000
716.002277	169.600000
718.292072	180.400000
720.581286	175.400000
722.869921	186.200000
725.155984	188.400000
727.443460	194.400000
729.728365	179.400000
732.012693	196.600000
734.294452	184.800000
736.577625	171.800000
738.860221	164.800000
741.138262	187.200000
743.417716	164.400000
745.696595	188.400000
747.974898	185.000000
750.248652	180.000000
752.523820	192.200000
754.798414	201.800000
757.070448	166.600000
759.343896	196.800000
761.614786	175.400000
763.883120	162.600000
766.152867	189.200000
768.420060	170.000000
770.686682	167.000000
772.952734	199.200000
775.216235	169.400000
777.481149	187.600000
779.745493	178.200000
782.005308	181.200000
784.266535	166.200000
786.527195	188.200000
788.785309	209.600000
791.040878	163.400000
793.299838	174.400000
795.552299	193.400000
797.810127	193.200000
800.063435	194.200000
802.314204	181.200000
804.566385	186.200000
806.816028	180.400000
809.067082	189.200000
811.313625	177.400000
813.561580	209.800000
815.807001	195.000000
818.053833	175.600000
820.300104	163.400000
822.541871	205.000000
824.787020	139.200000
827.025697	176.400000
829.267756	166.000000
831.505317	206.400000
833.744290	202.000000
835.980736	184.600000
838.218593	181.400000
840.453925	179.400000
842.686734	198.400000
844.920954	173.200000
847.152652	174.400000
849.383794	194.000000
851.614383	180.800000
853.844416	192.800000
856.073896	168.800000
858.298894	180.200000
860.527267	198.200000
862.751161	173.600000
864.976465	152.000000
867.197294	164.400000
869.421495	188.600000
871.641223	207.800000
873.862362	177.800000
876.082950	190.400000
878.301028	200.400000
880.520516	206.200000
882.735538	198.600000
884.950013	196.000000
887.163939	172.000000
889.377319	191.200000
891.590151	167.600000
893.802437	190.000000
896.012220	185.600000
898.221458	183.800000
900.430151	167.000000
902.636345	175.800000
904.843948	162.200000
907.049053	204.400000
909.253615	161.200000
911.455682	191.400000
913.659158	186.400000
915.860140	181.600000
918.060581	174.800000
920.262429	148.000000
922.457887	163.200000
924.656704	166.800000
926.851082	193.200000
929.048818	179.800000
931.242118	175.200000
933.436827	193.800000
935.629050	179.200000
937.820735	196.400000
940.011882	139.000000
942.200546	201.000000
944.388673	168.600000
946.574320	183.600000
948.763319	178.000000
950.947895	186.400000
953.131936	194.200000
955.319327	200.000000
957.498414	182.000000
959.680852	217.400000
961.862756	181.000000
964.042186	195.000000
966.219142	177.200000
968.397507	210.200000
970.577279	181.800000
972.750702	205.400000
974.927471	189.400000
977.099833	176.800000
979.273603	209.400000
981.442969	216.800000
983.615679	199.600000
985.785924	204.600000
987.955640	212.600000
990.124827	222.800000
992.289617	182.400000
994.457748	220.000000
996.621485	213.200000
998.786628	214.000000
1000.949312	217.200000
1003.111471	222.200000
1005.271173	231.400000
1007.430351	227.400000
1009.590935	213.600000
1011.749064	218.400000
1013.906669	212.000000
1016.063751	199.000000
1018.220310	216.200000
1020.372489	223.600000
1022.526074	215.800000
1024.679138	229.600000
1026.829754	199.400000
1028.981775	234.400000
1031.129423	229.800000
1033.280403	255.400000
1035.427012	241.200000
1037.573103	225.400000
1039.718674	222.000000
1041.865651	235.600000
1044.006339	229.400000
1046.150357	236.600000
1048.291934	240.600000
1050.432995	232.400000
1052.575460	245.200000
1054.711646	250.400000
1056.851158	234.400000
1058.986314	231.600000
1061.124795	260.000000
1063.258922	254.000000
1065.392536	214.000000
1067.527555	247.000000
1069.658224	227.000000
1071.790298	223.200000
1073.919943	258.400000
1076.049076	234.800000
1078.177697	229.200000
1080.305807	251.800000
1082.431491	235.800000
1084.556665	242.600000
1086.683243	235.600000
1088.805483	213.400000
1090.929128	229.800000
1093.048439	219.200000
1095.172978	208.400000
1097.291272	249.200000
1099.410971	215.200000
1101.528251	233.600000
1103.645025	234.200000
1105.761292	219.400000
1107.875144	197.800000
1109.990399	223.400000
1112.101331	201.800000
1114.215576	217.200000
1116.325500	215.600000
1118.436828	231.800000
1120.547651	215.200000
1122.654158	211.200000
1124.763975	223.400000
1126.869477	227.200000
1128.976382	229.600000
1131.077072	224.400000
1133.182974	236.800000
1135.284567	223.800000
1137.387563	215.400000
1139.490058	233.800000
1141.586346	213.200000
1143.687842	206.000000
1145.785034	214.600000
1147.881729	231.400000
1149.977925	232.800000
1152.073624	216.000000
1154.168824	192.800000
1156.261629	225.800000
1158.355835	225.000000
1160.443850	223.200000
1162.537063	223.600000
1164.624088	222.600000
1166.714412	199.800000
1168.800449	246.200000
1170.889783	221.800000
1172.972936	199.400000
1175.057491	215.400000
1177.143448	208.800000
1179.225123	216.600000
1181.308200	241.600000
1183.388891	193.200000
1185.469090	216.400000
1187.548798	205.200000
1189.628015	220.000000
1191.704850	223.800000
1193.779304	225.200000
1195.857049	185.000000
1197.930525	229.200000
1200.005401	204.000000
1202.076010	241.200000
1204.148021	226.400000
1206.217655	227.000000
1208.288690	205.200000
1210.359237	237.800000
1212.425523	262.000000
1214.493210	254.000000
1216.558525	201.400000
1218.625240	237.400000
1220.687699	208.600000
1222.753443	219.600000
1224.814934	202.600000
1226.877824	212.800000
1228.938347	197.000000
1230.998386	213.600000
1233.057943	213.400000
1235.115134	209.000000
1237.171844	223.200000
1239.226191	207.800000
1241.283818	220.800000
1243.339083	237.200000
1245.390107	195.400000
1247.442531	219.200000
1249.494475	235.800000
1251.544061	204.400000
1253.593168	208.200000
1255.641797	226.400000
1257.689947	196.800000
1259.737618	206.600000
1261.781060	202.200000
1263.827776	208.800000
1265.872139	219.200000
1267.916026	208.000000
1269.957561	232.200000
1271.996747	220.400000
1274.039206	212.800000
1276.077442	246.000000
1278.117077	211.600000
1280.156237	228.200000
1282.191178	203.000000
1284.227518	212.200000
1286.261514	246.800000
1288.296908	233.000000
1290.328088	226.200000
1292.360666	236.200000
1294.392773	247.600000
1296.422539	236.800000
1298.453703	234.800000
1300.480659	255.600000
1302.509013	259.000000
1304.533163	273.400000
1306.560577	213.200000
1308.583789	255.800000
1310.608399	235.200000
1312.630675	279.200000
1314.654348	260.400000
1316.675688	258.200000
1318.696560	271.000000
1320.716965	281.200000
1322.733177	284.200000
1324.750786	306.800000
1326.766067	308.000000
1328.784607	314.000000
1330.798958	312.400000
1332.810983	319.400000
1334.826265	286.600000
1336.837362	320.000000
1338.849856	292.800000
1340.858167	291.600000
1342.869734	301.200000
1344.875261	317.400000
1346.884044	290.000000
1348.888649	307.600000
1350.896508	278.200000
1352.903905	280.200000
1354.905271	273.200000
1356.908034	269.400000
1358.910336	269.600000
1360.912179	253.600000
1362.913562	244.000000
1364.912632	285.400000
1366.911243	251.400000
1368.909396	255.600000
1370.907090	261.400000
1372.900622	275.200000
1374.895550	247.400000
1376.890020	218.800000
1378.884035	236.000000
1380.875741	232.600000
1382.866993	247.200000
1384.855939	245.600000
1386.846280	248.600000
1388.836166	222.400000
1390.823749	243.400000
1392.810877	249.800000
1394.795704	212.600000
1396.781926	198.400000
1398.765848	197.000000
1400.749317	217.400000
1402.732333	216.400000
1404.713052	241.000000
1406.695165	194.800000
1408.674982	245.600000
1410.654347	212.800000
1412.629574	238.200000
1414.608040	229.800000
1416.584211	231.600000
1418.559934	185.600000
1420.535207	200.000000
1422.508189	235.400000
1424.480723	241.000000
1426.452809	205.800000
1428.424448	225.800000
1430.391958	183.800000
1432.364542	223.800000
1434.329321	214.800000
1436.299171	199.400000
1438.264898	224.000000
1440.232017	231.600000
1442.196853	212.600000
1444.157569	233.400000
1446.123354	241.400000
1448.083183	213.400000
1450.044405	191.600000
1452.007020	258.200000
1453.965520	225.600000
1455.923577	239.200000
1457.881193	242.000000
1459.838367	198.200000
1461.793265	222.400000
1463.749555	246.800000
1465.703571	230.800000
1467.657147	224.400000
1469.608450	213.600000
1471.561145	224.200000
1473.511569	228.600000
1475.461553	204.600000
1477.411099	226.400000
1479.358376	215.000000
1481.303386	246.800000
1483.249787	248.600000
1485.195751	247.400000
1487.141278	235.600000
1489.084540	218.400000
1491.027365	245.000000
1492.967927	240.400000
1494.909880	236.200000
1496.849571	238.000000
1498.788828	226.600000
1500.727649	225.200000
1502.664211	227.200000
1504.602164	236.200000
1506.537858	228.600000
1508.473119	216.400000
1510.406124	235.400000
1512.338696	225.000000
1514.270836	273.200000
1516.202544	231.600000
1518.131998	235.200000
1520.062843	238.000000
1521.993256	240.600000
1523.919597	248.800000
1525.847329	286.000000
1527.772810	264.600000
1529.697862	271.800000
1531.622485	262.000000
1533.546679	285.800000
1535.468625	273.400000
1537.391962	326.800000
1539.313053	306.800000
1541.231899	329.600000
1543.152134	344.400000
1545.070127	371.800000
1546.987693	395.800000
1548.903017	438.400000
1550.819731	429.400000
1552.732390	476.600000
1554.648253	523.800000
1556.561876	565.800000
1558.473262	585.200000
1560.386036	628.000000
1562.294761	661.000000
1564.204875	718.400000
1566.114566	681.000000
1568.023834	716.600000
1569.930868	651.800000
1571.835669	688.000000
1573.741859	663.400000
1575.645817	619.000000
1577.549354	569.800000
1579.452471	507.800000
1581.353358	485.600000
1583.255634	457.200000
1585.155682	432.200000
1587.057117	394.000000
1588.954519	386.800000
1590.851502	319.800000
1592.748067	335.400000
1594.646020	331.400000
1596.538138	320.400000
1598.433449	304.600000
1600.328343	290.400000
1602.221015	299.600000
1604.113271	288.600000
1606.003306	281.000000
1607.892927	268.400000
1609.782131	267.400000
1611.670921	252.800000
1613.557493	252.800000
1615.445453	263.400000
1617.329396	249.000000
1619.214727	227.200000
1621.099643	259.400000
1622.982346	206.800000
1624.866436	236.400000
1626.746515	240.200000
1628.627980	219.400000
1630.507235	219.400000
1632.387876	237.800000
1634.262713	222.400000
1636.142531	222.800000
1638.018345	213.200000
1639.893748	243.400000
1641.770537	204.800000
1643.641530	230.600000
1645.515704	227.800000
1647.385880	209.200000
1649.259236	196.200000
1651.130389	213.800000
1652.999340	198.000000
1654.869677	204.200000
1656.736020	186.600000
1658.603749	208.400000
1660.469279	222.600000
1662.336195	209.400000
1664.199122	185.600000
1666.063434	173.000000
1667.925550	218.600000
1669.787262	199.600000
1671.650358	177.200000
1673.511260	170.200000
1675.369968	198.800000
1677.228273	192.400000
1679.087963	152.400000
1680.941885	174.800000
1682.798981	191.800000
1684.655674	210.400000
1686.508391	197.400000
1688.364278	186.200000
1690.216192	149.000000
1692.067705	170.600000
1693.918817	169.000000
1695.769529	173.400000
1697.619840	185.000000
1699.467966	178.200000
1701.317477	182.200000
1703.161239	169.000000
1705.009950	183.400000
1706.852916	191.000000
1708.699047	180.200000
1710.541216	212.600000
1712.386551	169.600000
1714.226145	166.600000
1716.067123	186.200000
1717.909484	205.400000
1719.747889	187.200000
1721.587677	189.800000
1723.425290	170.800000
1725.262507	199.800000
1727.097551	207.200000
1728.933978	174.200000
1730.768233	172.400000
1732.602093	181.800000
1734.435560	199.800000
1736.265080	190.200000
1738.097759	157.000000
1739.926494	197.000000
1741.758386	195.000000
1743.586337	180.600000
1745.413895	187.000000
1747.241061	195.800000
1749.067836	174.600000
1750.894220	199.000000
1752.716666	184.800000
1754.542268	194.600000
1756.363935	168.600000
1758.186984	190.000000
1760.007871	178.800000
1761.828370	173.000000
1763.650250	168.800000
1765.466430	189.600000
1767.285762	186.000000
1769.101167	182.000000
1770.919722	170.800000
1772.734352	168.400000
1774.548596	166.200000
1776.362452	174.400000
1778.175922	183.800000
1779.987239	189.400000
1781.799937	178.200000
1783.612248	195.800000
1785.420642	192.200000
1787.230416	172.600000
1789.036276	170.600000
1790.845281	167.000000
1792.650373	183.200000
1794.456846	179.400000
1796.262935	166.200000
1798.065114	186.600000
1799.870436	152.400000
1801.671850	185.400000
1803.474644	189.000000
1805.273532	151.400000
1807.073801	167.600000
1808.873688	167.000000
1810.671434	159.800000
1812.468798	189.800000
1814.265783	162.000000
1816.062387	177.000000
1817.856852	150.400000
1819.652696	172.600000
1821.442886	182.800000
1823.237971	210.600000
1825.027405	143.800000
1826.819975	181.800000
1828.610410	201.400000
1830.398711	173.800000
1832.190147	154.400000
1833.975937	187.000000
1835.763107	173.800000
1837.548145	191.200000
1839.336317	172.800000
1841.120603	175.800000
1842.902760	195.400000
1844.686295	196.800000
1846.467702	158.800000
1848.250488	159.400000
1850.029393	163.000000
1851.809678	183.200000
1853.587836	150.000000
1855.367373	160.600000
1857.144785	190.000000
1858.920073	164.400000
1860.696739	161.200000
1862.471283	152.000000
1864.247205	149.800000
1866.017506	187.200000
1867.790935	155.800000
1869.562244	170.200000
1871.333183	155.200000
1873.105498	164.200000
1874.872200	157.800000
1876.642028	171.000000
1878.407992	160.800000
1880.177079	195.000000
1881.942306	168.000000
1883.707163	176.600000
1885.473398	168.400000
1887.235774	174.600000
1888.997783	160.800000
1890.759424	183.000000
1892.520699	174.800000
1894.281606	171.800000
1896.042147	157.000000
1897.800578	139.400000
1899.558644	140.800000
1901.314601	173.000000
1903.071935	158.000000
1904.828904	171.800000
1906.583767	184.400000
1908.336524	195.400000
1910.088918	143.000000
1911.842687	165.000000
1913.594353	164.200000
1915.343917	161.600000
1917.094856	178.400000
1918.845433	188.600000
1920.592170	150.800000
1922.340284	174.000000
1924.086298	137.600000
1925.833688	179.200000
1927.578979	136.800000
1929.322173	196.800000
1931.066742	163.200000
1932.809216	190.000000
1934.551329	189.000000
1936.293082	152.000000
1938.034476	183.600000
1939.773775	180.600000
1941.512716	150.800000
1943.251298	160.000000
1944.987789	170.400000
1946.723922	161.500000
1948.461429	152.600000
1950.195114	170.000000
1951.930174	192.200000
1953.663146	176.400000
1955.395760	146.000000
1957.128019	177.400000
1958.859921	182.600000
1960.589737	170.600000
1962.317468	156.000000
1964.046574	184.200000
1965.775325	148.200000
1967.501992	187.800000
1969.228305	188.600000
1970.955991	178.600000
1972.678141	170.800000
1974.403392	177.400000
1976.124837	173.800000
1977.849381	202.200000
1979.571846	160.200000
1981.290507	165.400000
1983.012267	162.000000
1984.730225	147.000000
1986.449556	148.000000
1988.165088	183.000000
1989.885440	146.400000
1991.601994	184.800000
1993.314751	166.200000
1995.030605	164.200000
1996.744385	166.400000
1998.457816	187.600000
2000.169176	180.400000
2001.881908	184.200000
2003.590850	174.600000
2005.302885	178.400000
2007.009410	171.000000
2008.719028	197.800000
2010.426578	180.400000
2012.133781	181.800000
2013.838918	167.000000
2015.543708	193.600000
2017.249870	173.800000
2018.952250	163.400000
2020.656002	194.000000
2022.357690	185.400000
2024.059034	178.000000
2025.760032	171.600000
2027.458969	180.400000
2029.159278	170.600000
2030.855812	173.400000
2032.553717	160.800000
2034.249563	173.400000
2035.948495	176.800000
2037.641941	170.800000
2039.336758	182.000000
2041.031233	158.400000
2042.721939	195.800000
2044.415729	167.800000
2046.105752	209.800000
2047.797146	153.800000
2049.486487	165.400000
2051.177198	193.000000
2052.864146	177.000000
2054.550755	142.600000
2056.238734	189.000000
2057.922952	161.000000
2059.608542	184.200000
2061.293792	162.800000
2062.976994	181.800000
2064.661565	192.000000
2066.340674	169.200000
2068.024568	172.000000
2069.703002	170.600000
2071.384512	160.600000
2073.062272	182.800000
2074.739694	153.800000
2076.418486	180.000000
2078.095236	151.800000
2079.769944	169.600000
2081.446021	165.600000
2083.120058	172.400000
2084.793759	129.000000
2086.467125	147.800000
2088.138453	161.800000
2089.809446	178.200000
2091.480105	172.200000
2093.150429	152.200000
2094.820420	172.600000
2096.488375	161.800000
2098.155997	142.400000
2099.821584	161.800000
2101.488540	176.000000
2103.153463	178.600000
2104.818054	185.200000
2106.480613	174.000000
2108.144540	167.200000
2109.806437	145.400000
2111.468002	211.000000
2113.129236	179.200000
2114.788442	165.200000
2116.447317	182.400000
2118.105863	162.200000
2119.764079	157.200000
2121.418571	160.400000
2123.076128	159.200000
2124.733356	172.000000
2126.386862	167.800000
2128.041736	158.200000
2129.692892	198.600000
2131.347109	163.400000
2132.997610	175.400000
2134.649477	157.200000
2136.295936	165.800000
2137.947150	164.400000
2139.594650	195.200000
2141.243517	172.800000
2142.890366	157.400000
2144.536888	194.800000
2146.183085	192.400000
2147.825574	178.000000
2149.471121	189.400000
2151.112961	150.000000
2152.757858	200.800000
2154.399050	166.400000
2156.039918	199.800000
2157.680462	158.600000
2159.318994	171.200000
2160.958892	162.600000
2162.595090	154.000000
2164.232655	152.400000
2165.869896	190.800000
2167.505128	171.400000
2169.140039	161.400000
2170.774628	164.400000
2172.408895	175.800000
2174.039469	158.800000
2175.673095	160.600000
2177.303029	157.600000
2178.934328	176.800000
2180.563622	162.200000
2182.192597	173.400000
2183.821252	159.600000
2185.449588	185.600000
2187.075922	186.600000
2188.701937	210.600000
2190.325951	199.600000
2191.951329	175.200000
2193.574708	167.200000
2195.199450	167.400000
2196.820512	193.400000
2198.441257	194.400000
2200.063367	165.800000
2201.683479	159.600000
2203.301594	173.600000
2204.919394	192.800000
2206.536879	157.400000
2208.154048	194.200000
2209.770902	171.600000
2211.387441	174.400000
2213.001986	178.400000
2214.614539	176.200000
2216.228456	157.400000
2217.840382	171.600000
2219.453671	177.400000
2221.064970	188.400000
2222.674279	185.400000
2224.284952	182.000000
2225.893636	174.200000
2227.502008	174.000000
2229.108392	190.800000
2230.716140	180.400000
2232.321901	168.400000
2233.927351	166.600000
2235.530816	167.400000
2237.135644	182.800000
2238.738488	159.400000
2240.339350	174.800000
2241.941573	173.600000
2243.541815	182.400000
2245.143419	154.600000
2246.741371	154.800000
2248.340685	157.600000
2249.938019	162.000000
2251.535044	151.600000
2253.133432	174.600000
2254.728171	159.000000
2256.320933	185.200000
2257.915058	159.600000
2259.510544	160.800000
2261.102386	141.200000
2262.693921	185.600000
2264.286817	161.800000
2265.874404	187.200000
2267.466688	165.000000
2269.053664	182.800000
2270.643669	178.400000
2272.228369	160.600000
2273.817762	161.400000
2275.401854	174.000000
2276.987307	151.400000
2278.570790	183.600000
2280.157300	147.600000
2281.740175	180.200000
2283.322748	184.200000
2284.905017	166.800000
2286.483657	164.200000
2288.065320	152.800000
2289.643355	160.800000
2291.224413	159.000000
2292.801844	170.900000
2294.377312	182.800000
2295.955802	165.400000
2297.530668	186.200000
2299.105233	162.400000
2300.679498	170.200000
2302.253462	154.000000
2303.827126	170.400000
2305.400489	161.800000
2306.970234	147.800000
2308.539680	142.000000
2310.112144	183.400000
2311.679334	179.400000
2313.249542	164.400000
2314.816135	185.800000
2316.384088	161.000000
2317.950085	170.400000
2319.515785	189.000000
2321.081188	174.600000
2322.644636	170.800000
2324.209444	170.600000
2325.770644	166.600000
2327.334858	204.200000
2328.893810	154.600000
2330.455777	171.800000
2332.015793	166.800000
2333.575513	168.200000
2335.133284	147.000000
2336.690760	174.400000
2338.247942	185.400000
2339.803176	153.400000
2341.358117	193.200000
2342.912764	163.400000
2344.467116	155.800000
2346.021176	172.200000
2347.574941	172.200000
2349.126763	173.800000
2350.676641	172.600000
2352.229527	167.800000
2353.777171	162.600000
2355.327822	169.800000
2356.874882	145.400000
2358.423301	146.600000
2359.971427	138.600000
2361.515965	207.600000
2363.061861	159.400000
2364.605819	174.600000
2366.151134	170.400000
2367.692864	157.400000
2369.235951	179.000000
2370.777102	161.800000
2372.317965	154.200000
2373.858537	161.400000
2375.398821	160.600000
2376.938816	139.400000
2378.475233	163.400000
2380.014651	154.400000
2381.550492	171.000000
2383.087689	181.800000
2384.621311	178.600000
2386.157934	171.000000
2387.692625	167.400000
2389.225387	137.000000
2390.757862	179.800000
2392.288409	175.400000
2393.821954	201.400000
2395.350288	182.400000
2396.879979	193.800000
2398.409384	158.200000
2399.938503	168.600000
2401.467338	157.800000
2402.990967	177.800000
2404.519233	153.600000
2406.042295	179.800000
2407.569991	156.200000
2409.090848	151.800000
2410.616338	168.200000
2412.138267	195.000000
2413.661552	168.800000
2415.182916	185.000000
2416.702360	164.600000
2418.223159	158.800000
2419.742039	175.400000
2421.260637	170.200000
2422.777318	173.800000
2424.295353	167.800000
2425.813107	175.800000
2427.327310	175.000000
2428.841232	176.400000
2430.354874	158.200000
2431.869871	185.000000
2433.381319	173.200000
2434.894122	180.600000
2436.405011	191.400000
2437.915622	191.600000
2439.424321	156.600000
2440.936006	177.000000
2442.444148	174.800000
2443.952012	173.400000
2445.459598	175.800000
2446.963643	175.600000
2448.470674	168.600000
2449.975796	179.000000
2451.480641	174.200000
2452.983578	167.800000
2454.486240	180.600000
2455.988625	190.400000
2457.489105	168.600000
2458.990938	145.400000
2460.490867	162.200000
2461.990520	153.200000
2463.489897	147.000000
2464.987372	186.200000
2466.482945	179.000000
2467.981498	167.000000
2469.476523	180.200000
2470.972900	150.600000
2472.465751	168.200000
2473.959955	167.800000
2475.453885	183.000000
2476.944291	167.400000
2478.437675	182.200000
2479.929161	171.800000
2481.418750	185.400000
2482.908067	153.400000
2484.395489	154.000000
2485.885886	137.000000
2487.372764	186.600000
2488.860994	153.600000
2490.345708	145.800000
2491.830151	160.600000
2493.315946	182.400000
2494.799848	180.800000
2496.285102	167.800000
2497.765221	165.800000
2499.248314	167.200000
2500.729516	156.200000
2502.210449	179.000000
2503.689493	168.200000
2505.168268	166.600000
2506.646775	169.800000
2508.125014	161.400000
2509.602984	185.400000
2511.077449	158.200000
2512.554884	165.800000
2514.028815	171.000000
2515.504096	158.200000
2516.979111	177.600000
2518.450624	163.000000
2519.923487	152.600000
2521.394468	155.000000
2522.866799	179.400000
2524.334017	157.400000
2525.804200	170.600000
2527.272503	162.400000
2528.740541	170.200000
2530.208314	154.000000
2531.675822	151.000000
2533.143065	140.600000
2534.606816	150.200000
2536.071917	186.000000
2537.535141	173.800000
2538.999715	181.000000
2540.460799	161.800000
2541.923233	169.000000
2543.385404	191.000000
2544.844089	167.400000
2546.307346	168.600000
2547.765506	157.800000
2549.225015	169.200000
2550.679430	183.400000
2552.138416	173.000000
2553.595530	159.200000
2555.050773	172.200000
2556.505755	167.000000
2557.958867	174.200000
2559.413328	176.000000
2560.865920	190.600000
2562.318252	177.200000
2563.768716	186.800000
2565.222136	185.800000
2566.670474	186.000000
2568.121768	157.600000
2569.571195	167.000000
2571.017150	173.800000
2572.466060	194.400000
2573.911500	170.600000
2575.358288	197.800000
2576.803212	154.200000
2578.247878	183.800000
2579.693893	202.200000
2581.136440	174.800000
2582.580335	197.800000
2584.020765	186.600000
2585.462542	190.200000
2586.902460	189.000000
2588.343725	188.600000
2589.781529	196.800000
2591.222282	160.400000
2592.657972	191.800000
2594.096612	187.200000
2595.533394	201.400000
2596.968321	186.200000
2598.406195	193.800000
2599.839012	196.200000
2601.273176	206.200000
2602.705486	191.600000
2604.139142	195.800000
2605.570945	180.200000
2607.002494	189.000000
2608.433791	220.400000
2609.863235	211.400000
2611.292427	201.000000
2612.719769	208.000000
2614.148456	169.000000
2615.576892	200.600000
2617.001880	214.400000
2618.428215	208.600000
2619.852701	203.000000
2621.278533	208.400000
2622.700921	218.000000
2624.124655	211.000000
2625.546542	208.600000
2626.968180	229.200000
2628.387972	225.800000
2629.809110	240.000000
2631.229998	216.600000
2632.647448	235.000000
2634.067837	210.800000
2635.484789	219.000000
2636.901492	215.800000
2638.317948	238.800000
2639.734154	220.800000
2641.150113	243.400000
2642.564231	228.600000
2643.978102	236.200000
2645.390133	271.000000
2646.803509	250.600000
2648.213455	255.400000
2649.626336	256.200000
2651.035789	245.800000
2652.444996	244.600000
2653.852367	276.400000
2655.262673	261.000000
2656.671142	264.800000
2658.077776	257.000000
2659.484165	279.400000
2660.888720	255.600000
2662.294619	263.600000
2663.698685	271.800000
2665.102506	274.600000
2666.506084	257.000000
2667.907829	269.000000
2669.310918	308.200000
2670.710589	265.200000
2672.111604	268.600000
2673.509203	290.000000
2674.909732	303.200000
2676.306846	282.200000
2677.705303	289.800000
2679.101932	276.200000
2680.498319	287.000000
2681.894465	275.000000
2683.288784	309.400000
2684.684446	261.600000
2686.076698	298.600000
2687.470293	281.600000
2688.862065	289.200000
2690.255178	285.000000
2691.646468	296.600000
2693.035935	290.800000
2694.425162	291.000000
2695.814150	282.800000
2697.204480	280.000000
2698.589825	281.000000
2699.978094	274.600000
2701.364543	276.400000
2702.750753	277.000000
2704.136725	266.400000
2705.519297	254.200000
2706.903212	266.600000
2708.286889	290.800000
2709.670328	242.400000
2711.050371	247.400000
2712.431756	234.200000
2713.811325	257.000000
2715.192236	253.200000
2716.571331	255.000000
2717.948613	224.800000
2719.327236	257.800000
2720.704046	205.400000
2722.080620	232.800000
2723.456958	230.200000
2724.831484	208.600000
2726.207351	210.800000
2727.579831	201.800000
2728.955227	214.600000
2730.325663	204.000000
2731.697440	222.600000
2733.068982	199.800000
2734.438716	178.800000
2735.809791	191.200000
2737.179057	188.200000
2738.548090	203.000000
2739.915317	216.000000
2741.282311	202.200000
2742.649072	182.000000
2744.015600	197.600000
2745.380323	176.000000
2746.744815	185.800000
2748.109074	170.000000
2749.473101	202.000000
2750.836897	159.000000
2752.197319	182.200000
2753.560652	176.600000
2754.919042	199.800000
2756.280342	169.400000
2757.638271	185.800000
2758.999109	189.000000
2760.358148	170.200000
2761.713818	189.400000
2763.072396	176.200000
2764.427607	169.800000
2765.782590	157.200000
2767.135775	157.000000
2768.491867	154.400000
2769.844594	145.000000
2771.197094	181.000000
2772.549365	154.800000
2773.902975	175.400000
2775.253223	162.400000
2776.601678	171.200000
2777.953037	144.600000
2779.301037	179.400000
2780.650375	179.400000
2781.997922	166.800000
2783.345241	155.200000
2784.692334	132.600000
2786.037636	171.000000
2787.382712	185.800000
2788.727561	147.000000
2790.072185	171.000000
2791.413457	160.600000
2792.756067	130.200000
2794.098451	150.200000
2795.440611	184.000000
2796.779421	153.800000
2798.121130	164.800000
2799.459492	146.000000
2800.799191	171.400000
2802.137104	169.400000
2803.473233	169.800000
2804.809138	149.200000
2806.146381	170.600000
2807.481840	161.000000
2808.817076	138.800000
2810.150529	157.600000
2811.485320	170.000000
2812.816769	180.000000
2814.151114	173.800000
2815.480561	200.000000
2816.811345	176.800000
2818.141907	155.400000
2819.470690	149.400000
2820.800809	176.200000
2822.129150	173.800000
2823.457270	150.600000
2824.783612	178.800000
2826.111291	151.800000
2827.435636	172.000000
2828.761318	161.400000
2830.085224	164.600000
2831.408911	129.600000
2832.733933	161.600000
2834.055625	137.600000
2835.377099	169.800000
2836.698354	151.400000
2838.019390	149.800000
2839.338654	135.200000
2840.659253	165.200000
2841.978080	167.400000
2843.296689	163.200000
2844.613527	125.400000
2845.930148	141.400000
2847.246552	140.600000
2848.561186	160.400000
2849.877156	153.600000
2851.189805	169.000000
2852.503790	151.800000
2853.817557	124.800000
2855.131109	151.800000
2856.442893	170.000000
2857.752911	153.200000
2859.064264	133.400000
2860.372302	146.200000
2861.681674	136.800000
2862.990832	146.400000
2864.299774	122.800000
2865.606952	172.800000
2866.912368	147.600000
2868.219118	142.400000
2869.524105	149.600000
2870.828879	160.200000
2872.131891	175.800000
2873.437785	155.600000
2874.738823	153.800000
2876.041196	173.600000
2877.341809	147.200000
2878.643756	143.200000
2879.945490	164.200000
2881.243919	145.200000
2882.543682	163.000000
2883.841688	143.000000
2885.139482	140.800000
2886.435520	159.000000
2887.732891	153.800000
2889.028506	136.400000
2890.323910	157.800000
2891.619103	172.800000
2892.910999	157.200000
2894.205771	143.400000
2895.497246	169.000000
2896.790054	152.200000
2898.082652	143.800000
2899.371956	144.800000
2900.662592	192.000000
2901.951477	148.600000
2903.241695	137.000000
2904.528620	142.000000
2905.816879	154.600000
2907.103387	137.600000
2908.389688	154.000000
2909.675780	141.000000
2910.960124	159.600000
2912.247339	158.600000
2913.529728	171.000000
2914.813449	127.800000
2916.095424	136.200000
2917.377191	155.400000
2918.657214	154.600000
2919.940106	147.200000
2921.221253	160.200000
2922.499118	175.400000
2923.779852	191.200000
2925.057305	149.600000
2926.334552	153.800000
2927.610058	143.600000
2928.888431	182.000000
2930.161989	147.800000
2931.438415	159.600000
2932.713100	189.800000
2933.986045	141.400000
2935.260320	153.200000
2936.532856	163.000000
2937.805188	154.600000
2939.074246	130.200000
2940.346170	150.000000
2941.616356	154.600000
2942.886339	137.600000
2944.156118	132.600000
2945.424160	144.600000
2946.690467	147.000000
2947.956571	138.400000
2949.224005	146.600000
2950.489705	115.800000
2951.755202	170.200000
2953.020497	149.600000
2954.282527	141.800000
2955.545888	158.200000
2956.809046	152.600000
2958.070473	161.000000
2959.333229	178.600000
2960.594254	184.000000
2961.853547	159.400000
2963.112641	153.000000
2964.371534	168.600000
2965.630227	156.600000
2966.888720	158.400000
2968.145484	124.000000
2969.402048	170.600000
2970.656885	160.000000
2971.913050	151.200000
2973.165961	158.200000
2974.420201	133.200000
2975.674242	123.600000
2976.926557	151.400000
2978.178673	117.000000
2979.429065	146.800000
2980.682312	130.400000
2981.930782	152.200000
2983.182107	119.400000
2984.430182	155.200000
2985.678061	143.000000
2986.925742	141.400000
2988.173227	146.800000
2989.418989	134.200000
2990.664556	153.000000
2991.911450	165.200000
2993.155100	144.200000
2994.400078	145.200000
2995.641812	169.200000
2996.886398	151.400000
2998.129265	129.800000
2999.368891	129.000000
3000.611367	151.000000
3001.850604	165.000000
3003.091167	144.200000
3004.330015	163.800000
3005.568667	121.600000
3006.805605	131.400000
3008.043869	126.800000
3009.280419	137.800000
3010.516774	138.800000
3011.752936	152.200000
3012.987385	149.400000
3014.221640	157.400000
3015.455702	132.600000
3016.688052	142.600000
3017.918690	123.000000
3019.152174	137.000000
3020.383946	139.400000
3021.614008	137.200000
3022.843878	134.600000
3024.072038	133.800000
3025.301524	121.200000
3026.529302	168.400000
3027.756888	129.800000
3028.985800	175.000000
3030.209970	159.800000
3031.436983	121.400000
3032.660772	142.800000
3033.885888	143.000000
3035.109297	138.800000
3036.332516	160.000000
3037.554030	157.200000
3038.778385	124.800000
3039.998005	160.200000
3041.218951	139.600000
3042.439708	164.600000
3043.658761	135.000000
3044.879140	127.000000
3046.096302	138.600000
3047.314789	163.800000
3048.531574	134.800000
3049.748172	135.400000
3050.964581	128.200000
3052.177778	133.400000
3053.393812	143.200000
3054.606634	133.000000
3055.822293	167.200000
3057.033229	152.400000
3058.245490	167.000000
3059.457565	130.000000
3060.669453	163.800000
3061.879643	123.200000
3063.089647	141.000000
3064.299465	115.600000
3065.507588	153.000000
3066.715524	124.800000
3067.921765	154.600000
3069.129331	144.800000
3070.335202	125.400000
3071.540889	106.000000
3072.746390	143.400000
3073.950198	128.200000
3075.155330	147.600000
3076.358770	123.400000
3077.560517	115.000000
3078.762081	133.600000
3079.963460	137.200000
3081.164657	132.200000
3082.364162	150.000000
3083.563485	132.600000
3084.764131	150.200000
3085.963087	143.000000
3087.158849	164.800000
3088.357440	146.400000
3089.552837	184.800000
3090.749557	114.400000
3091.943085	165.600000
3093.139441	146.400000
3094.334111	172.800000
3095.525590	141.600000
3096.721400	148.400000
3097.912517	173.200000
3099.104956	133.600000
3100.294208	108.200000
3101.486286	120.200000
3102.676679	131.000000
3103.863887	173.000000
3105.052418	126.200000
3106.242270	132.000000
3107.428939	126.200000
3108.615428	121.000000
3109.801737	135.600000
3110.989368	120.600000
3112.173818	122.400000
3113.356587	134.000000
3114.542179	132.000000
3115.726092	153.600000
3116.908326	123.800000
3118.090381	123.800000
3119.272259	134.200000
3120.453958	141.400000
3121.633979	123.000000
3122.812324	117.400000
3123.993489	141.400000
3125.171480	158.200000
3126.349293	133.600000
3127.526929	130.800000
3128.702890	112.400000
3129.878674	143.000000
3131.055780	145.800000
3132.231211	126.000000
3133.404969	134.600000
3134.577055	133.000000
3135.750461	109.400000
3136.923691	146.600000
3138.095250	135.600000
3139.268129	168.600000
3140.437842	117.200000
3141.608874	109.400000
3142.778237	132.000000
3143.945930	149.600000
3145.116438	132.400000
3146.282287	117.800000
3147.452446	166.200000
3148.617947	125.800000
3149.783275	124.600000
3150.948429	159.800000
3152.113409	138.400000
3153.279709	124.800000
3154.441357	126.000000
3155.604324	116.000000
3156.767119	112.400000
3157.929741	141.400000
3159.090698	133.800000
3160.251482	145.400000
3161.412094	120.400000
3162.571042	135.000000
3163.729819	109.200000
3164.888424	109.000000
3166.046857	110.400000
3167.205118	147.600000
3168.361717	124.000000
3169.516655	127.800000
3170.672912	134.400000
3171.827508	122.000000
3172.981934	97.200000
3174.134700	125.600000
3175.287296	105.400000
3176.439721	97.400000
3177.591977	131.600000
3178.744062	148.400000
3179.893002	117.600000
3181.044748	135.000000
3182.194836	128.600000
3183.343268	139.200000
3184.491531	124.800000
3185.639624	146.400000
3186.787549	104.000000
3187.933819	131.000000
3189.079920	107.200000
3190.224366	125.600000
3191.368645	136.000000
3192.512756	137.800000
3193.658184	116.400000
3194.800474	120.800000
3195.942597	143.800000
3197.084552	138.600000
3198.226341	126.400000
3199.367962	149.800000
3200.506447	116.800000
3201.646250	148.800000
3202.787371	135.400000
3203.925357	134.000000
3205.061694	119.600000
3206.197865	148.000000
3207.335354	120.800000
3208.471193	137.800000
3209.608350	120.000000
3210.740894	146.800000
3211.877720	124.600000
3213.009934	158.400000
3214.143465	113.800000
3215.276832	137.800000
3216.407071	132.800000
3217.540108	118.000000
3218.670019	143.000000
3219.801246	133.800000
3220.929349	127.800000
3222.060248	149.600000
3223.189503	133.400000
3224.317115	147.400000
3225.441605	130.800000
3226.570369	149.400000
3227.696012	132.200000
3228.821493	135.000000
3229.945332	121.800000
3231.071965	152.400000
3232.194001	137.800000
3233.317353	132.000000
3234.440543	122.600000
3235.563571	149.400000
3236.684959	135.400000
3237.806186	110.600000
3238.925774	92.800000
3240.045201	130.200000
3241.162990	143.800000
3242.283572	106.000000
3243.401039	127.000000
3244.518346	132.400000
3245.635493	122.400000
3246.751004	140.000000
3247.867830	107.400000
3248.981545	120.200000
3250.098050	118.600000
3251.212921	127.800000
3252.324683	104.200000
3253.436285	134.400000
3254.549203	132.600000
3255.661962	131.200000
3256.771614	145.000000
3257.882580	155.600000
3258.993388	112.400000
3260.102565	105.400000
3261.210110	116.000000
3262.318969	110.200000
3263.427671	128.000000
3264.533270	134.200000
3265.640183	123.400000
3266.745467	139.000000
3267.852066	79.800000
3268.955564	138.000000
3270.060376	127.000000
3271.165031	113.200000
3272.266587	121.200000
3273.367988	140.400000
3274.470702	124.000000
3275.573259	113.000000
3276.672720	104.600000
3277.774965	130.400000
3278.874114	111.000000
3279.971639	122.400000
3281.069008	122.400000
3282.169160	154.800000
3283.266218	107.800000
3284.363121	136.200000
3285.459869	132.200000
3286.552059	125.200000
3287.648497	99.600000
3288.743313	140.400000
3289.837975	110.600000
3290.931015	102.000000
3292.023901	135.800000
3293.115166	108.800000
3294.207744	131.400000
3295.298701	127.200000
3296.388039	128.600000
3297.477224	117.200000
3298.567722	112.600000
3299.655135	148.800000
3300.742396	112.800000
3301.830969	117.000000
3302.919389	120.600000
3304.003262	127.200000
3305.091377	107.000000
3306.176411	136.800000
3307.259828	108.400000
3308.344558	89.600000
3309.427673	126.800000
3310.512099	124.000000
3311.593447	112.400000
3312.676107	138.800000
3313.757153	114.400000
3314.838048	101.800000
3315.917329	116.400000
3316.996461	136.800000
3318.076903	110.400000
3319.154271	122.400000
3320.232951	120.800000
3321.310020	124.400000
3322.386938	110.800000
3323.462245	106.400000
3324.537403	110.600000
3325.613872	121.000000
3326.687271	112.400000
3327.760521	138.200000
3328.835081	117.000000
3329.908033	110.000000
3330.979376	104.600000
3332.052031	131.200000
3333.121618	89.400000
3334.192516	143.800000
3335.261807	108.200000
3336.332409	123.800000
3337.401404	102.600000
3338.468793	119.600000
3339.534577	117.400000
3340.604587	115.400000
3341.671534	100.400000
3342.735419	124.600000
3343.802072	124.600000
3344.867120	133.000000
3345.930565	115.000000
3346.993864	121.000000
3348.057016	114.000000
3349.120022	102.000000
3350.182882	89.800000
3351.244140	135.400000
3352.302341	129.400000
3353.364763	122.200000
3354.424128	98.200000
3355.483348	120.400000
3356.543878	96.400000
3357.599898	130.200000
3358.658682	128.000000
3359.712959	133.000000
3360.770000	96.600000
3361.825443	104.400000
3362.882194	120.600000
3363.937347	117.800000
3364.990903	126.200000
3366.042863	130.600000
3367.097584	112.200000
3368.149256	108.800000
3369.200785	120.200000
3370.253622	131.000000
3371.303412	116.400000
3372.354511	103.600000
3373.402564	131.400000
3374.453376	130.800000
3375.501144	116.800000
3376.548769	116.600000
3377.596251	104.600000
3378.642141	118.400000
3379.689339	128.800000
3380.733495	123.000000
3381.780409	82.200000
3382.825731	112.400000
3383.868012	129.800000
3384.910153	125.400000
3385.953601	105.800000
3386.996909	133.400000
3388.038626	98.000000
3389.080202	114.600000
3390.121638	127.000000
3391.161484	119.600000
3392.199742	97.800000
3393.239309	110.600000
3394.278734	105.800000
3395.316572	116.000000
3396.352823	107.800000
3397.388935	150.200000
3398.426354	108.600000
3399.460740	87.400000
3400.496433	108.800000
3401.531987	111.000000
3402.564510	105.200000
3403.599786	128.200000
3404.632031	97.600000
3405.664138	115.800000
3406.694661	95.800000
3407.726491	131.400000
3408.758183	122.000000
3409.786847	129.000000
3410.815374	122.800000
3411.845208	111.400000
3412.874903	104.200000
3413.901573	124.600000
3414.929550	107.800000
3415.954502	130.200000
3416.982204	96.000000
3418.006883	118.400000
3419.032868	107.000000
3420.057273	135.400000
3421.081542	86.000000
3422.104232	103.000000
3423.126786	111.600000
3424.150646	117.000000
3425.171486	79.200000
3426.192191	105.200000
3427.214201	103.200000
3428.233193	118.400000
3429.252050	84.200000
3430.272212	118.000000
3431.289358	96.800000
