-117.967255	0.600000
-115.297655	-7.000000
-112.630990	7.800000
-109.965077	-11.200000
-107.302096	-22.600000
-104.637686	5.400000
-101.976206	-10.000000
-99.313296	-17.200000
-96.655494	19.600000
-93.996262	-16.800000
-91.337778	4.400000
-88.682218	-5.000000
-86.025230	-1.800000
-83.373339	-18.600000
-80.720019	10.600000
-78.069619	-11.000000
-75.417789	-9.000000
-72.771050	-8.200000
-70.122881	1.400000
-67.475456	-4.600000
-64.830944	7.200000
-62.185004	7.400000
-59.544145	-3.600000
-56.901857	-5.200000
-54.262477	4.800000
-51.621669	-16.200000
-48.981601	1.800000
-46.346605	23.200000
-43.710181	-4.200000
-41.076659	-11.000000
-38.441709	5.600000
-35.811824	-22.400000
-33.178347	-22.600000
-30.549932	12.600000
-27.922251	-7.600000
-25.293141	30.600000
-22.669088	-16.600000
-20.041446	15.200000
-17.418857	7.800000
-14.797000	38.400000
-12.175873	63.000000
-9.555476	74.000000
-6.937968	271.600000
-4.319030	834.400000
-1.702979	2207.600000
0.912344	2458.800000
3.526940	1482.800000
6.138653	207.400000
8.751795	16.800000
11.359903	27.600000
13.971593	2.200000
16.578252	19.600000
19.186339	5.800000
21.793702	1.800000
24.396040	5.800000
27.001956	-19.000000
29.602850	7.000000
32.205172	14.800000
34.802477	10.200000
37.403357	5.200000
39.999223	-13.400000
42.596516	-7.400000
45.193090	-4.000000
47.784655	-8.600000
50.377648	-2.600000
52.967780	1.400000
55.559340	-10.200000
58.148040	8.000000
60.738167	9.400000
63.323296	-25.400000
65.909851	6.600000
68.495693	-5.200000
71.078681	-17.000000
73.663095	2.000000
76.240381	0.400000
78.821233	-27.200000
81.399236	-0.800000
83.976529	4.800000
86.555248	-11.800000
89.128986	-8.200000
91.704150	3.000000
94.276471	-10.200000
96.848084	2.400000
99.416857	6.800000
101.987057	27.000000
104.554419	4.000000
107.123206	2.600000
109.689157	-3.000000
112.252273	2.200000
114.818945	33.000000
117.376396	21.000000
119.939532	-18.000000
122.497708	30.400000
125.059439	14.600000
127.616213	31.400000
130.174414	21.400000
132.727662	62.200000
135.280211	83.000000
137.836311	131.800000
140.387464	140.000000
142.937918	191.200000
145.487675	240.200000
148.034614	220.400000
150.580856	244.000000
153.128524	244.000000
155.675496	261.000000
158.217533	237.000000
160.758876	246.400000
163.299526	278.000000
165.841602	252.400000
168.380866	236.800000
170.917322	259.200000
173.453086	259.000000
175.990276	262.600000
178.526775	230.800000
181.060468	223.600000
183.591358	242.800000
186.121559	215.400000
188.653185	247.400000
191.182010	245.200000
193.708036	250.600000
196.233376	246.600000
198.760142	258.400000
201.284110	244.000000
203.807394	259.800000
206.329993	255.200000
208.849799	244.400000
211.368922	226.200000
213.887362	240.400000
216.407226	262.400000
218.920089	263.200000
221.436483	269.000000
223.952195	262.200000
226.463017	259.600000
228.975265	267.200000
231.484729	261.800000
233.993515	249.000000
236.501623	269.400000
239.011154	261.600000
241.515805	238.200000
244.019780	247.200000
246.525180	281.600000
249.025704	239.800000
251.529751	242.400000
254.026828	269.800000
256.527427	234.600000
259.025255	276.200000
261.522410	254.000000
264.018892	245.000000
266.510511	258.400000
269.005650	264.200000
271.498023	248.800000
273.989725	266.400000
276.478663	293.000000
278.969026	260.800000
281.456626	255.600000
283.941467	284.000000
286.429823	236.400000
288.911239	272.800000
291.396169	268.200000
293.876254	277.600000
296.359851	230.800000
298.838605	232.800000
301.318783	276.400000
303.796208	279.000000
306.272970	287.600000
308.749069	301.200000
311.222419	260.000000
313.695107	288.000000
316.167134	267.400000
318.638500	305.400000
321.107122	344.200000
323.575084	335.200000
326.044468	323.000000
328.509030	319.800000
330.977096	298.400000
333.440342	308.600000
335.902930	287.200000
338.364862	274.400000
340.826137	255.600000
343.284678	297.400000
345.744641	271.000000
348.201871	292.200000
350.658447	259.200000
353.114369	294.000000
355.567562	281.600000
358.022176	274.800000
360.471989	278.400000
362.925298	308.200000
365.373809	273.800000
367.821669	283.400000
370.270950	269.800000
372.715438	287.600000
375.161348	286.600000
377.606609	287.200000
380.049150	270.400000
382.491044	256.600000
384.932291	268.400000
387.370822	258.600000
389.810775	268.200000
392.248014	268.600000
394.682541	279.400000
397.120556	288.800000
399.553794	277.000000
401.988454	268.800000
404.418340	279.000000
406.851712	268.800000
409.280314	281.800000
411.708275	272.600000
414.137656	297.600000
416.562272	283.200000
418.988310	255.800000
421.413707	280.000000
423.838464	261.200000
426.258463	278.800000
428.679883	248.400000
431.098606	276.400000
433.518750	220.000000
435.936199	273.400000
438.355068	276.400000
440.771244	256.800000
443.182673	277.200000
445.597578	280.800000
448.009793	284.400000
450.421374	278.400000
452.832321	286.000000
455.240582	278.400000
457.648210	271.800000
460.055207	270.000000
462.461571	306.200000
464.865253	272.600000
467.268305	255.200000
469.670727	292.800000
472.072519	267.200000
474.471634	280.600000
476.872168	265.600000
479.272073	272.800000
481.667255	286.400000
484.065904	277.000000
486.459833	261.200000
488.853136	272.000000
491.245813	279.600000
493.637865	250.600000
496.031335	256.200000
498.420094	237.000000
500.806186	214.000000
503.193697	219.000000
505.580586	218.000000
507.964811	218.600000
510.350455	210.200000
512.733436	213.000000
515.113757	210.600000
517.495497	219.800000
519.874578	196.000000
522.255078	217.600000
524.632920	195.400000
527.008107	185.600000
529.382676	217.200000
531.758664	155.800000
534.131998	211.400000
536.506750	215.200000
538.876817	215.600000
541.246268	198.600000
543.617137	186.200000
545.983326	200.400000
548.350933	203.400000
550.715894	195.200000
553.080242	177.400000
555.443978	204.200000
557.809130	188.200000
560.169611	198.400000
562.531510	188.800000
564.890768	202.000000
567.247389	208.000000
569.607454	177.000000
571.960828	177.000000
574.317647	190.400000
576.671831	194.400000
579.025407	198.200000
581.378374	217.200000
583.728710	213.800000
586.080462	147.800000
588.425538	158.600000
590.776078	170.600000
593.119944	165.400000
595.469272	166.600000
597.813952	186.600000
600.156006	210.400000
602.499478	171.200000
604.840327	188.200000
607.180574	184.200000
609.518200	167.000000
611.859261	191.200000
614.195684	175.000000
616.533524	192.000000
618.868747	190.000000
621.201354	167.600000
623.535377	154.600000
625.866787	182.600000
628.197598	199.800000
630.527811	186.600000
632.857426	176.000000
635.182419	175.600000
637.512853	163.200000
639.838665	180.400000
642.161871	170.000000
644.486492	184.200000
646.808508	212.400000
649.129931	181.000000
651.448750	177.400000
653.768985	186.800000
656.088627	155.200000
658.405668	167.600000
660.722117	166.200000
663.035968	176.800000
665.351235	179.600000
667.663905	189.200000
669.977990	182.800000
672.287475	162.800000
674.598376	179.400000
676.906684	190.800000
679.214404	145.800000
681.523539	172.200000
683.828081	157.000000
686.132036	168.000000
688.435406	179.800000
690.740190	167.400000
693.040388	158.400000
695.342000	180.800000
697.643028	162.000000
699.939473	185.200000
702.237334	167.600000
704.534611	185.000000
706.831305	192.600000
709.123423	172.800000
711.418952	171.800000
713.709908	189.000000
716.002277	157.200000
718.292072	193.600000
720.581286	168.800000
722.869921	145.400000
725.155984	159.000000
727.443460	159.800000
729.728365	150.200000
732.012693	181.400000
734.294452	196.600000
736.577625	184.400000
738.860221	138.800000
741.138262	158.200000
743.417716	140.400000
745.696595	163.600000
747.974898	173.000000
750.248652	167.400000
752.523820	187.200000
754.798414	179.600000
757.070448	157.000000
759.343896	177.000000
761.614786	180.000000
763.883120	165.000000
766.152867	167.600000
768.420060	177.600000
770.686682	153.400000
772.952734	208.000000
775.216235	172.200000
777.481149	186.400000
779.745493	206.800000
782.005308	163.000000
784.266535	190.400000
786.527195	181.600000
788.785309	173.400000
791.040878	156.600000
793.299838	190.400000
795.552299	179.400000
797.810127	178.000000
800.063435	189.200000
802.314204	174.800000
804.566385	180.000000
806.816028	170.800000
809.067082	173.600000
811.313625	186.800000
813.561580	188.600000
815.807001	173.800000
818.053833	157.000000
820.300104	149.200000
822.541871	165.000000
824.787020	159.400000
827.025697	165.200000
829.267756	170.400000
831.505317	197.400000
833.744290	193.200000
835.980736	162.200000
838.218593	170.000000
840.453925	161.600000
842.686734	166.400000
844.920954	157.800000
847.152652	170.600000
849.383794	185.400000
851.614383	160.200000
853.844416	168.200000
856.073896	146.800000
858.298894	157.800000
860.527267	170.000000
862.751161	137.200000
864.976465	157.000000
867.197294	146.000000
869.421495	153.400000
871.641223	163.800000
873.862362	182.800000
876.082950	172.600000
878.301028	183.400000
880.520516	180.200000
882.735538	154.400000
884.950013	149.200000
887.163939	166.600000
889.377319	186.200000
891.590151	163.800000
893.802437	180.800000
896.012220	168.200000
898.221458	176.400000
900.430151	153.200000
902.636345	163.400000
904.843948	178.200000
907.049053	181.000000
909.253615	169.800000
911.455682	188.600000
913.659158	182.400000
915.860140	159.400000
918.060581	148.600000
920.262429	157.000000
922.457887	158.000000
924.656704	146.200000
926.851082	183.200000
929.048818	167.600000
931.242118	156.600000
933.436827	176.000000
935.629050	158.000000
937.820735	180.400000
940.011882	187.000000
942.200546	189.200000
944.388673	193.600000
946.574320	178.800000
948.763319	192.800000
950.947895	153.400000
953.131936	177.800000
955.319327	185.600000
957.498414	169.600000
959.680852	199.800000
961.862756	165.800000
964.042186	174.200000
966.219142	175.600000
968.397507	188.400000
970.577279	147.800000
972.750702	192.200000
974.927471	184.600000
977.099833	189.800000
979.273603	194.800000
981.442969	208.200000
983.615679	190.800000
985.785924	176.800000
987.955640	192.200000
990.124827	224.200000
992.289617	171.200000
994.457748	204.400000
996.621485	203.200000
998.786628	211.600000
1000.949312	193.400000
1003.111471	173.000000
1005.271173	196.600000
1007.430351	223.400000
1009.590935	218.600000
1011.749064	199.200000
1013.906669	189.800000
1016.063751	192.000000
1018.220310	209.600000
1020.372489	210.800000
1022.526074	220.600000
1024.679138	199.800000
1026.829754	197.000000
1028.981775	210.600000
1031.129423	230.200000
1033.280403	210.200000
1035.427012	223.200000
1037.573103	212.400000
1039.718674	228.000000
1041.865651	206.400000
1044.006339	201.000000
1046.150357	213.800000
1048.291934	228.600000
1050.432995	191.600000
1052.575460	243.000000
1054.711646	210.200000
1056.851158	230.000000
1058.986314	210.400000
1061.124795	234.800000
1063.258922	249.600000
1065.392536	229.200000
1067.527555	213.600000
1069.658224	240.600000
1071.790298	220.800000
1073.919943	214.200000
1076.049076	223.400000
1078.177697	222.800000
1080.305807	244.200000
1082.431491	203.400000
1084.556665	217.600000
1086.683243	234.200000
1088.805483	205.800000
1090.929128	189.400000
1093.048439	215.600000
1095.172978	205.000000
1097.291272	224.000000
1099.410971	198.800000
1101.528251	219.000000
1103.645025	182.000000
1105.761292	237.600000
1107.875144	186.600000
1109.990399	189.000000
1112.101331	178.800000
1114.215576	219.400000
1116.325500	213.800000
1118.436828	227.000000
1120.547651	219.800000
1122.654158	212.600000
1124.763975	190.800000
1126.869477	214.600000
1128.976382	202.800000
1131.077072	180.600000
1133.182974	186.800000
1135.284567	195.000000
1137.387563	193.000000
1139.490058	201.200000
1141.586346	183.200000
1143.687842	191.600000
1145.785034	202.400000
1147.881729	191.000000
1149.977925	191.600000
1152.073624	187.000000
1154.168824	192.400000
1156.261629	212.000000
1158.355835	175.600000
1160.443850	189.000000
1162.537063	182.000000
1164.624088	178.400000
1166.714412	178.000000
1168.800449	213.000000
1170.889783	199.800000
1172.972936	187.400000
1175.057491	170.200000
1177.143448	185.200000
1179.225123	189.000000
1181.308200	188.000000
1183.388891	192.800000
1185.469090	184.600000
1187.548798	194.600000
1189.628015	210.800000
1191.704850	203.600000
1193.779304	186.800000
1195.857049	157.600000
1197.930525	168.800000
1200.005401	188.200000
1202.076010	212.200000
1204.148021	196.600000
1206.217655	161.600000
1208.288690	193.600000
1210.359237	198.200000
1212.425523	213.800000
1214.493210	212.000000
1216.558525	177.000000
1218.625240	201.200000
1220.687699	163.200000
1222.753443	198.400000
1224.814934	204.000000
1226.877824	204.400000
1228.938347	168.400000
1230.998386	180.200000
1233.057943	185.000000
1235.115134	186.200000
1237.171844	193.000000
1239.226191	174.800000
1241.283818	201.600000
1243.339083	197.000000
1245.390107	182.600000
1247.442531	197.200000
1249.494475	191.800000
1251.544061	189.600000
1253.593168	185.000000
1255.641797	198.600000
1257.689947	187.400000
1259.737618	185.800000
1261.781060	200.800000
1263.827776	197.200000
1265.872139	191.600000
1267.916026	188.400000
1269.957561	196.400000
1271.996747	201.000000
1274.039206	211.200000
1276.077442	197.200000
1278.117077	192.600000
1280.156237	203.200000
1282.191178	200.400000
1284.227518	214.000000
1286.261514	247.800000
1288.296908	220.600000
1290.328088	213.800000
1292.360666	219.000000
1294.392773	240.000000
1296.422539	238.400000
1298.453703	239.800000
1300.480659	271.000000
1302.509013	260.600000
1304.533163	260.200000
1306.560577	262.200000
1308.583789	280.000000
1310.608399	269.800000
1312.630675	273.800000
1314.654348	304.400000
1316.675688	289.600000
1318.696560	327.200000
1320.716965	313.400000
1322.733177	343.200000
1324.750786	380.600000
1326.766067	368.400000
1328.784607	386.000000
1330.798958	388.200000
1332.810983	384.000000
1334.826265	385.400000
1336.837362	404.200000
1338.849856	410.600000
1340.858167	402.800000
1342.869734	379.600000
1344.875261	376.800000
1346.884044	391.000000
1348.888649	405.400000
1350.896508	352.800000
1352.903905	350.400000
1354.905271	336.800000
1356.908034	329.400000
1358.910336	317.200000
1360.912179	304.400000
1362.913562	297.000000
1364.912632	291.600000
1366.911243	250.000000
1368.909396	260.800000
1370.907090	249.400000
1372.900622	254.200000
1374.895550	236.800000
1376.890020	218.600000
1378.884035	229.400000
1380.875741	226.200000
1382.866993	249.800000
1384.855939	196.000000
1386.846280	216.200000
1388.836166	210.400000
1390.823749	201.400000
1392.810877	221.200000
1394.795704	189.600000
1396.781926	184.800000
1398.765848	197.400000
1400.749317	218.800000
1402.732333	186.000000
1404.713052	209.000000
1406.695165	196.400000
1408.674982	203.800000
1410.654347	185.600000
1412.629574	204.000000
1414.608040	185.400000
1416.584211	198.000000
1418.559934	188.800000
1420.535207	187.400000
1422.508189	185.200000
1424.480723	211.600000
1426.452809	196.400000
1428.424448	178.400000
1430.391958	193.600000
1432.364542	206.800000
1434.329321	199.400000
1436.299171	184.400000
1438.264898	196.000000
1440.232017	193.200000
1442.196853	181.800000
1444.157569	177.400000
1446.123354	195.200000
1448.083183	197.800000
1450.044405	192.400000
1452.007020	192.400000
1453.965520	233.000000
1455.923577	233.800000
1457.881193	208.000000
1459.838367	186.200000
1461.793265	193.200000
1463.749555	210.600000
1465.703571	178.000000
1467.657147	204.200000
1469.608450	220.600000
1471.561145	187.400000
1473.511569	204.000000
1475.461553	209.400000
1477.411099	199.400000
1479.358376	198.600000
1481.303386	198.800000
1483.249787	218.000000
1485.195751	229.800000
1487.141278	209.200000
1489.084540	200.000000
1491.027365	206.200000
1492.967927	235.000000
1494.909880	204.600000
1496.849571	210.800000
1498.788828	229.600000
1500.727649	195.600000
1502.664211	223.400000
1504.602164	203.800000
1506.537858	240.800000
1508.473119	214.600000
1510.406124	208.400000
1512.338696	226.800000
1514.270836	232.400000
1516.202544	243.400000
1518.131998	267.400000
1520.062843	246.400000
1521.993256	254.000000
1523.919597	261.400000
1525.847329	292.800000
1527.772810	245.200000
1529.697862	284.600000
1531.622485	298.400000
1533.546679	306.200000
1535.468625	300.600000
1537.391962	342.000000
1539.313053	367.400000
1541.231899	382.000000
1543.152134	431.400000
1545.070127	455.600000
1546.987693	486.200000
1548.903017	601.800000
1550.819731	647.600000
1552.732390	731.200000
1554.648253	844.000000
1556.561876	918.000000
1558.473262	966.600000
1560.386036	1056.800000
1562.294761	1098.000000
1564.204875	1082.800000
1566.114566	1095.200000
1568.023834	1066.600000
1569.930868	1017.600000
1571.835669	989.400000
1573.741859	954.400000
1575.645817	872.800000
1577.549354	825.600000
1579.452471	733.400000
1581.353358	633.600000
1583.255634	592.000000
1585.155682	548.200000
1587.057117	520.400000
1588.954519	466.200000
1590.851502	430.600000
1592.748067	403.600000
1594.646020	409.600000
1596.538138	376.600000
1598.433449	341.800000
1600.328343	339.400000
1602.221015	335.800000
1604.113271	322.800000
1606.003306	284.000000
1607.892927	309.600000
1609.782131	296.800000
1611.670921	256.800000
1613.557493	290.000000
1615.445453	272.600000
1617.329396	243.400000
1619.214727	245.800000
1621.099643	244.400000
1622.982346	220.800000
1624.866436	256.200000
1626.746515	231.600000
1628.627980	208.600000
1630.507235	191.800000
1632.387876	221.400000
1634.262713	216.000000
1636.142531	200.000000
1638.018345	188.400000
1639.893748	196.400000
1641.770537	195.400000
1643.641530	196.200000
1645.515704	185.400000
1647.385880	189.200000
1649.259236	189.000000
1651.130389	194.200000
1652.999340	200.800000
1654.869677	183.800000
1656.736020	184.200000
1658.603749	166.800000
1660.469279	174.200000
1662.336195	189.600000
1664.199122	187.800000
1666.063434	167.400000
1667.925550	202.800000
1669.787262	180.800000
1671.650358	161.200000
1673.511260	175.600000
1675.369968	189.800000
1677.228273	178.400000
1679.087963	157.800000
1680.941885	173.400000
1682.798981	171.400000
1684.655674	191.600000
1686.508391	161.800000
1688.364278	178.000000
1690.216192	152.400000
1692.067705	147.000000
1693.918817	153.600000
1695.769529	135.000000
1697.619840	168.000000
1699.467966	166.600000
1701.317477	152.400000
1703.161239	152.000000
1705.009950	155.800000
1706.852916	155.400000
1708.699047	187.200000
1710.541216	156.000000
1712.386551	158.600000
1714.226145	176.600000
1716.067123	151.000000
1717.909484	187.800000
1719.747889	193.400000
1721.587677	182.600000
1723.425290	162.200000
1725.262507	140.400000
1727.097551	173.200000
1728.933978	142.800000
1730.768233	173.200000
1732.602093	181.400000
1734.435560	161.200000
1736.265080	184.000000
1738.097759	184.200000
1739.926494	170.800000
1741.758386	166.200000
1743.586337	179.400000
1745.413895	138.000000
1747.241061	164.800000
1749.067836	161.600000
1750.894220	181.600000
1752.716666	167.600000
1754.542268	180.400000
1756.363935	147.800000
1758.186984	169.000000
1760.007871	133.600000
1761.828370	163.800000
1763.650250	171.200000
1765.466430	167.200000
1767.285762	169.400000
1769.101167	153.200000
1770.919722	150.000000
1772.734352	168.000000
1774.548596	147.600000
1776.362452	147.400000
1778.175922	149.600000
1779.987239	177.400000
1781.799937	164.600000
1783.612248	145.400000
1785.420642	160.400000
1787.230416	158.400000
1789.036276	174.600000
1790.845281	134.600000
1792.650373	164.800000
1794.456846	150.200000
1796.262935	152.600000
1798.065114	169.200000
1799.870436	146.800000
1801.671850	162.600000
1803.474644	159.000000
1805.273532	163.000000
1807.073801	152.000000
1808.873688	166.200000
1810.671434	127.600000
1812.468798	175.600000
1814.265783	145.200000
1816.062387	161.600000
1817.856852	162.000000
1819.652696	145.600000
1821.442886	162.400000
1823.237971	178.400000
1825.027405	143.400000
1826.819975	128.400000
1828.610410	160.000000
1830.398711	139.600000
1832.190147	159.200000
1833.975937	171.400000
1835.763107	158.000000
1837.548145	161.800000
1839.336317	151.800000
1841.120603	127.000000
1842.902760	158.200000
1844.686295	153.200000
1846.467702	156.200000
1848.250488	146.200000
1850.029393	149.000000
1851.809678	181.400000
1853.587836	122.200000
1855.367373	155.800000
1857.144785	168.400000
1858.920073	170.200000
1860.696739	154.800000
1862.471283	129.800000
1864.247205	153.000000
1866.017506	163.400000
1867.790935	138.800000
1869.562244	157.200000
1871.333183	137.200000
1873.105498	138.800000
1874.872200	155.200000
1876.642028	137.200000
1878.407992	149.600000
1880.177079	166.000000
1881.942306	156.800000
1883.707163	143.600000
1885.473398	150.800000
1887.235774	153.400000
1888.997783	146.200000
1890.759424	163.000000
1892.520699	172.000000
1894.281606	137.400000
1896.042147	157.000000
1897.800578	167.800000
1899.558644	151.000000
1901.314601	162.800000
1903.071935	148.800000
1904.828904	147.200000
1906.583767	133.800000
1908.336524	153.600000
1910.088918	148.200000
1911.842687	135.400000
1913.594353	147.600000
1915.343917	147.800000
1917.094856	152.400000
1918.845433	157.800000
1920.592170	145.600000
1922.340284	146.200000
1924.086298	133.600000
1925.833688	148.800000
1927.578979	119.400000
1929.322173	166.400000
1931.066742	151.400000
1932.809216	176.200000
1934.551329	162.000000
1936.293082	137.600000
1938.034476	161.200000
1939.773775	155.200000
1941.512716	139.800000
1943.251298	130.800000
1944.987789	168.600000
1946.723922	156.800000
1948.461429	145.000000
1950.195114	155.400000
1951.930174	159.200000
1953.663146	131.000000
1955.395760	123.000000
1957.128019	138.000000
1958.859921	153.000000
1960.589737	169.200000
1962.317468	135.000000
1964.046574	160.600000
1965.775325	155.200000
1967.501992	160.600000
1969.228305	161.000000
1970.955991	142.600000
1972.678141	153.600000
1974.403392	152.400000
1976.124837	167.400000
1977.849381	169.000000
1979.571846	126.600000
1981.290507	141.800000
1983.012267	129.000000
1984.730225	119.800000
1986.449556	136.600000
1988.165088	177.000000
1989.885440	147.000000
1991.601994	174.200000
1993.314751	162.000000
1995.030605	122.600000
1996.744385	156.000000
1998.457816	161.200000
2000.169176	157.000000
2001.881908	167.000000
2003.590850	161.200000
2005.302885	146.600000
2007.009410	156.000000
2008.719028	167.600000
2010.426578	161.000000
2012.133781	152.400000
2013.838918	164.800000
2015.543708	156.400000
2017.249870	164.200000
2018.952250	148.200000
2020.656002	156.000000
2022.357690	132.600000
2024.059034	143.600000
2025.760032	149.400000
2027.458969	152.000000
2029.159278	153.800000
2030.855812	169.800000
2032.553717	127.800000
2034.249563	170.200000
2035.948495	136.200000
2037.641941	169.600000
2039.336758	169.600000
2041.031233	162.800000
2042.721939	145.400000
2044.415729	149.800000
2046.105752	176.600000
2047.797146	129.600000
2049.486487	138.600000
2051.177198	140.400000
2052.864146	153.200000
2054.550755	129.000000
2056.238734	170.000000
2057.922952	122.400000
2059.608542	140.200000
2061.293792	140.200000
2062.976994	134.400000
2064.661565	161.000000
2066.340674	134.800000
2068.024568	156.400000
2069.703002	138.800000
2071.384512	131.600000
2073.062272	146.600000
2074.739694	153.800000
2076.418486	156.400000
2078.095236	139.000000
2079.769944	116.000000
2081.446021	128.600000
2083.120058	132.000000
2084.793759	143.800000
2086.467125	145.000000
2088.138453	144.200000
2089.809446	157.000000
2091.480105	146.000000
2093.150429	141.000000
2094.820420	158.800000
2096.488375	115.800000
2098.155997	115.000000
2099.821584	154.600000
2101.488540	134.000000
2103.153463	148.000000
2104.818054	130.400000
2106.480613	135.200000
2108.144540	140.000000
2109.806437	121.200000
2111.468002	152.600000
2113.129236	128.200000
2114.788442	143.600000
2116.447317	174.400000
2118.105863	126.600000
2119.764079	140.000000
2121.418571	133.400000
2123.076128	151.800000
2124.733356	120.600000
2126.386862	157.800000
2128.041736	120.600000
2129.692892	163.800000
2131.347109	138.200000
2132.997610	138.000000
2134.649477	148.000000
2136.295936	127.200000
2137.947150	139.000000
2139.594650	156.800000
2141.243517	137.000000
2142.890366	135.800000
2144.536888	152.800000
2146.183085	156.600000
2147.825574	144.600000
2149.471121	164.000000
2151.112961	135.600000
2152.757858	154.400000
2154.399050	158.800000
2156.039918	155.800000
2157.680462	130.600000
2159.318994	136.200000
2160.958892	143.000000
2162.595090	112.200000
2164.232655	156.000000
2165.869896	154.600000
2167.505128	142.400000
2169.140039	138.400000
2170.774628	151.400000
2172.408895	154.800000
2174.039469	117.800000
2175.673095	135.800000
2177.303029	131.000000
2178.934328	163.400000
2180.563622	122.400000
2182.192597	154.600000
2183.821252	145.200000
2185.449588	167.800000
2187.075922	152.200000
2188.701937	176.000000
2190.325951	132.400000
2191.951329	148.800000
2193.574708	133.400000
2195.199450	132.800000
2196.820512	160.400000
2198.441257	174.600000
2200.063367	128.600000
2201.683479	113.400000
2203.301594	128.600000
2204.919394	136.600000
2206.536879	141.200000
2208.154048	154.600000
2209.770902	141.800000
2211.387441	158.600000
2213.001986	140.200000
2214.614539	147.800000
2216.228456	159.400000
2217.840382	143.800000
2219.453671	153.800000
2221.064970	147.200000
2222.674279	162.400000
2224.284952	143.400000
2225.893636	157.000000
2227.502008	130.800000
2229.108392	151.000000
2230.716140	147.400000
2232.321901	151.600000
2233.927351	148.600000
2235.530816	158.600000
2237.135644	153.200000
2238.738488	138.400000
2240.339350	137.400000
2241.941573	151.000000
2243.541815	158.600000
2245.143419	150.000000
2246.741371	130.800000
2248.340685	118.800000
2249.938019	141.000000
2251.535044	152.400000
2253.133432	136.600000
2254.728171	144.400000
2256.320933	152.400000
2257.915058	141.000000
2259.510544	149.000000
2261.102386	122.600000
2262.693921	151.800000
2264.286817	128.400000
2265.874404	155.400000
2267.466688	136.800000
2269.053664	157.400000
2270.643669	136.400000
2272.228369	149.800000
2273.817762	151.000000
2275.401854	122.200000
2276.987307	124.200000
2278.570790	129.600000
2280.157300	111.800000
2281.740175	136.400000
2283.322748	140.200000
2284.905017	117.200000
2286.483657	134.400000
2288.065320	146.000000
2289.643355	165.000000
2291.224413	129.000000
2292.801844	139.700000
2294.377312	150.400000
2295.955802	156.600000
2297.530668	132.200000
2299.105233	131.400000
2300.679498	151.800000
2302.253462	158.200000
2303.827126	146.000000
2305.400489	143.800000
2306.970234	130.000000
2308.539680	133.200000
2310.112144	124.800000
2311.679334	143.200000
2313.249542	132.800000
2314.816135	136.800000
2316.384088	147.200000
2317.950085	135.800000
2319.515785	145.600000
2321.081188	132.800000
2322.644636	134.400000
2324.209444	151.000000
2325.770644	127.200000
2327.334858	160.000000
2328.893810	147.600000
2330.455777	137.600000
2332.015793	143.600000
2333.575513	139.800000
2335.133284	143.400000
2336.690760	134.800000
2338.247942	150.000000
2339.803176	135.200000
2341.358117	144.400000
2342.912764	152.000000
2344.467116	150.400000
2346.021176	142.400000
2347.574941	151.000000
2349.126763	143.200000
2350.676641	132.200000
2352.229527	137.000000
2353.777171	146.600000
2355.327822	150.400000
2356.874882	130.800000
2358.423301	145.000000
2359.971427	123.800000
2361.515965	164.000000
2363.061861	126.800000
2364.605819	134.800000
2366.151134	143.000000
2367.692864	136.200000
2369.235951	159.600000
2370.777102	140.000000
2372.317965	140.000000
2373.858537	139.400000
2375.398821	137.000000
2376.938816	132.400000
2378.475233	129.800000
2380.014651	112.000000
2381.550492	148.000000
2383.087689	162.400000
2384.621311	156.800000
2386.157934	146.400000
2387.692625	129.600000
2389.225387	124.600000
2390.757862	129.600000
2392.288409	122.800000
2393.821954	172.400000
2395.350288	161.200000
2396.879979	163.200000
2398.409384	135.400000
2399.938503	131.600000
2401.467338	131.400000
2402.990967	151.400000
2404.519233	136.200000
2406.042295	146.400000
2407.569991	155.800000
2409.090848	154.000000
2410.616338	155.200000
2412.138267	171.000000
2413.661552	162.200000
2415.182916	155.800000
2416.702360	147.000000
2418.223159	133.800000
2419.742039	130.400000
2421.260637	184.200000
2422.777318	158.600000
2424.295353	149.400000
2425.813107	168.800000
2427.327310	126.400000
2428.841232	166.000000
2430.354874	136.200000
2431.869871	140.600000
2433.381319	142.200000
2434.894122	161.400000
2436.405011	164.200000
2437.915622	178.200000
2439.424321	141.600000
2440.936006	154.800000
2442.444148	170.000000
2443.952012	158.400000
2445.459598	156.600000
2446.963643	142.600000
2448.470674	145.600000
2449.975796	171.200000
2451.480641	176.200000
2452.983578	137.400000
2454.486240	155.800000
2455.988625	158.800000
2457.489105	131.200000
2458.990938	153.000000
2460.490867	161.200000
2461.990520	135.800000
2463.489897	132.400000
2464.987372	161.800000
2466.482945	144.400000
2467.981498	140.000000
2469.476523	155.800000
2470.972900	144.400000
2472.465751	153.200000
2473.959955	131.400000
2475.453885	136.800000
2476.944291	132.400000
2478.437675	149.600000
2479.929161	135.800000
2481.418750	140.200000
2482.908067	142.600000
2484.395489	136.200000
2485.885886	126.600000
2487.372764	146.000000
2488.860994	132.200000
2490.345708	141.600000
2491.830151	141.200000
2493.315946	149.800000
2494.799848	147.800000
2496.285102	147.600000
2497.765221	148.200000
2499.248314	156.400000
2500.729516	144.800000
2502.210449	167.400000
2503.689493	138.800000
2505.168268	151.000000
2506.646775	135.600000
2508.125014	129.000000
2509.602984	138.800000
2511.077449	123.200000
2512.554884	130.600000
2514.028815	167.600000
2515.504096	137.800000
2516.979111	129.400000
2518.450624	117.600000
2519.923487	138.000000
2521.394468	132.000000
2522.866799	155.600000
2524.334017	112.000000
2525.804200	159.000000
2527.272503	134.600000
2528.740541	148.200000
2530.208314	149.200000
2531.675822	123.200000
2533.143065	148.000000
2534.606816	153.000000
2536.071917	155.600000
2537.535141	148.800000
2538.999715	152.600000
2540.460799	145.600000
2541.923233	135.400000
2543.385404	142.200000
2544.844089	159.200000
2546.307346	163.400000
2547.765506	151.400000
2549.225015	150.600000
2550.679430	140.000000
2552.138416	131.200000
2553.595530	147.800000
2555.050773	149.000000
2556.505755	158.400000
2557.958867	151.200000
2559.413328	157.400000
2560.865920	168.800000
2562.318252	153.000000
2563.768716	166.400000
2565.222136	161.400000
2566.670474	159.600000
2568.121768	133.200000
2569.571195	158.200000
2571.017150	151.200000
2572.466060	193.000000
2573.911500	155.800000
2575.358288	156.200000
2576.803212	141.600000
2578.247878	173.400000
2579.693893	175.600000
2581.136440	163.600000
2582.580335	161.400000
2584.020765	178.400000
2585.462542	176.000000
2586.902460	177.600000
2588.343725	177.200000
2589.781529	194.000000
2591.222282	183.200000
2592.657972	190.200000
2594.096612	164.600000
2595.533394	180.000000
2596.968321	176.600000
2598.406195	177.200000
2599.839012	175.600000
2601.273176	204.200000
2602.705486	169.200000
2604.139142	162.800000
2605.570945	216.400000
2607.002494	182.800000
2608.433791	214.200000
2609.863235	207.000000
2611.292427	207.800000
2612.719769	203.400000
2614.148456	195.600000
2615.576892	217.000000
2617.001880	206.400000
2618.428215	212.800000
2619.852701	205.600000
2621.278533	227.000000
2622.700921	227.200000
2624.124655	226.400000
2625.546542	217.400000
2626.968180	234.200000
2628.387972	243.600000
2629.809110	251.200000
2631.229998	247.200000
2632.647448	249.800000
2634.067837	278.000000
2635.484789	259.400000
2636.901492	263.800000
2638.317948	276.200000
2639.734154	234.600000
2641.150113	304.400000
2642.564231	279.000000
2643.978102	303.800000
2645.390133	316.600000
2646.803509	311.800000
2648.213455	308.200000
2649.626336	337.400000
2651.035789	329.000000
2652.444996	344.400000
2653.852367	339.200000
2655.262673	335.800000
2656.671142	343.200000
2658.077776	350.000000
2659.484165	376.800000
2660.888720	376.400000
2662.294619	365.800000
2663.698685	376.000000
2665.102506	356.800000
2666.506084	366.800000
2667.907829	368.000000
2669.310918	379.200000
2670.710589	362.000000
2672.111604	386.000000
2673.509203	380.800000
2674.909732	398.200000
2676.306846	409.400000
2677.705303	425.000000
2679.101932	384.000000
2680.498319	411.000000
2681.894465	382.400000
2683.288784	406.400000
2684.684446	396.200000
2686.076698	405.800000
2687.470293	402.000000
2688.862065	389.800000
2690.255178	360.200000
2691.646468	361.000000
2693.035935	389.400000
2694.425162	351.800000
2695.814150	370.800000
2697.204480	358.800000
2698.589825	364.000000
2699.978094	341.400000
2701.364543	340.400000
2702.750753	354.600000
2704.136725	332.400000
2705.519297	324.400000
2706.903212	338.600000
2708.286889	334.000000
2709.670328	314.200000
2711.050371	319.000000
2712.431756	294.200000
2713.811325	299.800000
2715.192236	304.000000
2716.571331	274.400000
2717.948613	259.600000
2719.327236	293.800000
2720.704046	250.400000
2722.080620	235.600000
2723.456958	220.000000
2724.831484	217.400000
2726.207351	202.200000
2727.579831	229.200000
2728.955227	226.600000
2730.325663	229.600000
2731.697440	215.200000
2733.068982	204.400000
2734.438716	170.200000
2735.809791	180.200000
2737.179057	182.000000
2738.548090	193.400000
2739.915317	176.200000
2741.282311	187.000000
2742.649072	166.600000
2744.015600	154.200000
2745.380323	157.800000
2746.744815	152.000000
2748.109074	160.600000
2749.473101	186.400000
2750.836897	150.000000
2752.197319	152.200000
2753.560652	130.600000
2754.919042	144.800000
2756.280342	142.200000
2757.638271	166.200000
2758.999109	145.200000
2760.358148	134.000000
2761.713818	137.600000
2763.072396	164.000000
2764.427607	156.600000
2765.782590	142.800000
2767.135775	142.000000
2768.491867	139.000000
2769.844594	127.200000
2771.197094	146.800000
2772.549365	134.000000
2773.902975	132.200000
2775.253223	120.000000
2776.601678	142.400000
2777.953037	133.200000
2779.301037	131.200000
2780.650375	113.600000
2781.997922	136.600000
2783.345241	112.600000
2784.692334	118.200000
2786.037636	139.200000
2787.382712	149.800000
2788.727561	121.200000
2790.072185	147.600000
2791.413457	141.000000
2792.756067	133.400000
2794.098451	119.000000
2795.440611	155.000000
2796.779421	106.800000
2798.121130	128.600000
2799.459492	111.200000
2800.799191	135.000000
2802.137104	116.600000
2803.473233	130.400000
2804.809138	106.400000
2806.146381	153.000000
2807.481840	121.000000
2808.817076	126.600000
2810.150529	144.400000
2811.485320	106.800000
2812.816769	147.400000
2814.151114	131.200000
2815.480561	121.400000
2816.811345	136.600000
2818.141907	128.600000
2819.470690	116.600000
2820.800809	143.600000
2822.129150	125.200000
2823.457270	117.400000
2824.783612	146.200000
2826.111291	129.800000
2827.435636	123.800000
2828.761318	105.000000
2830.085224	120.800000
2831.408911	112.800000
2832.733933	109.000000
2834.055625	94.600000
2835.377099	102.600000
2836.698354	121.000000
2838.019390	136.400000
2839.338654	122.600000
2840.659253	123.600000
2841.978080	113.200000
2843.296689	103.400000
2844.613527	104.200000
2845.930148	93.400000
2847.246552	125.800000
2848.561186	99.000000
2849.877156	129.000000
2851.189805	110.800000
2852.503790	105.200000
2853.817557	114.400000
2855.131109	101.800000
2856.442893	106.200000
2857.752911	108.400000
2859.064264	106.400000
2860.372302	122.200000
2861.681674	110.600000
2862.990832	88.200000
2864.299774	103.200000
2865.606952	113.200000
2866.912368	124.400000
2868.219118	108.000000
2869.524105	107.200000
2870.828879	111.200000
2872.131891	107.800000
2873.437785	129.800000
2874.738823	130.800000
2876.041196	110.800000
2877.341809	115.000000
2878.643756	122.800000
2879.945490	110.800000
2881.243919	99.400000
2882.543682	122.000000
2883.841688	112.200000
2885.139482	108.000000
2886.435520	110.400000
2887.732891	114.800000
2889.028506	113.600000
2890.323910	137.200000
2891.619103	135.800000
2892.910999	137.200000
2894.205771	115.800000
2895.497246	134.800000
2896.790054	119.200000
2898.082652	111.800000
2899.371956	100.400000
2900.662592	137.600000
2901.951477	107.400000
2903.241695	110.600000
2904.528620	110.200000
2905.816879	89.400000
2907.103387	104.000000
2908.389688	126.600000
2909.675780	95.600000
2910.960124	123.800000
2912.247339	133.400000
2913.529728	122.400000
2914.813449	98.000000
2916.095424	106.000000
2917.377191	120.000000
2918.657214	101.800000
2919.940106	123.400000
2921.221253	125.000000
2922.499118	126.200000
2923.779852	152.400000
2925.057305	96.000000
2926.334552	102.600000
2927.610058	112.800000
2928.888431	126.600000
2930.161989	94.400000
2931.438415	114.400000
2932.713100	121.400000
2933.986045	105.000000
2935.260320	116.600000
2936.532856	101.400000
2937.805188	111.400000
2939.074246	102.000000
2940.346170	94.800000
2941.616356	139.800000
2942.886339	109.400000
2944.156118	112.400000
2945.424160	105.600000
2946.690467	112.000000
2947.956571	105.000000
2949.224005	111.600000
2950.489705	94.000000
2951.755202	101.600000
2953.020497	119.000000
2954.282527	94.200000
2955.545888	96.000000
2956.809046	112.000000
2958.070473	101.400000
2959.333229	143.400000
2960.594254	144.000000
2961.853547	111.200000
2963.112641	114.600000
2964.371534	111.400000
2965.630227	133.600000
2966.888720	117.600000
2968.145484	100.600000
2969.402048	115.400000
2970.656885	116.600000
2971.913050	102.200000
2973.165961	97.000000
2974.420201	104.400000
2975.674242	92.600000
2976.926557	122.600000
2978.178673	88.800000
2979.429065	101.600000
2980.682312	99.000000
2981.930782	110.400000
2983.182107	105.200000
2984.430182	96.000000
2985.678061	86.800000
2986.925742	75.200000
2988.173227	100.800000
2989.418989	91.200000
2990.664556	88.000000
2991.911450	136.800000
2993.155100	114.000000
2994.400078	95.200000
2995.641812	124.400000
2996.886398	95.600000
2998.129265	104.200000
2999.368891	117.400000
3000.611367	116.800000
3001.850604	90.000000
3003.091167	106.000000
3004.330015	105.000000
3005.568667	96.000000
3006.805605	104.000000
3008.043869	98.000000
3009.280419	125.800000
3010.516774	92.400000
3011.752936	117.200000
3012.987385	90.000000
3014.221640	106.200000
3015.455702	66.400000
3016.688052	80.600000
3017.918690	82.800000
3019.152174	105.800000
3020.383946	88.000000
3021.614008	97.800000
3022.843878	70.800000
3024.072038	107.800000
3025.301524	80.200000
3026.529302	120.800000
3027.756888	96.800000
3028.985800	102.800000
3030.209970	102.200000
3031.436983	82.800000
3032.660772	121.200000
3033.885888	103.800000
3035.109297	95.000000
3036.332516	90.400000
3037.554030	90.800000
3038.778385	93.000000
3039.998005	105.400000
3041.218951	102.400000
3042.439708	90.000000
3043.658761	88.800000
3044.879140	95.400000
3046.096302	82.800000
3047.314789	108.200000
3048.531574	88.400000
3049.748172	103.400000
3050.964581	92.000000
3052.177778	105.600000
3053.393812	106.600000
3054.606634	85.400000
3055.822293	113.200000
3057.033229	85.000000
3058.245490	100.200000
3059.457565	80.000000
3060.669453	115.800000
3061.879643	82.600000
3063.089647	85.400000
3064.299465	59.000000
3065.507588	80.600000
3066.715524	81.400000
3067.921765	90.600000
3069.129331	79.400000
3070.335202	75.400000
3071.540889	71.400000
3072.746390	76.600000
3073.950198	78.600000
3075.155330	87.200000
3076.358770	90.200000
3077.560517	89.600000
3078.762081	92.800000
3079.963460	95.000000
3081.164657	82.600000
3082.364162	49.400000
3083.563485	95.200000
3084.764131	91.000000
3085.963087	92.800000
3087.158849	105.000000
3088.357440	89.200000
3089.552837	104.800000
3090.749557	75.200000
3091.943085	89.800000
3093.139441	71.200000
3094.334111	116.200000
3095.525590	77.600000
3096.721400	76.000000
3097.912517	105.200000
3099.104956	81.800000
3100.294208	61.800000
3101.486286	79.600000
3102.676679	91.200000
3103.863887	85.600000
3105.052418	76.400000
3106.242270	84.600000
3107.428939	93.000000
3108.615428	60.400000
3109.801737	83.400000
3110.989368	95.800000
3112.173818	94.600000
3113.356587	83.600000
3114.542179	87.800000
3115.726092	100.600000
3116.908326	66.200000
3118.090381	92.800000
3119.272259	83.600000
3120.453958	78.400000
3121.633979	74.600000
3122.812324	87.800000
3123.993489	83.000000
3125.171480	102.800000
3126.349293	70.600000
3127.526929	87.400000
3128.702890	70.600000
3129.878674	112.400000
3131.055780	96.000000
3132.231211	76.400000
3133.404969	85.000000
3134.577055	94.200000
3135.750461	77.200000
3136.923691	101.800000
3138.095250	73.000000
3139.268129	100.800000
3140.437842	90.800000
3141.608874	93.000000
3142.778237	79.800000
3143.945930	83.600000
3145.116438	66.600000
3146.282287	75.200000
3147.452446	82.200000
3148.617947	60.000000
3149.783275	92.200000
3150.948429	115.600000
3152.113409	100.000000
3153.279709	89.800000
3154.441357	83.800000
3155.604324	107.200000
3156.767119	86.600000
3157.929741	74.400000
3159.090698	99.400000
3160.251482	86.400000
3161.412094	74.800000
3162.571042	110.600000
3163.729819	78.000000
3164.888424	81.800000
3166.046857	99.800000
3167.205118	92.600000
3168.361717	69.400000
3169.516655	64.200000
3170.672912	91.200000
3171.827508	88.000000
3172.981934	66.600000
3174.134700	98.400000
3175.287296	83.400000
3176.439721	90.000000
3177.591977	96.000000
3178.744062	109.000000
3179.893002	95.800000
3181.044748	80.200000
3182.194836	101.200000
3183.343268	84.400000
3184.491531	90.600000
3185.639624	99.600000
3186.787549	67.600000
3187.933819	66.200000
3189.079920	69.600000
3190.224366	99.600000
3191.368645	78.800000
3192.512756	92.000000
3193.658184	78.800000
3194.800474	87.400000
3195.942597	94.600000
3197.084552	112.000000
3198.226341	82.800000
3199.367962	106.600000
3200.506447	71.000000
3201.646250	98.400000
3202.787371	91.600000
3203.925357	83.800000
3205.061694	73.800000
3206.197865	90.800000
3207.335354	93.000000
3208.471193	117.600000
3209.608350	100.000000
3210.740894	107.800000
3211.877720	74.000000
3213.009934	109.000000
3214.143465	89.600000
3215.276832	110.600000
3216.407071	93.000000
3217.540108	64.200000
3218.670019	80.000000
3219.801246	88.800000
3220.929349	95.400000
3222.060248	102.600000
3223.189503	93.000000
3224.317115	88.600000
3225.441605	91.800000
3226.570369	101.000000
3227.696012	104.200000
3228.821493	88.600000
3229.945332	98.200000
3231.071965	88.200000
3232.194001	69.200000
3233.317353	98.800000
3234.440543	71.600000
3235.563571	94.200000
3236.684959	66.400000
3237.806186	77.200000
3238.925774	58.600000
3240.045201	86.000000
3241.162990	90.800000
3242.283572	77.600000
3243.401039	86.200000
3244.518346	73.200000
3245.635493	94.400000
3246.751004	92.800000
3247.867830	63.000000
3248.981545	75.400000
3250.098050	98.800000
3251.212921	78.200000
3252.324683	66.000000
3253.436285	71.000000
3254.549203	87.200000
3255.661962	96.200000
3256.771614	107.000000
3257.882580	104.800000
3258.993388	78.600000
3260.102565	69.600000
3261.210110	80.400000
3262.318969	54.200000
3263.427671	75.600000
3264.533270	99.800000
3265.640183	84.000000
3266.745467	62.000000
3267.852066	38.200000
3268.955564	71.800000
3270.060376	81.600000
3271.165031	78.000000
3272.266587	108.600000
3273.367988	91.600000
3274.470702	79.200000
3275.573259	71.400000
3276.672720	73.400000
3277.774965	70.800000
3278.874114	86.600000
3279.971639	63.600000
3281.069008	99.200000
3282.169160	102.200000
3283.266218	80.000000
3284.363121	64.000000
3285.459869	64.000000
3286.552059	51.800000
3287.648497	57.600000
3288.743313	80.400000
3289.837975	67.000000
3290.931015	71.800000
3292.023901	80.800000
3293.115166	71.600000
3294.207744	79.200000
3295.298701	60.400000
3296.388039	77.600000
3297.477224	84.200000
3298.567722	70.400000
3299.655135	93.000000
3300.742396	63.800000
3301.830969	85.400000
3302.919389	81.600000
3304.003262	88.000000
3305.091377	66.400000
3306.176411	74.200000
3307.259828	71.200000
3308.344558	35.000000
3309.427673	74.600000
3310.512099	84.800000
3311.593447	80.000000
3312.676107	70.200000
3313.757153	64.400000
3314.838048	62.800000
3315.917329	62.800000
3316.996461	78.800000
3318.076903	59.800000
3319.154271	70.200000
3320.232951	69.600000
3321.310020	66.400000
3322.386938	64.000000
3323.462245	58.800000
3324.537403	89.200000
3325.613872	76.800000
3326.687271	74.200000
3327.760521	105.200000
3328.835081	81.800000
3329.908033	35.200000
3330.979376	55.600000
3332.052031	58.400000
3333.121618	73.200000
3334.192516	81.800000
3335.261807	70.200000
3336.332409	79.400000
3337.401404	62.000000
3338.468793	65.400000
3339.534577	74.200000
3340.604587	90.200000
3341.671534	64.600000
3342.735419	83.600000
3343.802072	84.400000
3344.867120	74.000000
3345.930565	87.800000
3346.993864	61.800000
3348.057016	67.200000
3349.120022	51.000000
3350.182882	71.800000
3351.244140	74.200000
3352.302341	71.800000
3353.364763	83.200000
3354.424128	50.000000
3355.483348	71.200000
3356.543878	64.800000
3357.599898	74.000000
3358.658682	62.600000
3359.712959	78.400000
3360.770000	66.600000
3361.825443	72.200000
3362.882194	73.200000
3363.937347	83.600000
3364.990903	72.000000
3366.042863	76.800000
3367.097584	59.800000
3368.149256	68.400000
3369.200785	77.400000
3370.253622	84.800000
3371.303412	70.400000
3372.354511	55.400000
3373.402564	79.600000
3374.453376	100.400000
3375.501144	90.400000
3376.548769	94.400000
3377.596251	46.200000
3378.642141	62.800000
3379.689339	70.800000
3380.733495	81.000000
3381.780409	54.600000
3382.825731	64.600000
3383.868012	57.000000
3384.910153	65.800000
3385.953601	63.600000
3386.996909	72.000000
3388.038626	53.800000
3389.080202	45.800000
3390.121638	64.600000
3391.161484	69.800000
3392.199742	55.400000
3393.239309	65.200000
3394.278734	59.600000
3395.316572	53.800000
3396.352823	78.000000
3397.388935	91.000000
3398.426354	61.400000
3399.460740	48.200000
3400.496433	44.600000
3401.531987	69.800000
3402.564510	54.400000
3403.599786	60.200000
3404.632031	46.600000
3405.664138	63.600000
3406.694661	79.600000
3407.726491	73.800000
3408.758183	62.600000
3409.786847	85.600000
3410.815374	70.000000
3411.845208	60.400000
3412.874903	49.000000
3413.901573	87.400000
3414.929550	63.200000
3415.954502	64.000000
3416.982204	65.800000
3418.006883	74.600000
3419.032868	54.400000
3420.057273	75.600000
3421.081542	78.400000
3422.104232	67.600000
3423.126786	78.000000
3424.150646	65.000000
3425.171486	65.000000
3426.192191	72.200000
3427.214201	38.400000
3428.233193	79.400000
3429.252050	53.400000
3430.272212	63.000000
3431.289358	47.800000
