-117.967255	-4.400000
-115.297655	5.600000
-112.630990	-1.200000
-109.965077	-8.400000
-107.302096	-19.400000
-104.637686	5.800000
-101.976206	10.400000
-99.313296	0.800000
-96.655494	13.000000
-93.996262	13.000000
-91.337778	3.400000
-88.682218	19.400000
-86.025230	0.000000
-83.373339	-6.000000
-80.720019	18.400000
-78.069619	-13.000000
-75.417789	-4.400000
-72.771050	-19.200000
-70.122881	1.200000
-67.475456	-15.200000
-64.830944	-5.600000
-62.185004	-7.000000
-59.544145	16.000000
-56.901857	4.800000
-54.262477	3.200000
-51.621669	-26.600000
-48.981601	10.600000
-46.346605	18.000000
-43.710181	1.200000
-41.076659	-10.400000
-38.441709	0.000000
-35.811824	-7.200000
-33.178347	-14.600000
-30.549932	21.800000
-27.922251	-2.200000
-25.293141	15.600000
-22.669088	4.200000
-20.041446	21.200000
-17.418857	-0.400000
-14.797000	45.800000
-12.175873	47.000000
-9.555476	68.200000
-6.937968	254.000000
-4.319030	844.000000
-1.702979	2201.200000
0.912344	2562.200000
3.526940	1175.000000
6.138653	163.200000
8.751795	46.600000
11.359903	35.400000
13.971593	19.400000
16.578252	10.400000
19.186339	13.600000
21.793702	-10.600000
24.396040	-3.000000
27.001956	-4.000000
29.602850	-0.200000
32.205172	1.600000
34.802477	10.800000
37.403357	2.800000
39.999223	-3.200000
42.596516	-0.200000
45.193090	-5.000000
47.784655	2.800000
50.377648	33.400000
52.967780	22.800000
55.559340	-0.600000
58.148040	21.200000
60.738167	-3.000000
63.323296	-12.600000
65.909851	0.000000
68.495693	-33.000000
71.078681	2.200000
73.663095	3.600000
76.240381	6.600000
78.821233	-5.000000
81.399236	13.800000
83.976529	-22.200000
86.555248	-9.200000
89.128986	-10.000000
91.704150	5.200000
94.276471	-2.400000
96.848084	9.600000
99.416857	0.400000
101.987057	15.000000
104.554419	9.400000
107.123206	-4.400000
109.689157	2.000000
112.252273	11.800000
114.818945	4.000000
117.376396	12.200000
119.939532	-4.600000
122.497708	16.400000
125.059439	13.400000
127.616213	26.000000
130.174414	31.000000
132.727662	90.400000
135.280211	114.600000
137.836311	146.600000
140.387464	150.600000
142.937918	195.800000
145.487675	266.000000
148.034614	267.400000
150.580856	249.800000
153.128524	278.800000
155.675496	272.200000
158.217533	304.200000
160.758876	274.400000
163.299526	306.000000
165.841602	275.200000
168.380866	284.400000
170.917322	289.000000
173.453086	282.200000
175.990276	275.800000
178.526775	248.800000
181.060468	262.200000
183.591358	291.800000
186.121559	244.000000
188.653185	278.200000
191.182010	261.600000
193.708036	281.200000
196.233376	273.200000
198.760142	248.000000
201.284110	261.200000
203.807394	270.000000
206.329993	283.800000
208.849799	278.400000
211.368922	270.200000
213.887362	279.600000
216.407226	278.600000
218.920089	280.200000
221.436483	285.600000
223.952195	284.000000
226.463017	285.200000
228.975265	295.800000
231.484729	296.400000
233.993515	293.800000
236.501623	276.200000
239.011154	269.600000
241.515805	287.800000
244.019780	296.800000
246.525180	311.200000
249.025704	268.800000
251.529751	269.600000
254.026828	271.200000
256.527427	271.800000
259.025255	320.800000
261.522410	289.200000
264.018892	267.600000
266.510511	266.800000
269.005650	292.600000
271.498023	270.400000
273.989725	296.000000
276.478663	275.400000
278.969026	286.200000
281.456626	292.000000
283.941467	299.000000
286.429823	289.800000
288.911239	315.000000
291.396169	301.800000
293.876254	299.200000
296.359851	288.600000
298.838605	273.000000
301.318783	306.200000
303.796208	316.600000
306.272970	327.000000
308.749069	304.000000
311.222419	296.800000
313.695107	322.400000
316.167134	305.000000
318.638500	376.200000
321.107122	377.400000
323.575084	357.000000
326.044468	354.200000
328.509030	329.200000
330.977096	301.000000
333.440342	322.600000
335.902930	305.800000
338.364862	285.600000
340.826137	301.400000
343.284678	341.000000
345.744641	284.200000
348.201871	322.200000
350.658447	305.400000
353.114369	340.400000
355.567562	307.200000
358.022176	292.800000
360.471989	293.000000
362.925298	348.600000
365.373809	303.600000
367.821669	324.200000
370.270950	314.800000
372.715438	312.200000
375.161348	298.400000
377.606609	316.000000
380.049150	287.000000
382.491044	286.600000
384.932291	299.400000
387.370822	328.800000
389.810775	286.800000
392.248014	318.600000
394.682541	323.400000
397.120556	333.600000
399.553794	311.200000
401.988454	301.600000
404.418340	337.400000
406.851712	287.000000
409.280314	308.000000
411.708275	312.600000
414.137656	349.200000
416.562272	311.000000
418.988310	289.400000
421.413707	339.600000
423.838464	292.400000
426.258463	322.600000
428.679883	288.800000
431.098606	310.000000
433.518750	285.400000
435.936199	286.200000
438.355068	309.600000
440.771244	336.600000
443.182673	315.200000
445.597578	303.600000
448.009793	316.400000
450.421374	282.000000
452.832321	304.400000
455.240582	323.400000
457.648210	289.200000
460.055207	319.000000
462.461571	315.400000
464.865253	301.200000
467.268305	301.200000
469.670727	321.000000
472.072519	273.400000
474.471634	309.200000
476.872168	305.600000
479.272073	308.800000
481.667255	321.400000
484.065904	295.600000
486.459833	283.400000
488.853136	333.400000
491.245813	293.000000
493.637865	293.600000
496.031335	313.600000
498.420094	297.600000
500.806186	263.200000
503.193697	260.800000
505.580586	279.800000
507.964811	265.000000
510.350455	230.600000
512.733436	252.200000
515.113757	222.200000
517.495497	262.400000
519.874578	218.400000
522.255078	232.800000
524.632920	209.200000
527.008107	231.200000
529.382676	246.400000
531.758664	205.800000
534.131998	240.000000
536.506750	226.400000
538.876817	211.200000
541.246268	223.600000
543.617137	246.000000
545.983326	228.600000
548.350933	242.000000
550.715894	232.600000
553.080242	205.400000
555.443978	236.800000
557.809130	205.600000
560.169611	237.800000
562.531510	204.400000
564.890768	206.000000
567.247389	205.000000
569.607454	230.600000
571.960828	208.800000
574.317647	227.400000
576.671831	227.000000
579.025407	246.400000
581.378374	242.200000
583.728710	235.400000
586.080462	200.200000
588.425538	182.800000
590.776078	210.800000
593.119944	204.400000
595.469272	197.800000
597.813952	233.400000
600.156006	240.600000
602.499478	199.800000
604.840327	209.800000
607.180574	202.000000
609.518200	204.400000
611.859261	210.000000
614.195684	209.800000
616.533524	206.800000
618.868747	233.400000
621.201354	231.400000
623.535377	201.000000
625.866787	209.600000
628.197598	201.000000
630.527811	222.000000
632.857426	227.400000
635.182419	239.600000
637.512853	213.600000
639.838665	237.400000
642.161871	204.400000
644.486492	203.400000
646.808508	204.400000
649.129931	204.200000
651.448750	194.800000
653.768985	238.800000
656.088627	199.800000
658.405668	209.400000
660.722117	212.800000
663.035968	197.400000
665.351235	198.800000
667.663905	224.000000
669.977990	213.600000
672.287475	200.000000
674.598376	220.800000
676.906684	198.600000
679.214404	181.800000
681.523539	197.800000
683.828081	209.200000
686.132036	205.400000
688.435406	210.600000
690.740190	206.800000
693.040388	177.400000
695.342000	190.200000
697.643028	187.200000
699.939473	205.000000
702.237334	184.400000
704.534611	221.600000
706.831305	187.800000
709.123423	198.600000
711.418952	216.600000
713.709908	224.400000
716.002277	202.400000
718.292072	206.800000
720.581286	210.400000
722.869921	216.800000
725.155984	187.800000
727.443460	220.200000
729.728365	212.000000
732.012693	182.200000
734.294452	200.000000
736.577625	213.600000
738.860221	188.200000
741.138262	190.000000
743.417716	151.800000
745.696595	193.200000
747.974898	223.800000
750.248652	214.800000
752.523820	230.800000
754.798414	242.400000
757.070448	182.600000
759.343896	214.200000
761.614786	216.800000
763.883120	217.000000
766.152867	199.200000
768.420060	201.800000
770.686682	195.800000
772.952734	223.600000
775.216235	190.000000
777.481149	224.600000
779.745493	219.400000
782.005308	194.800000
784.266535	203.200000
786.527195	228.800000
788.785309	213.800000
791.040878	200.000000
793.299838	197.600000
795.552299	213.400000
797.810127	222.400000
800.063435	228.200000
802.314204	189.400000
804.566385	242.200000
806.816028	218.800000
809.067082	221.800000
811.313625	213.800000
813.561580	223.600000
815.807001	210.000000
818.053833	186.200000
820.300104	194.200000
822.541871	223.200000
824.787020	210.400000
827.025697	205.200000
829.267756	192.400000
831.505317	245.600000
833.744290	207.600000
835.980736	213.000000
838.218593	220.000000
840.453925	176.800000
842.686734	221.400000
844.920954	213.600000
847.152652	174.600000
849.383794	215.000000
851.614383	223.000000
853.844416	202.200000
856.073896	207.200000
858.298894	188.000000
860.527267	201.400000
862.751161	179.200000
864.976465	184.800000
867.197294	182.800000
869.421495	211.600000
871.641223	212.800000
873.862362	211.600000
876.082950	183.800000
878.301028	203.400000
880.520516	211.600000
882.735538	192.200000
884.950013	196.600000
887.163939	176.200000
889.377319	194.800000
891.590151	186.200000
893.802437	190.800000
896.012220	192.800000
898.221458	203.600000
900.430151	196.400000
902.636345	210.800000
904.843948	212.000000
907.049053	207.000000
909.253615	167.400000
911.455682	208.400000
913.659158	205.400000
915.860140	197.400000
918.060581	180.600000
920.262429	198.000000
922.457887	204.200000
924.656704	193.400000
926.851082	212.800000
929.048818	204.400000
931.242118	198.600000
933.436827	224.400000
935.629050	210.800000
937.820735	210.600000
940.011882	175.800000
942.200546	194.200000
944.388673	203.800000
946.574320	207.400000
948.763319	185.400000
950.947895	179.200000
953.131936	210.200000
955.319327	212.200000
957.498414	184.000000
959.680852	224.800000
961.862756	177.400000
964.042186	235.200000
966.219142	218.000000
968.397507	245.800000
970.577279	208.200000
972.750702	204.400000
974.927471	190.200000
977.099833	221.000000
979.273603	203.000000
981.442969	218.000000
983.615679	232.200000
985.785924	220.800000
987.955640	234.800000
990.124827	258.600000
992.289617	191.000000
994.457748	237.600000
996.621485	237.400000
998.786628	239.400000
1000.949312	215.800000
1003.111471	226.800000
1005.271173	248.600000
1007.430351	243.000000
1009.590935	227.400000
1011.749064	240.000000
1013.906669	240.200000
1016.063751	212.000000
1018.220310	223.200000
1020.372489	244.000000
1022.526074	244.600000
1024.679138	228.400000
1026.829754	227.600000
1028.981775	228.200000
1031.129423	236.200000
1033.280403	253.400000
1035.427012	234.600000
1037.573103	238.000000
1039.718674	254.000000
1041.865651	227.200000
1044.006339	241.400000
1046.150357	263.200000
1048.291934	243.600000
1050.432995	224.600000
1052.575460	252.200000
1054.711646	240.400000
1056.851158	242.800000
1058.986314	235.800000
1061.124795	250.200000
1063.258922	287.800000
1065.392536	256.200000
1067.527555	271.400000
1069.658224	245.600000
1071.790298	257.200000
1073.919943	271.800000
1076.049076	244.000000
1078.177697	240.000000
1080.305807	293.800000
1082.431491	227.000000
1084.556665	247.000000
1086.683243	223.200000
1088.805483	241.400000
1090.929128	230.800000
1093.048439	249.600000
1095.172978	241.800000
1097.291272	239.200000
1099.410971	226.000000
1101.528251	264.800000
1103.645025	228.000000
1105.761292	261.600000
1107.875144	220.400000
1109.990399	200.600000
1112.101331	229.000000
1114.215576	238.000000
1116.325500	230.400000
1118.436828	254.200000
1120.547651	211.400000
1122.654158	239.600000
1124.763975	230.600000
1126.869477	236.800000
1128.976382	241.200000
1131.077072	227.000000
1133.182974	236.000000
1135.284567	228.400000
1137.387563	209.600000
1139.490058	244.000000
1141.586346	231.000000
1143.687842	219.600000
1145.785034	207.400000
1147.881729	231.800000
1149.977925	233.400000
1152.073624	234.400000
1154.168824	226.600000
1156.261629	226.600000
1158.355835	225.600000
1160.443850	200.000000
1162.537063	211.200000
1164.624088	235.600000
1166.714412	212.000000
1168.800449	257.600000
1170.889783	223.000000
1172.972936	211.800000
1175.057491	217.800000
1177.143448	222.800000
1179.225123	221.400000
1181.308200	206.400000
1183.388891	197.200000
1185.469090	211.200000
1187.548798	189.200000
1189.628015	219.200000
1191.704850	254.400000
1193.779304	220.800000
1195.857049	219.200000
1197.930525	232.600000
1200.005401	196.600000
1202.076010	225.200000
1204.148021	213.400000
1206.217655	213.800000
1208.288690	236.000000
1210.359237	228.000000
1212.425523	238.200000
1214.493210	229.600000
1216.558525	216.000000
1218.625240	228.600000
1220.687699	207.200000
1222.753443	229.000000
1224.814934	215.400000
1226.877824	243.800000
1228.938347	196.600000
1230.998386	218.600000
1233.057943	196.600000
1235.115134	206.000000
1237.171844	250.600000
1239.226191	194.400000
1241.283818	200.200000
1243.339083	205.800000
1245.390107	190.400000
1247.442531	234.000000
1249.494475	210.200000
1251.544061	234.400000
1253.593168	223.400000
1255.641797	209.400000
1257.689947	222.600000
1259.737618	224.400000
1261.781060	231.000000
1263.827776	212.000000
1265.872139	220.600000
1267.916026	237.000000
1269.957561	215.000000
1271.996747	213.800000
1274.039206	213.800000
1276.077442	235.600000
1278.117077	211.000000
1280.156237	239.800000
1282.191178	211.800000
1284.227518	218.600000
1286.261514	265.600000
1288.296908	224.400000
1290.328088	210.200000
1292.360666	252.200000
1294.392773	245.000000
1296.422539	237.200000
1298.453703	221.200000
1300.480659	265.200000
1302.509013	273.600000
1304.533163	249.400000
1306.560577	221.400000
1308.583789	261.000000
1310.608399	260.000000
1312.630675	275.600000
1314.654348	246.400000
1316.675688	258.000000
1318.696560	265.800000
1320.716965	265.800000
1322.733177	267.800000
1324.750786	296.400000
1326.766067	274.000000
1328.784607	313.200000
1330.798958	303.200000
1332.810983	313.000000
1334.826265	299.800000
1336.837362	300.600000
1338.849856	308.000000
1340.858167	339.400000
1342.869734	305.600000
1344.875261	302.600000
1346.884044	302.200000
1348.888649	321.000000
1350.896508	298.800000
1352.903905	288.600000
1354.905271	296.000000
1356.908034	313.800000
1358.910336	262.000000
1360.912179	277.200000
1362.913562	238.800000
1364.912632	277.400000
1366.911243	244.400000
1368.909396	263.400000
1370.907090	237.200000
1372.900622	263.800000
1374.895550	215.000000
1376.890020	240.200000
1378.884035	227.200000
1380.875741	229.800000
1382.866993	238.000000
1384.855939	212.000000
1386.846280	226.800000
1388.836166	241.000000
1390.823749	208.600000
1392.810877	237.000000
1394.795704	200.000000
1396.781926	208.000000
1398.765848	233.200000
1400.749317	210.200000
1402.732333	205.600000
1404.713052	210.400000
1406.695165	186.800000
1408.674982	248.200000
1410.654347	213.000000
1412.629574	223.800000
1414.608040	236.800000
1416.584211	213.000000
1418.559934	192.600000
1420.535207	237.800000
1422.508189	192.400000
1424.480723	213.200000
1426.452809	204.400000
1428.424448	204.800000
1430.391958	211.600000
1432.364542	218.600000
1434.329321	233.200000
1436.299171	231.400000
1438.264898	175.600000
1440.232017	216.200000
1442.196853	190.400000
1444.157569	209.400000
1446.123354	223.000000
1448.083183	258.400000
1450.044405	201.600000
1452.007020	227.000000
1453.965520	250.400000
1455.923577	232.200000
1457.881193	228.000000
1459.838367	218.400000
1461.793265	247.400000
1463.749555	218.200000
1465.703571	203.200000
1467.657147	238.200000
1469.608450	243.200000
1471.561145	193.600000
1473.511569	226.200000
1475.461553	195.400000
1477.411099	207.800000
1479.358376	233.800000
1481.303386	201.600000
1483.249787	250.200000
1485.195751	218.800000
1487.141278	229.000000
1489.084540	221.400000
1491.027365	236.000000
1492.967927	235.600000
1494.909880	246.400000
1496.849571	221.400000
1498.788828	237.400000
1500.727649	195.600000
1502.664211	218.400000
1504.602164	243.400000
1506.537858	247.800000
1508.473119	236.600000
1510.406124	225.200000
1512.338696	224.800000
1514.270836	255.200000
1516.202544	265.000000
1518.131998	237.800000
1520.062843	237.200000
1521.993256	247.200000
1523.919597	249.200000
1525.847329	254.800000
1527.772810	253.200000
1529.697862	254.600000
1531.622485	258.600000
1533.546679	268.400000
1535.468625	261.600000
1537.391962	291.400000
1539.313053	302.400000
1541.231899	309.800000
1543.152134	338.600000
1545.070127	373.400000
1546.987693	416.200000
1548.903017	411.800000
1550.819731	458.800000
1552.732390	478.600000
1554.648253	580.400000
1556.561876	644.600000
1558.473262	700.000000
1560.386036	766.600000
1562.294761	809.800000
1564.204875	877.400000
1566.114566	867.600000
1568.023834	883.600000
1569.930868	827.800000
1571.835669	802.600000
1573.741859	766.400000
1575.645817	710.400000
1577.549354	671.200000
1579.452471	593.600000
1581.353358	563.000000
1583.255634	506.200000
1585.155682	473.000000
1587.057117	445.800000
1588.954519	421.400000
1590.851502	402.000000
1592.748067	350.000000
1594.646020	357.200000
1596.538138	325.600000
1598.433449	332.200000
1600.328343	298.400000
1602.221015	302.600000
1604.113271	297.000000
1606.003306	262.200000
1607.892927	276.000000
1609.782131	285.000000
1611.670921	264.200000
1613.557493	264.200000
1615.445453	275.800000
1617.329396	259.800000
1619.214727	243.200000
1621.099643	262.400000
1622.982346	237.200000
1624.866436	263.000000
1626.746515	221.600000
1628.627980	220.800000
1630.507235	201.400000
1632.387876	219.000000
1634.262713	214.000000
1636.142531	185.000000
1638.018345	223.800000
1639.893748	245.000000
1641.770537	234.600000
1643.641530	224.600000
1645.515704	214.600000
1647.385880	205.800000
1649.259236	210.800000
1651.130389	186.800000
1652.999340	195.400000
1654.869677	196.200000
1656.736020	200.600000
1658.603749	182.000000
1660.469279	201.600000
1662.336195	213.000000
1664.199122	197.200000
1666.063434	188.600000
1667.925550	187.800000
1669.787262	216.800000
1671.650358	183.000000
1673.511260	210.200000
1675.369968	213.000000
1677.228273	191.200000
1679.087963	189.800000
1680.941885	182.200000
1682.798981	190.600000
1684.655674	185.200000
1686.508391	193.800000
1688.364278	219.200000
1690.216192	166.800000
1692.067705	169.800000
1693.918817	191.400000
1695.769529	182.200000
1697.619840	165.200000
1699.467966	175.000000
1701.317477	190.800000
1703.161239	181.600000
1705.009950	183.000000
1706.852916	189.800000
1708.699047	187.400000
1710.541216	210.800000
1712.386551	182.600000
1714.226145	206.800000
1716.067123	182.000000
1717.909484	191.000000
1719.747889	213.400000
1721.587677	227.600000
1723.425290	166.400000
1725.262507	187.400000
1727.097551	193.800000
1728.933978	183.800000
1730.768233	183.000000
1732.602093	207.200000
1734.435560	204.800000
1736.265080	182.600000
1738.097759	182.000000
1739.926494	206.000000
1741.758386	188.800000
1743.586337	188.400000
1745.413895	182.600000
1747.241061	213.000000
1749.067836	167.200000
1750.894220	178.200000
1752.716666	156.200000
1754.542268	184.600000
1756.363935	151.000000
1758.186984	180.400000
1760.007871	171.600000
1761.828370	179.200000
1763.650250	170.800000
1765.466430	196.800000
1767.285762	172.000000
1769.101167	199.000000
1770.919722	192.200000
1772.734352	185.400000
1774.548596	164.800000
1776.362452	182.400000
1778.175922	194.200000
1779.987239	185.200000
1781.799937	168.400000
1783.612248	173.200000
1785.420642	204.400000
1787.230416	198.600000
1789.036276	176.600000
1790.845281	131.600000
1792.650373	166.200000
1794.456846	172.600000
1796.262935	173.400000
1798.065114	178.200000
1799.870436	166.800000
1801.671850	181.800000
1803.474644	172.200000
1805.273532	163.600000
1807.073801	155.400000
1808.873688	181.000000
1810.671434	154.400000
1812.468798	196.200000
1814.265783	150.000000
1816.062387	171.800000
1817.856852	149.800000
1819.652696	173.600000
1821.442886	159.400000
1823.237971	199.000000
1825.027405	169.400000
1826.819975	180.200000
1828.610410	189.600000
1830.398711	166.400000
1832.190147	195.000000
1833.975937	169.600000
1835.763107	182.400000
1837.548145	164.000000
1839.336317	179.200000
1841.120603	173.200000
1842.902760	155.000000
1844.686295	195.600000
1846.467702	171.000000
1848.250488	170.400000
1850.029393	170.200000
1851.809678	178.000000
1853.587836	162.000000
1855.367373	181.400000
1857.144785	201.800000
1858.920073	177.200000
1860.696739	163.800000
1862.471283	168.000000
1864.247205	158.000000
1866.017506	195.600000
1867.790935	158.800000
1869.562244	177.400000
1871.333183	170.200000
1873.105498	180.000000
1874.872200	189.800000
1876.642028	173.800000
1878.407992	177.000000
1880.177079	187.200000
1881.942306	181.200000
1883.707163	168.000000
1885.473398	189.600000
1887.235774	171.000000
1888.997783	182.800000
1890.759424	180.200000
1892.520699	161.800000
1894.281606	170.800000
1896.042147	162.800000
1897.800578	182.000000
1899.558644	144.600000
1901.314601	192.600000
1903.071935	134.200000
1904.828904	174.600000
1906.583767	176.200000
1908.336524	185.400000
1910.088918	168.800000
1911.842687	173.200000
1913.594353	147.000000
1915.343917	187.200000
1917.094856	170.000000
1918.845433	161.000000
1920.592170	143.200000
1922.340284	170.600000
1924.086298	177.400000
1925.833688	169.800000
1927.578979	153.800000
1929.322173	191.400000
1931.066742	203.400000
1932.809216	178.400000
1934.551329	184.000000
1936.293082	169.000000
1938.034476	192.400000
1939.773775	185.800000
1941.512716	160.400000
1943.251298	188.800000
1944.987789	187.000000
1946.723922	184.100000
1948.461429	181.200000
1950.195114	159.000000
1951.930174	179.000000
1953.663146	175.200000
1955.395760	165.800000
1957.128019	184.000000
1958.859921	175.400000
1960.589737	183.000000
1962.317468	143.800000
1964.046574	163.800000
1965.775325	198.600000
1967.501992	186.800000
1969.228305	173.800000
1970.955991	159.800000
1972.678141	169.200000
1974.403392	171.200000
1976.124837	175.800000
1977.849381	155.000000
1979.571846	137.200000
1981.290507	154.000000
1983.012267	163.400000
1984.730225	148.000000
1986.449556	150.200000
1988.165088	174.000000
1989.885440	152.000000
1991.601994	168.800000
1993.314751	180.600000
1995.030605	152.600000
1996.744385	154.800000
1998.457816	192.000000
2000.169176	177.200000
2001.881908	192.000000
2003.590850	167.400000
2005.302885	183.800000
2007.009410	159.000000
2008.719028	174.000000
2010.426578	164.200000
2012.133781	158.200000
2013.838918	168.600000
2015.543708	153.000000
2017.249870	181.400000
2018.952250	139.400000
2020.656002	160.600000
2022.357690	168.800000
2024.059034	182.000000
2025.760032	157.800000
2027.458969	156.600000
2029.159278	157.000000
2030.855812	194.400000
2032.553717	177.000000
2034.249563	187.000000
2035.948495	183.000000
2037.641941	173.200000
2039.336758	173.600000
2041.031233	166.800000
2042.721939	195.400000
2044.415729	180.400000
2046.105752	185.800000
2047.797146	144.600000
2049.486487	172.800000
2051.177198	180.000000
2052.864146	171.600000
2054.550755	146.600000
2056.238734	188.800000
2057.922952	142.200000
2059.608542	148.600000
2061.293792	142.800000
2062.976994	156.000000
2064.661565	167.200000
2066.340674	176.200000
2068.024568	143.600000
2069.703002	176.800000
2071.384512	148.200000
2073.062272	159.000000
2074.739694	155.200000
2076.418486	171.800000
2078.095236	156.800000
2079.769944	142.600000
2081.446021	185.400000
2083.120058	153.800000
2084.793759	145.400000
2086.467125	150.800000
2088.138453	150.400000
2089.809446	163.800000
2091.480105	151.600000
2093.150429	156.400000
2094.820420	178.000000
2096.488375	156.400000
2098.155997	117.000000
2099.821584	168.600000
2101.488540	136.400000
2103.153463	157.400000
2104.818054	159.400000
2106.480613	168.000000
2108.144540	149.400000
2109.806437	120.600000
2111.468002	176.200000
2113.129236	166.000000
2114.788442	153.200000
2116.447317	175.000000
2118.105863	160.200000
2119.764079	155.000000
2121.418571	157.400000
2123.076128	138.600000
2124.733356	166.400000
2126.386862	184.800000
2128.041736	151.000000
2129.692892	180.800000
2131.347109	157.600000
2132.997610	186.800000
2134.649477	150.800000
2136.295936	162.200000
2137.947150	145.000000
2139.594650	182.400000
2141.243517	173.000000
2142.890366	155.600000
2144.536888	163.800000
2146.183085	178.400000
2147.825574	159.200000
2149.471121	169.400000
2151.112961	165.600000
2152.757858	174.800000
2154.399050	156.000000
2156.039918	169.000000
2157.680462	145.000000
2159.318994	186.400000
2160.958892	171.600000
2162.595090	160.200000
2164.232655	169.400000
2165.869896	156.800000
2167.505128	132.200000
2169.140039	152.600000
2170.774628	166.200000
2172.408895	172.600000
2174.039469	149.600000
2175.673095	166.800000
2177.303029	160.600000
2178.934328	172.200000
2180.563622	144.800000
2182.192597	198.600000
2183.821252	178.600000
2185.449588	172.000000
2187.075922	156.200000
2188.701937	173.600000
2190.325951	150.000000
2191.951329	174.200000
2193.574708	146.000000
2195.199450	157.600000
2196.820512	175.600000
2198.441257	189.600000
2200.063367	134.000000
2201.683479	127.600000
2203.301594	159.000000
2204.919394	156.400000
2206.536879	165.200000
2208.154048	171.600000
2209.770902	161.600000
2211.387441	157.800000
2213.001986	157.400000
2214.614539	163.800000
2216.228456	147.800000
2217.840382	170.000000
2219.453671	155.800000
2221.064970	160.000000
2222.674279	158.200000
2224.284952	144.200000
2225.893636	178.200000
2227.502008	167.200000
2229.108392	181.800000
2230.716140	180.000000
2232.321901	170.000000
2233.927351	154.800000
2235.530816	175.000000
2237.135644	159.200000
2238.738488	152.000000
2240.339350	170.800000
2241.941573	142.600000
2243.541815	176.200000
2245.143419	155.800000
2246.741371	162.200000
2248.340685	150.800000
2249.938019	157.400000
2251.535044	135.800000
2253.133432	153.800000
2254.728171	137.400000
2256.320933	163.400000
2257.915058	154.400000
2259.510544	164.800000
2261.102386	133.200000
2262.693921	153.400000
2264.286817	161.400000
2265.874404	165.400000
2267.466688	165.000000
2269.053664	172.200000
2270.643669	166.000000
2272.228369	162.400000
2273.817762	154.200000
2275.401854	154.600000
2276.987307	152.000000
2278.570790	164.600000
2280.157300	126.000000
2281.740175	183.200000
2283.322748	155.600000
2284.905017	161.600000
2286.483657	142.200000
2288.065320	144.200000
2289.643355	165.400000
2291.224413	148.800000
2292.801844	156.100000
2294.377312	163.400000
2295.955802	146.000000
2297.530668	160.200000
2299.105233	157.600000
2300.679498	163.400000
2302.253462	158.600000
2303.827126	185.600000
2305.400489	136.000000
2306.970234	149.800000
2308.539680	171.800000
2310.112144	157.000000
2311.679334	147.000000
2313.249542	147.200000
2314.816135	148.800000
2316.384088	159.200000
2317.950085	158.800000
2319.515785	156.400000
2321.081188	158.400000
2322.644636	170.600000
2324.209444	148.800000
2325.770644	151.800000
2327.334858	176.800000
2328.893810	189.200000
2330.455777	161.800000
2332.015793	165.000000
2333.575513	159.200000
2335.133284	160.200000
2336.690760	141.400000
2338.247942	180.800000
2339.803176	157.200000
2341.358117	184.400000
2342.912764	152.800000
2344.467116	139.000000
2346.021176	157.000000
2347.574941	120.200000
2349.126763	140.800000
2350.676641	168.200000
2352.229527	154.600000
2353.777171	160.400000
2355.327822	165.400000
2356.874882	139.000000
2358.423301	105.800000
2359.971427	129.000000
2361.515965	169.200000
2363.061861	175.200000
2364.605819	139.000000
2366.151134	140.200000
2367.692864	154.200000
2369.235951	150.000000
2370.777102	163.800000
2372.317965	167.200000
2373.858537	159.600000
2375.398821	154.200000
2376.938816	169.000000
2378.475233	123.400000
2380.014651	123.600000
2381.550492	146.200000
2383.087689	161.200000
2384.621311	149.200000
2386.157934	172.200000
2387.692625	155.200000
2389.225387	134.600000
2390.757862	157.600000
2392.288409	145.600000
2393.821954	181.200000
2395.350288	167.200000
2396.879979	161.000000
2398.409384	139.400000
2399.938503	166.200000
2401.467338	137.200000
2402.990967	154.200000
2404.519233	143.000000
2406.042295	167.000000
2407.569991	145.800000
2409.090848	163.600000
2410.616338	167.200000
2412.138267	164.600000
2413.661552	147.600000
2415.182916	159.200000
2416.702360	139.600000
2418.223159	153.600000
2419.742039	149.000000
2421.260637	186.400000
2422.777318	148.400000
2424.295353	169.800000
2425.813107	173.000000
2427.327310	156.600000
2428.841232	180.200000
2430.354874	151.000000
2431.869871	179.200000
2433.381319	150.200000
2434.894122	170.000000
2436.405011	161.600000
2437.915622	161.000000
2439.424321	160.600000
2440.936006	159.400000
2442.444148	159.400000
2443.952012	174.400000
2445.459598	188.400000
2446.963643	155.400000
2448.470674	157.600000
2449.975796	160.800000
2451.480641	169.600000
2452.983578	149.200000
2454.486240	167.600000
2455.988625	159.000000
2457.489105	154.400000
2458.990938	142.000000
2460.490867	162.600000
2461.990520	140.600000
2463.489897	155.600000
2464.987372	152.400000
2466.482945	167.200000
2467.981498	153.200000
2469.476523	164.000000
2470.972900	173.800000
2472.465751	135.000000
2473.959955	169.600000
2475.453885	161.200000
2476.944291	144.000000
2478.437675	162.600000
2479.929161	139.800000
2481.418750	166.000000
2482.908067	135.800000
2484.395489	153.400000
2485.885886	124.200000
2487.372764	149.600000
2488.860994	129.600000
2490.345708	142.800000
2491.830151	146.600000
2493.315946	138.800000
2494.799848	146.400000
2496.285102	158.400000
2497.765221	150.000000
2499.248314	162.600000
2500.729516	151.000000
2502.210449	181.200000
2503.689493	135.600000
2505.168268	189.000000
2506.646775	135.000000
2508.125014	151.000000
2509.602984	142.800000
2511.077449	150.200000
2512.554884	153.600000
2514.028815	143.200000
2515.504096	140.200000
2516.979111	127.200000
2518.450624	126.800000
2519.923487	117.800000
2521.394468	160.000000
2522.866799	179.800000
2524.334017	138.400000
2525.804200	175.200000
2527.272503	150.200000
2528.740541	159.000000
2530.208314	155.000000
2531.675822	139.400000
2533.143065	138.000000
2534.606816	120.000000
2536.071917	160.800000
2537.535141	148.000000
2538.999715	161.600000
2540.460799	153.400000
2541.923233	125.600000
2543.385404	145.600000
2544.844089	152.800000
2546.307346	167.200000
2547.765506	157.000000
2549.225015	138.000000
2550.679430	155.800000
2552.138416	152.000000
2553.595530	156.600000
2555.050773	163.000000
2556.505755	141.200000
2557.958867	146.000000
2559.413328	157.800000
2560.865920	146.600000
2562.318252	136.800000
2563.768716	145.600000
2565.222136	179.200000
2566.670474	150.600000
2568.121768	145.600000
2569.571195	138.800000
2571.017150	172.200000
2572.466060	164.600000
2573.911500	154.200000
2575.358288	156.400000
2576.803212	144.800000
2578.247878	152.400000
2579.693893	172.000000
2581.136440	163.200000
2582.580335	167.200000
2584.020765	179.800000
2585.462542	151.200000
2586.902460	184.800000
2588.343725	161.000000
2589.781529	179.000000
2591.222282	183.000000
2592.657972	157.800000
2594.096612	184.600000
2595.533394	188.200000
2596.968321	164.000000
2598.406195	153.800000
2599.839012	184.600000
2601.273176	198.000000
2602.705486	159.000000
2604.139142	170.200000
2605.570945	170.800000
2607.002494	175.400000
2608.433791	180.400000
2609.863235	197.400000
2611.292427	171.000000
2612.719769	182.400000
2614.148456	155.400000
2615.576892	174.200000
2617.001880	180.200000
2618.428215	190.800000
2619.852701	191.400000
2621.278533	191.400000
2622.700921	193.200000
2624.124655	176.000000
2625.546542	178.200000
2626.968180	224.400000
2628.387972	188.800000
2629.809110	205.600000
2631.229998	191.000000
2632.647448	200.400000
2634.067837	209.800000
2635.484789	198.800000
2636.901492	202.200000
2638.317948	230.400000
2639.734154	206.800000
2641.150113	243.800000
2642.564231	196.200000
2643.978102	239.200000
2645.390133	231.400000
2646.803509	243.200000
2648.213455	246.800000
2649.626336	248.600000
2651.035789	249.000000
2652.444996	254.400000
2653.852367	259.000000
2655.262673	235.000000
2656.671142	259.400000
2658.077776	252.400000
2659.484165	283.800000
2660.888720	287.800000
2662.294619	284.800000
2663.698685	285.200000
2665.102506	255.200000
2666.506084	274.200000
2667.907829	286.800000
2669.310918	297.400000
2670.710589	316.200000
2672.111604	295.200000
2673.509203	311.600000
2674.909732	285.200000
2676.306846	291.000000
2677.705303	319.400000
2679.101932	308.200000
2680.498319	287.200000
2681.894465	294.800000
2683.288784	298.400000
2684.684446	296.200000
2686.076698	320.400000
2687.470293	321.200000
2688.862065	316.600000
2690.255178	325.800000
2691.646468	315.200000
2693.035935	322.600000
2694.425162	269.800000
2695.814150	312.000000
2697.204480	301.400000
2698.589825	273.800000
2699.978094	293.800000
2701.364543	296.600000
2702.750753	292.000000
2704.136725	282.400000
2705.519297	281.000000
2706.903212	274.800000
2708.286889	279.400000
2709.670328	276.400000
2711.050371	262.200000
2712.431756	236.400000
2713.811325	271.800000
2715.192236	258.000000
2716.571331	250.400000
2717.948613	213.800000
2719.327236	254.400000
2720.704046	211.600000
2722.080620	224.000000
2723.456958	221.800000
2724.831484	209.600000
2726.207351	207.800000
2727.579831	214.000000
2728.955227	197.800000
2730.325663	194.600000
2731.697440	203.400000
2733.068982	185.000000
2734.438716	164.800000
2735.809791	176.800000
2737.179057	177.000000
2738.548090	179.800000
2739.915317	186.000000
2741.282311	197.800000
2742.649072	161.200000
2744.015600	171.000000
2745.380323	146.800000
2746.744815	175.600000
2748.109074	178.200000
2749.473101	180.400000
2750.836897	146.200000
2752.197319	144.200000
2753.560652	142.000000
2754.919042	167.200000
2756.280342	145.600000
2757.638271	162.200000
2758.999109	149.600000
2760.358148	141.200000
2761.713818	155.200000
2763.072396	128.000000
2764.427607	127.600000
2765.782590	144.600000
2767.135775	140.600000
2768.491867	117.400000
2769.844594	136.600000
2771.197094	146.000000
2772.549365	136.800000
2773.902975	129.400000
2775.253223	140.400000
2776.601678	138.800000
2777.953037	118.600000
2779.301037	119.600000
2780.650375	130.800000
2781.997922	137.600000
2783.345241	136.600000
2784.692334	127.400000
2786.037636	147.200000
2787.382712	133.000000
2788.727561	130.200000
2790.072185	132.000000
2791.413457	134.000000
2792.756067	100.400000
2794.098451	142.600000
2795.440611	153.400000
2796.779421	141.200000
2798.121130	136.600000
2799.459492	106.200000
2800.799191	147.400000
2802.137104	127.600000
2803.473233	153.200000
2804.809138	121.800000
2806.146381	161.200000
2807.481840	146.200000
2808.817076	115.200000
2810.150529	127.800000
2811.485320	139.000000
2812.816769	143.200000
2814.151114	132.200000
2815.480561	125.000000
2816.811345	134.800000
2818.141907	120.200000
2819.470690	130.800000
2820.800809	123.600000
2822.129150	137.800000
2823.457270	118.800000
2824.783612	153.800000
2826.111291	131.800000
2827.435636	114.000000
2828.761318	125.000000
2830.085224	139.000000
2831.408911	93.200000
2832.733933	143.400000
2834.055625	83.400000
2835.377099	124.000000
2836.698354	128.000000
2838.019390	102.600000
2839.338654	102.800000
2840.659253	110.800000
2841.978080	104.600000
2843.296689	124.800000
2844.613527	107.400000
2845.930148	115.200000
2847.246552	137.000000
2848.561186	111.800000
2849.877156	108.200000
2851.189805	140.800000
2852.503790	121.000000
2853.817557	104.600000
2855.131109	96.200000
2856.442893	110.800000
2857.752911	118.600000
2859.064264	93.600000
2860.372302	117.000000
2861.681674	108.800000
2862.990832	100.200000
2864.299774	100.800000
2865.606952	131.200000
2866.912368	90.800000
2868.219118	132.200000
2869.524105	97.200000
2870.828879	120.200000
2872.131891	124.800000
2873.437785	102.000000
2874.738823	121.000000
2876.041196	148.000000
2877.341809	108.000000
2878.643756	121.200000
2879.945490	122.600000
2881.243919	129.000000
2882.543682	115.600000
2883.841688	113.600000
2885.139482	104.600000
2886.435520	139.800000
2887.732891	111.800000
2889.028506	97.600000
2890.323910	144.200000
2891.619103	138.400000
2892.910999	137.800000
2894.205771	132.200000
2895.497246	133.400000
2896.790054	106.800000
2898.082652	107.600000
2899.371956	110.800000
2900.662592	138.200000
2901.951477	106.200000
2903.241695	124.000000
2904.528620	113.400000
2905.816879	124.800000
2907.103387	104.000000
2908.389688	122.600000
2909.675780	121.200000
2910.960124	150.400000
2912.247339	133.600000
2913.529728	127.200000
2914.813449	85.200000
2916.095424	119.400000
2917.377191	109.200000
2918.657214	114.400000
2919.940106	102.400000
2921.221253	106.600000
2922.499118	118.200000
2923.779852	122.200000
2925.057305	112.000000
2926.334552	102.200000
2927.610058	136.400000
2928.888431	155.400000
2930.161989	96.400000
2931.438415	105.600000
2932.713100	125.000000
2933.986045	101.400000
2935.260320	113.400000
2936.532856	125.600000
2937.805188	128.200000
2939.074246	107.600000
2940.346170	106.400000
2941.616356	156.000000
2942.886339	105.400000
2944.156118	118.200000
2945.424160	112.600000
2946.690467	130.000000
2947.956571	130.400000
2949.224005	121.400000
2950.489705	102.800000
2951.755202	125.800000
2953.020497	130.000000
2954.282527	95.600000
2955.545888	109.600000
2956.809046	139.000000
2958.070473	104.800000
2959.333229	139.200000
2960.594254	137.800000
2961.853547	135.000000
2963.112641	108.800000
2964.371534	101.000000
2965.630227	129.000000
2966.888720	123.000000
2968.145484	108.200000
2969.402048	119.000000
2970.656885	115.600000
2971.913050	110.200000
2973.165961	113.200000
2974.420201	88.200000
2975.674242	96.400000
2976.926557	122.800000
2978.178673	96.600000
2979.429065	121.000000
2980.682312	93.200000
2981.930782	123.600000
2983.182107	104.800000
2984.430182	97.000000
2985.678061	81.000000
2986.925742	95.600000
2988.173227	102.200000
2989.418989	97.000000
2990.664556	115.400000
2991.911450	140.000000
2993.155100	113.400000
2994.400078	97.800000
2995.641812	123.400000
2996.886398	112.800000
2998.129265	97.200000
2999.368891	115.600000
3000.611367	96.000000
3001.850604	101.400000
3003.091167	116.000000
3004.330015	127.200000
3005.568667	68.200000
3006.805605	97.800000
3008.043869	107.800000
3009.280419	115.000000
3010.516774	92.000000
3011.752936	118.200000
3012.987385	120.000000
3014.221640	105.200000
3015.455702	74.200000
3016.688052	90.000000
3017.918690	74.000000
3019.152174	107.000000
3020.383946	86.200000
3021.614008	100.800000
3022.843878	98.000000
3024.072038	123.400000
3025.301524	81.200000
3026.529302	120.200000
3027.756888	106.200000
3028.985800	100.600000
3030.209970	95.400000
3031.436983	100.800000
3032.660772	122.200000
3033.885888	97.000000
3035.109297	107.200000
3036.332516	136.400000
3037.554030	104.400000
3038.778385	101.200000
3039.998005	120.000000
3041.218951	92.000000
3042.439708	113.400000
3043.658761	116.400000
3044.879140	92.200000
3046.096302	100.400000
3047.314789	104.000000
3048.531574	94.400000
3049.748172	106.800000
3050.964581	109.200000
3052.177778	108.600000
3053.393812	99.000000
3054.606634	100.600000
3055.822293	94.600000
3057.033229	110.200000
3058.245490	123.400000
3059.457565	89.400000
3060.669453	119.200000
3061.879643	88.200000
3063.089647	101.800000
3064.299465	87.200000
3065.507588	102.800000
3066.715524	67.400000
3067.921765	104.400000
3069.129331	104.400000
3070.335202	88.600000
3071.540889	72.800000
3072.746390	90.600000
3073.950198	97.400000
3075.155330	86.600000
3076.358770	78.200000
3077.560517	96.400000
3078.762081	96.000000
3079.963460	99.800000
3081.164657	82.800000
3082.364162	80.000000
3083.563485	91.000000
3084.764131	92.800000
3085.963087	125.800000
3087.158849	121.000000
3088.357440	107.400000
3089.552837	136.800000
3090.749557	87.000000
3091.943085	95.000000
3093.139441	90.600000
3094.334111	95.600000
3095.525590	97.400000
3096.721400	105.800000
3097.912517	113.800000
3099.104956	102.600000
3100.294208	79.600000
3101.486286	88.200000
3102.676679	102.200000
3103.863887	103.800000
3105.052418	80.000000
3106.242270	83.200000
3107.428939	103.400000
3108.615428	92.800000
3109.801737	92.200000
3110.989368	82.400000
3112.173818	77.600000
3113.356587	96.000000
3114.542179	98.000000
3115.726092	109.000000
3116.908326	83.400000
3118.090381	103.200000
3119.272259	112.000000
3120.453958	101.800000
3121.633979	59.000000
3122.812324	87.600000
3123.993489	114.400000
3125.171480	116.400000
3126.349293	74.800000
3127.526929	66.000000
3128.702890	75.000000
3129.878674	107.000000
3131.055780	106.400000
3132.231211	102.600000
3133.404969	92.200000
3134.577055	111.600000
3135.750461	93.600000
3136.923691	101.400000
3138.095250	97.000000
3139.268129	125.400000
3140.437842	89.800000
3141.608874	120.200000
3142.778237	81.200000
3143.945930	106.400000
3145.116438	84.400000
3146.282287	69.600000
3147.452446	98.000000
3148.617947	94.000000
3149.783275	76.400000
3150.948429	117.000000
3152.113409	116.200000
3153.279709	78.000000
3154.441357	65.200000
3155.604324	91.000000
3156.767119	89.400000
3157.929741	97.200000
3159.090698	103.000000
3160.251482	90.800000
3161.412094	98.400000
3162.571042	88.800000
3163.729819	62.800000
3164.888424	82.200000
3166.046857	96.600000
3167.205118	108.000000
3168.361717	77.200000
3169.516655	90.600000
3170.672912	69.200000
3171.827508	103.600000
3172.981934	78.200000
3174.134700	90.400000
3175.287296	74.600000
3176.439721	94.200000
3177.591977	79.200000
3178.744062	106.400000
3179.893002	93.600000
3181.044748	92.400000
3182.194836	97.600000
3183.343268	98.800000
3184.491531	87.000000
3185.639624	72.600000
3186.787549	91.000000
3187.933819	77.800000
3189.079920	82.600000
3190.224366	99.400000
3191.368645	87.200000
3192.512756	78.400000
3193.658184	82.800000
3194.800474	79.200000
3195.942597	95.000000
3197.084552	104.400000
3198.226341	73.000000
3199.367962	93.600000
3200.506447	61.200000
3201.646250	86.400000
3202.787371	84.200000
3203.925357	111.800000
3205.061694	75.200000
3206.197865	96.000000
3207.335354	72.600000
3208.471193	106.800000
3209.608350	96.400000
3210.740894	103.400000
3211.877720	87.200000
3213.009934	91.200000
3214.143465	93.000000
3215.276832	106.400000
3216.407071	94.800000
3217.540108	77.000000
3218.670019	90.000000
3219.801246	79.200000
3220.929349	103.600000
3222.060248	101.200000
3223.189503	89.200000
3224.317115	95.000000
3225.441605	96.600000
3226.570369	100.600000
3227.696012	109.600000
3228.821493	102.600000
3229.945332	95.000000
3231.071965	86.200000
3232.194001	84.200000
3233.317353	106.000000
3234.440543	74.600000
3235.563571	104.400000
3236.684959	61.400000
3237.806186	87.200000
3238.925774	88.600000
3240.045201	98.800000
3241.162990	83.000000
3242.283572	84.000000
3243.401039	79.400000
3244.518346	80.000000
3245.635493	86.400000
3246.751004	104.000000
3247.867830	57.400000
3248.981545	86.200000
3250.098050	57.200000
3251.212921	62.600000
3252.324683	66.800000
3253.436285	72.800000
3254.549203	86.200000
3255.661962	97.400000
3256.771614	94.200000
3257.882580	80.600000
3258.993388	80.600000
3260.102565	80.600000
3261.210110	90.000000
3262.318969	72.600000
3263.427671	74.800000
3264.533270	77.400000
3265.640183	72.800000
3266.745467	98.200000
3267.852066	46.800000
3268.955564	82.600000
3270.060376	68.200000
3271.165031	65.400000
3272.266587	84.800000
3273.367988	93.800000
3274.470702	67.400000
3275.573259	63.200000
3276.672720	59.200000
3277.774965	82.800000
3278.874114	87.400000
3279.971639	73.000000
3281.069008	73.600000
3282.169160	110.800000
3283.266218	72.600000
3284.363121	64.000000
3285.459869	86.000000
3286.552059	69.600000
3287.648497	68.000000
3288.743313	85.400000
3289.837975	80.800000
3290.931015	56.200000
3292.023901	90.800000
3293.115166	80.200000
3294.207744	71.400000
3295.298701	71.800000
3296.388039	67.600000
3297.477224	82.800000
3298.567722	72.200000
3299.655135	90.800000
3300.742396	67.200000
3301.830969	82.200000
3302.919389	78.800000
3304.003262	78.200000
3305.091377	75.800000
3306.176411	80.200000
3307.259828	54.200000
3308.344558	48.800000
3309.427673	69.000000
3310.512099	77.400000
3311.593447	69.000000
3312.676107	85.400000
3313.757153	61.800000
3314.838048	80.600000
3315.917329	63.600000
3316.996461	91.000000
3318.076903	77.000000
3319.154271	60.600000
3320.232951	74.800000
3321.310020	79.400000
3322.386938	40.200000
3323.462245	74.400000
3324.537403	46.200000
3325.613872	80.800000
3326.687271	54.200000
3327.760521	88.600000
3328.835081	60.600000
3329.908033	59.000000
3330.979376	58.600000
3332.052031	81.800000
3333.121618	55.800000
3334.192516	78.000000
3335.261807	64.400000
3336.332409	84.400000
3337.401404	64.600000
3338.468793	58.400000
3339.534577	74.000000
3340.604587	80.800000
3341.671534	68.600000
3342.735419	75.800000
3343.802072	70.400000
3344.867120	86.800000
3345.930565	68.600000
3346.993864	82.000000
3348.057016	75.000000
3349.120022	65.000000
3350.182882	76.400000
3351.244140	76.400000
3352.302341	64.800000
3353.364763	88.400000
3354.424128	63.800000
3355.483348	78.400000
3356.543878	61.800000
3357.599898	91.000000
3358.658682	75.600000
3359.712959	95.400000
3360.770000	68.400000
3361.825443	67.200000
3362.882194	72.600000
3363.937347	73.400000
3364.990903	71.600000
3366.042863	80.200000
3367.097584	86.200000
3368.149256	100.600000
3369.200785	85.400000
3370.253622	79.600000
3371.303412	75.200000
3372.354511	66.800000
3373.402564	80.200000
3374.453376	54.600000
3375.501144	79.600000
3376.548769	86.800000
3377.596251	53.200000
3378.642141	46.400000
3379.689339	67.200000
3380.733495	73.200000
3381.780409	79.400000
3382.825731	72.000000
3383.868012	82.800000
3384.910153	79.600000
3385.953601	79.800000
3386.996909	71.000000
3388.038626	63.000000
3389.080202	56.800000
3390.121638	84.600000
3391.161484	85.400000
3392.199742	71.000000
3393.239309	75.400000
3394.278734	65.200000
3395.316572	86.600000
3396.352823	75.600000
3397.388935	77.400000
3398.426354	58.600000
3399.460740	75.800000
3400.496433	61.200000
3401.531987	68.400000
3402.564510	66.200000
3403.599786	94.800000
3404.632031	49.600000
3405.664138	71.600000
3406.694661	77.400000
3407.726491	84.600000
3408.758183	62.800000
3409.786847	80.200000
3410.815374	88.000000
3411.845208	71.000000
3412.874903	57.000000
3413.901573	83.200000
3414.929550	74.000000
3415.954502	82.000000
3416.982204	75.600000
3418.006883	57.200000
3419.032868	59.600000
3420.057273	99.000000
3421.081542	83.400000
3422.104232	43.400000
3423.126786	85.600000
3424.150646	70.200000
3425.171486	57.400000
3426.192191	72.800000
3427.214201	72.600000
3428.233193	81.800000
3429.252050	64.400000
3430.272212	63.800000
3431.289358	44.200000
