-117.888313	4.600000
-115.218713	8.000000
-112.552048	17.500000
-109.886135	-22.200000
-107.223154	31.500000
-104.558744	-8.100000
-101.897264	10.100000
-99.234355	-17.400000
-96.576552	13.200000
-93.917320	27.100000
-91.258836	6.700000
-88.603276	-0.200000
-85.946288	2.200000
-83.294398	8.800000
-80.641078	4.300000
-77.990677	8.600000
-75.338847	7.600000
-72.692108	16.600000
-70.043940	-2.000000
-67.396514	5.600000
-64.752002	13.500000
-62.106062	4.600000
-59.465203	1.400000
-56.822915	7.600000
-54.183536	-5.900000
-51.542727	14.200000
-48.902659	8.300000
-46.267663	10.400000
-43.631239	-1.900000
-40.997717	16.500000
-38.362767	25.700000
-35.732882	29.600000
-33.099405	-9.100000
-30.470990	4.800000
-27.843309	18.900000
-25.214199	20.500000
-22.590146	16.300000
-19.962504	36.600000
-17.339915	55.600000
-14.718058	100.700000
-12.096931	174.000000
-9.476534	419.000000
-6.859026	1450.100000
-4.240089	4575.600000
-1.624037	11790.400000
0.991286	12980.300000
3.605882	7148.300000
6.217595	866.600000
8.830737	123.900000
11.438845	61.300000
14.050535	35.700000
16.657194	28.400000
19.265281	21.700000
21.872644	51.900000
24.474982	12.400000
27.080898	30.500000
29.681792	28.700000
32.284114	-3.800000
34.881419	11.300000
37.482299	14.700000
40.078164	2.700000
42.675458	19.800000
45.272032	14.400000
47.863597	19.400000
50.456590	14.800000
53.046722	23.000000
55.638282	0.800000
58.226982	14.200000
60.817109	17.500000
63.402237	16.400000
65.988793	29.600000
68.574635	38.800000
71.157623	21.100000
73.742037	9.900000
76.319323	12.200000
78.900175	15.800000
81.478178	29.400000
84.055471	16.200000
86.634190	3.000000
89.207927	21.800000
91.783092	11.200000
94.355413	14.600000
96.927026	-2.700000
99.495799	13.500000
102.065999	13.100000
104.633361	9.500000
107.202148	3.800000
109.768099	16.400000
112.331215	39.400000
114.897887	27.200000
117.455338	34.100000
120.018474	41.200000
122.576650	54.000000
125.138381	89.100000
127.695155	132.100000
130.253356	175.500000
132.806603	275.800000
135.359153	369.300000
137.915253	542.300000
140.466405	711.200000
143.016860	831.200000
145.566617	915.200000
148.113555	1001.200000
150.659798	1068.600000
153.207466	1124.900000
155.754438	1101.700000
158.296475	1073.700000
160.837818	1062.800000
163.378468	1103.900000
165.920544	1073.300000
168.459808	1079.900000
170.996264	1107.200000
173.532028	1114.900000
176.069218	1068.800000
178.605717	1078.200000
181.139410	1048.000000
183.670299	1049.500000
186.200501	1052.100000
188.732127	1049.900000
191.260952	1028.200000
193.786978	1053.800000
196.312318	1040.200000
198.839083	1019.500000
201.363052	1036.700000
203.886336	1064.200000
206.408935	1063.000000
208.928741	1041.300000
211.447864	1042.700000
213.966304	1044.100000
216.486168	1050.300000
218.999031	1054.600000
221.515425	1017.800000
224.031137	1073.100000
226.541959	1062.900000
229.054206	1088.400000
231.563671	1051.500000
234.072457	1063.800000
236.580564	1066.300000
239.090096	1093.300000
241.594747	1098.500000
244.098722	1075.500000
246.604121	1102.900000
249.104645	1080.900000
251.608693	1092.100000
254.105769	1107.900000
256.606369	1106.900000
259.104197	1121.800000
261.601352	1114.300000
264.097834	1113.800000
266.589453	1107.500000
269.084592	1115.700000
271.576964	1111.400000
274.068666	1136.900000
276.557605	1132.100000
279.047968	1144.200000
281.535568	1132.700000
284.020409	1122.200000
286.508765	1146.000000
288.990181	1135.100000
291.475111	1160.700000
293.955196	1143.600000
296.438793	1149.700000
298.917547	1169.000000
301.397725	1178.800000
303.875150	1198.400000
306.351912	1167.000000
308.828011	1206.200000
311.301361	1196.200000
313.774049	1282.500000
316.246076	1315.000000
318.717442	1419.300000
321.186063	1524.700000
323.654026	1499.400000
326.123410	1387.200000
328.587972	1311.000000
331.056038	1250.000000
333.519284	1231.800000
335.981872	1232.000000
338.443804	1223.300000
340.905079	1218.400000
343.363620	1240.800000
345.823583	1219.500000
348.280813	1170.000000
350.737389	1222.400000
353.193311	1258.300000
355.646503	1214.800000
358.101118	1219.100000
360.550931	1214.400000
363.004240	1236.000000
365.452751	1203.200000
367.900610	1204.100000
370.349892	1214.400000
372.794380	1202.500000
375.240290	1173.200000
377.685550	1153.200000
380.128092	1209.500000
382.569986	1186.900000
385.011233	1190.600000
387.449764	1196.200000
389.889717	1205.600000
392.326956	1194.100000
394.761483	1217.400000
397.199498	1242.200000
399.632736	1195.400000
402.067395	1189.400000
404.497282	1207.800000
406.930654	1192.800000
409.359256	1208.800000
411.787216	1199.300000
414.216598	1213.100000
416.641214	1204.800000
419.067252	1235.300000
421.492649	1217.500000
423.917406	1208.600000
426.337405	1217.500000
428.758825	1236.900000
431.177548	1204.000000
433.597692	1232.600000
436.015141	1222.900000
438.434010	1229.600000
440.850186	1214.900000
443.261614	1240.100000
445.676520	1220.100000
448.088735	1201.600000
450.500316	1210.800000
452.911263	1217.100000
455.319524	1225.000000
457.727152	1200.000000
460.134148	1229.200000
462.540513	1179.600000
464.944195	1144.300000
467.347247	1176.500000
469.749669	1162.800000
472.151461	1149.800000
474.550576	1140.000000
476.951110	1141.600000
479.351015	1141.800000
481.746197	1153.600000
484.144846	1145.400000
486.538775	1141.300000
488.932078	1110.200000
491.324755	1128.400000
493.716807	1119.700000
496.110277	1086.600000
498.499035	1057.300000
500.885127	1035.300000
503.272639	972.900000
505.659528	940.200000
508.043753	932.600000
510.429396	891.600000
512.812378	891.300000
515.192699	834.400000
517.574439	812.700000
519.953520	848.700000
522.334020	812.800000
524.711862	822.700000
527.087049	796.500000
529.461618	810.800000
531.837605	785.600000
534.210940	764.400000
536.585692	770.000000
538.955759	782.100000
541.325210	764.400000
543.696079	773.400000
546.062268	750.800000
548.429875	737.800000
550.794836	740.100000
553.159184	745.600000
555.522919	723.700000
557.888072	738.100000
560.248553	747.500000
562.610452	726.500000
564.969710	706.500000
567.326331	716.000000
569.686396	716.100000
572.039770	709.800000
574.396589	720.600000
576.750773	703.000000
579.104349	719.200000
581.457316	733.000000
583.807651	691.700000
586.159404	704.900000
588.504480	705.800000
590.855020	704.300000
593.198886	690.200000
595.548214	724.000000
597.892893	710.700000
600.234948	703.800000
602.578420	731.300000
604.919269	690.000000
607.259516	707.700000
609.597142	719.600000
611.938203	688.900000
614.274626	706.600000
616.612466	663.000000
618.947689	680.900000
621.280296	671.400000
623.614319	688.100000
625.945728	642.000000
628.276539	679.500000
630.606753	640.800000
632.936368	654.200000
635.261360	681.100000
637.591794	641.500000
639.917607	659.800000
642.240812	654.800000
644.565434	658.300000
646.887450	648.800000
649.208872	653.600000
651.527692	619.400000
653.847927	650.100000
656.167569	654.500000
658.484610	635.100000
660.801059	662.300000
663.114910	622.500000
665.430177	620.100000
667.742847	639.600000
670.056932	623.000000
672.366417	641.800000
674.677318	635.500000
676.985626	623.500000
679.293346	628.900000
681.602480	615.300000
683.907022	640.400000
686.210978	603.000000
688.514348	643.300000
690.819132	618.600000
693.119330	621.900000
695.420942	585.200000
697.721970	595.000000
700.018415	587.400000
702.316276	596.300000
704.613553	603.900000
706.910247	572.500000
709.202365	575.900000
711.497894	591.000000
713.788849	600.000000
716.081219	598.800000
718.371014	591.100000
720.660228	586.900000
722.948863	605.300000
725.234925	591.900000
727.522402	613.700000
729.807307	591.900000
732.091635	626.800000
734.373394	596.900000
736.656567	644.700000
738.939163	625.200000
741.217203	622.600000
743.496658	624.700000
745.775536	637.500000
748.053840	622.400000
750.327594	613.100000
752.602761	626.700000
754.877355	634.300000
757.149390	622.900000
759.422838	624.000000
761.693728	633.100000
763.962062	619.100000
766.231809	657.100000
768.499002	635.900000
770.765624	625.100000
773.031676	632.500000
775.295177	640.800000
777.560091	664.800000
779.824435	655.400000
782.084250	662.500000
784.345477	636.200000
786.606137	657.400000
788.864251	629.600000
791.119820	645.700000
793.378780	667.800000
795.631241	654.300000
797.889068	638.800000
800.142377	639.400000
802.393146	653.000000
804.645327	657.900000
806.894969	647.800000
809.146024	647.700000
811.392567	618.200000
813.640522	633.600000
815.885943	608.100000
818.132775	616.000000
820.379046	639.000000
822.620812	612.200000
824.865962	640.300000
827.104639	618.500000
829.346698	627.700000
831.584259	613.700000
833.823232	619.200000
836.059678	595.600000
838.297535	624.700000
840.532867	619.100000
842.765676	628.000000
844.999896	582.900000
847.231593	606.300000
849.462736	597.200000
851.693324	586.700000
853.923358	572.500000
856.152838	600.000000
858.377836	601.500000
860.606209	614.300000
862.830102	613.000000
865.055407	606.000000
867.276236	601.000000
869.500437	592.800000
871.720165	601.300000
873.941303	595.100000
876.161891	623.300000
878.379970	596.100000
880.599458	622.200000
882.814480	612.300000
885.028955	616.900000
887.242881	612.000000
889.456261	595.100000
891.669093	601.600000
893.881379	571.800000
896.091162	603.200000
898.300400	634.000000
900.509093	604.000000
902.715287	604.600000
904.922890	585.400000
907.127995	610.000000
909.332557	601.800000
911.534624	612.000000
913.738100	606.100000
915.939082	614.900000
918.139522	590.600000
920.341371	607.500000
922.536829	618.300000
924.735646	635.500000
926.930024	627.600000
929.127760	619.500000
931.321060	632.000000
933.515769	626.000000
935.707992	635.000000
937.899676	636.800000
940.090823	634.900000
942.279487	650.800000
944.467615	636.500000
946.653262	632.200000
948.842261	683.400000
951.026837	678.200000
953.210878	688.200000
955.398269	665.600000
957.577356	711.600000
959.759794	696.800000
961.941698	701.500000
964.121127	702.300000
966.298084	733.200000
968.476449	709.400000
970.656221	728.600000
972.829644	727.300000
975.006413	727.900000
977.178775	730.000000
979.352545	765.900000
981.521911	754.400000
983.694621	729.300000
985.864866	772.800000
988.034582	755.700000
990.203769	767.200000
992.368559	776.700000
994.536690	809.900000
996.700427	792.200000
998.865570	803.900000
1001.028254	831.600000
1003.190413	804.200000
1005.350115	816.800000
1007.509292	838.800000
1009.669876	831.700000
1011.828006	829.300000
1013.985611	841.400000
1016.142693	842.500000
1018.299251	849.500000
1020.451430	867.500000
1022.605016	848.700000
1024.758080	827.000000
1026.908695	874.200000
1029.060717	884.700000
1031.208365	882.900000
1033.359345	898.700000
1035.505954	890.100000
1037.652044	899.500000
1039.797616	882.700000
1041.944593	921.000000
1044.085281	915.000000
1046.229299	896.400000
1048.370876	925.900000
1050.511937	951.600000
1052.654402	932.300000
1054.790588	969.200000
1056.930099	949.500000
1059.065256	956.900000
1061.203737	964.000000
1063.337864	948.000000
1065.471478	932.800000
1067.606497	940.100000
1069.737166	940.400000
1071.869240	934.500000
1073.998885	928.300000
1076.128018	958.200000
1078.256639	939.700000
1080.384749	939.500000
1082.510433	915.800000
1084.635607	893.200000
1086.762185	904.200000
1088.884425	878.300000
1091.008070	907.300000
1093.127380	877.900000
1095.251920	888.700000
1097.370214	883.000000
1099.489913	874.700000
1101.607193	880.100000
1103.723967	869.500000
1105.840234	890.000000
1107.954085	892.000000
1110.069341	890.700000
1112.180273	852.300000
1114.294518	843.900000
1116.404442	854.200000
1118.515770	856.900000
1120.626593	849.200000
1122.733100	857.800000
1124.842917	853.800000
1126.948419	884.600000
1129.055324	859.600000
1131.156014	852.700000
1133.261916	846.100000
1135.363509	835.900000
1137.466505	823.100000
1139.569000	852.700000
1141.665288	848.600000
1143.766784	846.100000
1145.863976	819.000000
1147.960671	844.600000
1150.056867	860.700000
1152.152566	852.900000
1154.247766	889.900000
1156.340570	844.200000
1158.434777	866.300000
1160.522792	861.700000
1162.616005	875.300000
1164.703030	853.800000
1166.793354	871.700000
1168.879391	917.200000
1170.968725	860.900000
1173.051878	895.000000
1175.136433	869.800000
1177.222390	887.500000
1179.304065	867.100000
1181.387142	859.900000
1183.467833	847.800000
1185.548032	834.200000
1187.627740	890.100000
1189.706957	848.400000
1191.783792	860.500000
1193.858246	858.000000
1195.935991	872.600000
1198.009467	851.500000
1200.084343	864.700000
1202.154952	861.900000
1204.226962	872.000000
1206.296597	877.000000
1208.367632	867.100000
1210.438179	876.300000
1212.504465	859.400000
1214.572152	879.500000
1216.637467	867.100000
1218.704182	868.700000
1220.766641	886.200000
1222.832385	885.800000
1224.893875	870.700000
1226.956766	918.500000
1229.017289	916.500000
1231.077328	909.700000
1233.136885	947.600000
1235.194076	923.200000
1237.250786	916.900000
1239.305132	945.900000
1241.362760	920.200000
1243.418025	931.600000
1245.469049	967.900000
1247.521473	937.900000
1249.573417	965.700000
1251.623003	962.300000
1253.672110	982.400000
1255.720739	946.900000
1257.768889	971.000000
1259.816560	980.400000
1261.860001	1012.800000
1263.906718	981.900000
1265.951081	1000.100000
1267.994968	1005.100000
1270.036503	1019.800000
1272.075689	1012.100000
1274.118148	1052.700000
1276.156384	1057.800000
1278.196019	1089.900000
1280.235179	1090.300000
1282.270120	1092.800000
1284.306460	1123.700000
1286.340456	1082.800000
1288.375849	1108.300000
1290.407030	1131.400000
1292.439608	1144.500000
1294.471715	1177.300000
1296.501481	1186.200000
1298.532645	1204.100000
1300.559601	1231.200000
1302.587955	1223.700000
1304.612104	1234.600000
1306.639519	1304.300000
1308.662731	1328.500000
1310.687341	1332.100000
1312.709617	1368.700000
1314.733290	1393.900000
1316.754630	1406.800000
1318.775502	1469.400000
1320.795907	1508.000000
1322.812119	1521.000000
1324.829728	1562.400000
1326.845009	1604.600000
1328.863549	1645.200000
1330.877900	1673.100000
1332.889925	1735.700000
1334.905207	1764.900000
1336.916304	1774.700000
1338.928798	1774.000000
1340.937109	1774.800000
1342.948675	1751.200000
1344.954203	1831.900000
1346.962986	1752.900000
1348.967591	1741.700000
1350.975450	1759.300000
1352.982847	1702.600000
1354.984213	1689.300000
1356.986975	1655.600000
1358.989278	1621.200000
1360.991121	1558.500000
1362.992504	1499.700000
1364.991574	1484.900000
1366.990185	1436.000000
1368.988338	1354.600000
1370.986032	1347.200000
1372.979564	1321.800000
1374.974491	1291.700000
1376.968962	1295.500000
1378.962976	1257.300000
1380.954683	1243.800000
1382.945935	1222.100000
1384.934881	1227.700000
1386.925222	1214.300000
1388.915108	1203.300000
1390.902690	1214.300000
1392.889819	1188.500000
1394.874646	1141.800000
1396.860868	1156.900000
1398.844790	1148.400000
1400.828259	1162.300000
1402.811275	1145.400000
1404.791994	1160.600000
1406.774107	1110.100000
1408.753924	1134.500000
1410.733289	1129.700000
1412.708516	1123.500000
1414.686981	1091.900000
1416.663153	1101.800000
1418.638876	1114.900000
1420.614149	1096.300000
1422.587131	1075.100000
1424.559665	1060.500000
1426.531751	1068.400000
1428.503390	1056.000000
1430.470900	1066.900000
1432.443484	1071.800000
1434.408262	1081.000000
1436.378113	1034.400000
1438.343840	1057.900000
1440.310959	1060.400000
1442.275795	1057.300000
1444.236511	1032.100000
1446.202295	1062.500000
1448.162124	1029.200000
1450.123347	1018.400000
1452.085962	1044.100000
1454.044462	1057.300000
1456.002519	1067.800000
1457.960135	1023.600000
1459.917308	1039.500000
1461.872206	1040.000000
1463.828497	1069.800000
1465.782513	1044.300000
1467.736088	1046.400000
1469.687391	1054.300000
1471.640087	1060.700000
1473.590510	1043.600000
1475.540495	1056.400000
1477.490041	1079.800000
1479.437318	1084.100000
1481.382327	1085.300000
1483.328729	1086.000000
1485.274693	1077.100000
1487.220220	1075.400000
1489.163481	1101.300000
1491.106307	1119.900000
1493.046869	1098.100000
1494.988822	1109.600000
1496.928513	1140.700000
1498.867770	1127.800000
1500.806591	1124.700000
1502.743153	1148.600000
1504.681106	1145.800000
1506.616800	1197.200000
1508.552061	1186.000000
1510.485066	1167.800000
1512.417638	1190.500000
1514.349778	1185.200000
1516.281486	1235.600000
1518.210940	1232.500000
1520.141785	1246.300000
1522.072198	1261.500000
1523.998539	1309.100000
1525.926271	1347.200000
1527.851752	1392.200000
1529.776804	1446.300000
1531.701427	1467.300000
1533.625621	1505.600000
1535.547567	1538.900000
1537.470904	1626.500000
1539.391994	1727.400000
1541.310840	1792.700000
1543.231076	1937.900000
1545.149069	2067.900000
1547.066635	2194.800000
1548.981959	2428.100000
1550.898673	2703.200000
1552.811332	2973.800000
1554.727195	3413.100000
1556.640818	3739.000000
1558.552203	4236.600000
1560.464978	4645.200000
1562.373703	5135.900000
1564.283817	5666.300000
1566.193508	5949.200000
1568.102776	6177.700000
1570.009810	6104.900000
1571.914611	5815.000000
1573.820801	5558.900000
1575.724759	5029.200000
1577.628296	4465.800000
1579.531413	3979.600000
1581.432300	3600.000000
1583.334576	3140.200000
1585.234624	2853.000000
1587.136059	2617.100000
1589.033461	2415.700000
1590.930444	2278.000000
1592.827009	2154.500000
1594.724962	2057.400000
1596.617080	1985.600000
1598.512391	1955.400000
1600.407285	1929.200000
1602.299957	1863.700000
1604.192212	1817.300000
1606.082248	1795.500000
1607.971868	1706.800000
1609.861073	1686.800000
1611.749863	1629.600000
1613.636435	1553.800000
1615.524395	1520.400000
1617.408338	1413.700000
1619.293668	1363.200000
1621.178585	1320.300000
1623.061288	1303.600000
1624.945378	1276.600000
1626.825456	1206.200000
1628.706922	1168.900000
1630.586177	1172.100000
1632.466818	1106.400000
1634.341655	1097.800000
1636.221473	1061.100000
1638.097287	1030.200000
1639.972690	1002.500000
1641.849479	998.000000
1643.720472	969.100000
1645.594646	990.700000
1647.464821	940.700000
1649.338178	951.100000
1651.209331	903.300000
1653.078282	902.300000
1654.948618	889.800000
1656.814962	901.800000
1658.682691	877.300000
1660.548221	853.400000
1662.415137	862.500000
1664.278064	833.500000
1666.142376	804.600000
1668.004492	838.100000
1669.866203	800.900000
1671.729300	803.500000
1673.590201	801.800000
1675.448910	794.500000
1677.307215	763.200000
1679.166905	765.400000
1681.020827	772.300000
1682.877923	778.100000
1684.734616	768.500000
1686.587332	736.200000
1688.443220	725.900000
1690.295134	735.800000
1692.146647	719.000000
1693.997759	705.600000
1695.848471	712.500000
1697.698782	699.500000
1699.546908	692.000000
1701.396419	712.000000
1703.240181	698.700000
1705.088892	699.000000
1706.931857	688.200000
1708.777989	705.800000
1710.620158	698.200000
1712.465493	714.900000
1714.305087	678.900000
1716.146065	674.400000
1717.988426	685.300000
1719.826831	677.400000
1721.666619	678.600000
1723.504232	693.900000
1725.341449	692.900000
1727.176493	675.100000
1729.012920	689.600000
1730.847175	666.500000
1732.681035	687.000000
1734.514501	682.100000
1736.344022	681.300000
1738.176701	635.300000
1740.005436	668.800000
1741.837328	672.100000
1743.665278	676.000000
1745.492837	656.200000
1747.320003	671.200000
1749.146778	648.700000
1750.973161	647.000000
1752.795608	664.300000
1754.621210	647.700000
1756.442877	654.800000
1758.265926	646.200000
1760.086813	641.300000
1761.907312	645.200000
1763.729191	623.600000
1765.545372	608.500000
1767.364704	637.700000
1769.180109	612.100000
1770.998664	631.200000
1772.813294	638.500000
1774.627537	621.300000
1776.441394	617.400000
1778.254864	647.500000
1780.066181	638.900000
1781.878878	610.800000
1783.691190	612.500000
1785.499584	607.800000
1787.309358	605.700000
1789.115218	626.300000
1790.924223	619.000000
1792.729315	595.300000
1794.535788	608.600000
1796.341877	617.200000
1798.144055	629.100000
1799.949378	600.600000
1801.750792	612.400000
1803.553586	598.000000
1805.352474	613.600000
1807.152743	621.500000
1808.952630	624.100000
1810.750375	620.900000
1812.547740	604.400000
1814.344725	618.000000
1816.141329	602.000000
1817.935794	630.000000
1819.731638	623.400000
1821.521827	613.600000
1823.316913	615.000000
1825.106347	620.900000
1826.898917	607.100000
1828.689352	603.400000
1830.477653	616.800000
1832.269089	625.400000
1834.054879	628.700000
1835.842049	631.400000
1837.627087	600.600000
1839.415259	657.200000
1841.199545	607.200000
1842.981701	645.100000
1844.765237	631.200000
1846.546644	618.500000
1848.329430	629.900000
1850.108335	619.100000
1851.888620	645.700000
1853.666778	616.700000
1855.446315	627.700000
1857.223727	613.600000
1858.999015	602.600000
1860.775681	624.000000
1862.550225	616.800000
1864.326147	622.700000
1866.096448	640.700000
1867.869877	602.600000
1869.641186	643.500000
1871.412124	629.100000
1873.184440	620.900000
1874.951142	620.600000
1876.720970	628.800000
1878.486934	623.500000
1880.256021	612.000000
1882.021247	614.100000
1883.786105	619.600000
1885.552340	615.100000
1887.314716	633.400000
1889.076725	602.700000
1890.838366	606.600000
1892.599641	578.800000
1894.360548	617.200000
1896.121089	600.300000
1897.879520	609.300000
1899.637585	592.500000
1901.393543	606.400000
1903.150877	583.700000
1904.907846	590.900000
1906.662708	579.400000
1908.415466	590.200000
1910.167859	583.800000
1911.921629	594.700000
1913.673295	611.300000
1915.422859	599.900000
1917.173798	577.000000
1918.924375	584.400000
1920.671112	589.100000
1922.419226	595.500000
1924.165240	627.700000
1925.912629	629.500000
1927.657921	606.500000
1929.401115	572.500000
1931.145684	583.800000
1932.888158	602.500000
1934.630271	603.900000
1936.372024	637.300000
1938.113417	595.100000
1939.852717	621.500000
1941.591658	602.800000
1943.330240	626.200000
1945.066731	618.000000
1946.802864	616.050000
1948.540371	614.100000
1950.274056	600.100000
1952.009116	613.300000
1953.742087	618.500000
1955.474702	604.500000
1957.206961	607.500000
1958.938863	618.600000
1960.668679	632.100000
1962.396410	622.300000
1964.125516	602.200000
1965.854267	601.400000
1967.580934	605.400000
1969.307247	602.500000
1971.034933	584.600000
1972.757083	598.800000
1974.482334	640.300000
1976.203778	630.400000
1977.928323	628.200000
1979.650787	609.100000
1981.369449	611.100000
1983.091209	625.700000
1984.809167	632.100000
1986.528498	625.100000
1988.244030	617.700000
1989.964382	610.800000
1991.680936	633.200000
1993.393693	634.400000
1995.109546	619.200000
1996.823327	617.300000
1998.536758	633.200000
2000.248118	615.600000
2001.960850	619.000000
2003.669792	646.900000
2005.381826	612.300000
2007.088352	627.700000
2008.797969	618.200000
2010.505520	601.400000
2012.212722	615.400000
2013.917859	615.600000
2015.622650	601.200000
2017.328812	605.400000
2019.031192	638.700000
2020.734943	603.900000
2022.436632	612.000000
2024.137976	620.000000
2025.838974	592.000000
2027.537911	624.300000
2029.238220	624.100000
2030.934754	594.100000
2032.632659	627.000000
2034.328505	616.500000
2036.027437	628.800000
2037.720883	620.800000
2039.415700	625.700000
2041.110175	616.900000
2042.800881	608.900000
2044.494671	615.500000
2046.184694	587.900000
2047.876088	627.500000
2049.565429	613.100000
2051.256140	618.000000
2052.943088	631.200000
2054.629697	601.400000
2056.317675	618.500000
2058.001894	625.100000
2059.687484	617.000000
2061.372734	622.500000
2063.055935	602.300000
2064.740507	594.700000
2066.419616	597.700000
2068.103510	607.900000
2069.781943	587.900000
2071.463454	596.600000
2073.141213	574.300000
2074.818636	590.400000
2076.497428	580.400000
2078.174178	601.700000
2079.848886	596.700000
2081.524963	602.800000
2083.199000	617.000000
2084.872701	579.000000
2086.546067	604.600000
2088.217394	605.300000
2089.888387	581.700000
2091.559046	608.500000
2093.229371	600.700000
2094.899362	603.100000
2096.567317	586.200000
2098.234939	586.200000
2099.900526	621.400000
2101.567482	609.100000
2103.232405	593.200000
2104.896996	599.800000
2106.559555	588.000000
2108.223482	599.100000
2109.885378	575.800000
2111.546944	634.900000
2113.208178	630.000000
2114.867384	620.400000
2116.526259	599.900000
2118.184805	611.400000
2119.843020	599.700000
2121.497513	608.300000
2123.155070	607.200000
2124.812298	618.500000
2126.465804	599.500000
2128.120678	623.700000
2129.771833	620.800000
2131.426051	599.400000
2133.076552	610.700000
2134.728419	613.900000
2136.374878	597.700000
2138.026092	654.500000
2139.673592	592.600000
2141.322459	601.200000
2142.969307	619.100000
2144.615830	616.900000
2146.262027	621.600000
2147.904516	598.700000
2149.550063	623.900000
2151.191903	604.800000
2152.836800	615.800000
2154.477991	616.400000
2156.118860	604.700000
2157.759404	627.200000
2159.397936	632.400000
2161.037834	626.600000
2162.674032	612.000000
2164.311596	637.300000
2165.948838	614.500000
2167.584070	634.500000
2169.218981	618.800000
2170.853569	648.100000
2172.487837	629.100000
2174.118411	633.400000
2175.752037	593.100000
2177.381971	641.500000
2179.013270	625.600000
2180.642564	597.500000
2182.271539	606.800000
2183.900194	605.400000
2185.528530	629.200000
2187.154864	619.200000
2188.780879	622.900000
2190.404892	610.700000
2192.030271	637.300000
2193.653649	613.600000
2195.278392	656.600000
2196.899454	633.900000
2198.520199	649.000000
2200.142309	600.500000
2201.762421	605.100000
2203.380536	613.300000
2204.998336	599.500000
2206.615821	608.200000
2208.232990	634.600000
2209.849844	603.000000
2211.466382	617.200000
2213.080928	624.400000
2214.693481	615.200000
2216.307398	616.200000
2217.919324	624.300000
2219.532613	608.200000
2221.143912	600.700000
2222.753221	630.400000
2224.363894	613.500000
2225.972578	622.900000
2227.580949	595.100000
2229.187334	611.100000
2230.795082	632.100000
2232.400843	604.200000
2234.006293	590.600000
2235.609758	619.500000
2237.214586	610.200000
2238.817430	630.500000
2240.418291	617.600000
2242.020515	613.500000
2243.620757	631.300000
2245.222361	601.300000
2246.820312	611.200000
2248.419626	590.000000
2250.016960	634.000000
2251.613986	639.400000
2253.212374	618.300000
2254.807113	659.600000
2256.399875	616.100000
2257.994000	635.300000
2259.589486	604.500000
2261.181327	626.800000
2262.772862	637.100000
2264.365759	635.600000
2265.953346	615.200000
2267.545629	624.300000
2269.132606	622.700000
2270.722610	629.400000
2272.307310	615.400000
2273.896704	631.100000
2275.480796	603.500000
2277.066248	624.900000
2278.649732	630.400000
2280.236241	600.700000
2281.819117	609.300000
2283.401690	614.100000
2284.983959	603.100000
2286.562598	645.400000
2288.144262	605.300000
2289.722297	616.800000
2291.303355	604.300000
2292.880786	604.200000
2294.456254	604.100000
2296.034744	598.700000
2297.609610	608.000000
2299.184175	618.700000
2300.758440	614.200000
2302.332404	633.400000
2303.906067	632.700000
2305.479431	587.400000
2307.049176	606.300000
2308.618622	581.200000
2310.191086	610.100000
2311.758276	603.500000
2313.328484	597.300000
2314.895077	613.400000
2316.463030	592.800000
2318.029027	614.500000
2319.594727	623.400000
2321.160129	639.500000
2322.723578	608.000000
2324.288386	646.100000
2325.849586	647.100000
2327.413800	680.900000
2328.972752	709.900000
2330.534719	667.000000
2332.094734	640.200000
2333.654455	616.400000
2335.212226	638.500000
2336.769702	622.200000
2338.326884	643.600000
2339.882118	638.000000
2341.437059	658.300000
2342.991705	638.300000
2344.546058	652.100000
2346.100118	655.000000
2347.653883	634.900000
2349.205704	638.100000
2350.755583	643.700000
2352.308469	642.000000
2353.856112	655.000000
2355.406764	622.900000
2356.953824	648.500000
2358.502242	638.700000
2360.050369	610.600000
2361.594907	659.300000
2363.140803	626.000000
2364.684761	642.500000
2366.230076	648.100000
2367.771806	663.300000
2369.314893	648.100000
2370.856044	637.000000
2372.396906	658.200000
2373.937479	622.900000
2375.477763	617.900000
2377.017758	650.100000
2378.554175	654.500000
2380.093593	677.100000
2381.629433	639.400000
2383.166631	643.600000
2384.700253	645.100000
2386.236875	635.900000
2387.771567	654.500000
2389.304329	650.400000
2390.836804	631.300000
2392.367351	653.500000
2393.900896	657.500000
2395.429230	674.600000
2396.958921	665.100000
2398.488325	649.500000
2400.017445	659.000000
2401.546280	682.300000
2403.069909	697.000000
2404.598174	705.500000
2406.121237	692.500000
2407.648933	676.400000
2409.169790	706.300000
2410.695280	678.500000
2412.217209	703.600000
2413.740494	739.600000
2415.261857	725.300000
2416.781301	716.900000
2418.302100	750.800000
2419.820981	737.700000
2421.339579	730.300000
2422.856260	747.700000
2424.374295	753.200000
2425.892049	759.400000
2427.406252	744.700000
2428.920174	746.500000
2430.433816	725.800000
2431.948813	756.000000
2433.460261	742.000000
2434.973064	762.600000
2436.483953	761.300000
2437.994564	755.300000
2439.503263	763.600000
2441.014948	758.200000
2442.523090	746.200000
2444.030954	768.400000
2445.538540	741.400000
2447.042585	786.500000
2448.549615	748.600000
2450.054737	747.100000
2451.559582	750.800000
2453.062520	745.600000
2454.565182	752.600000
2456.067567	723.100000
2457.568047	733.700000
2459.069880	722.100000
2460.569808	752.600000
2462.069461	729.500000
2463.568839	717.000000
2465.066314	725.300000
2466.561887	714.500000
2468.060440	713.400000
2469.555465	696.300000
2471.051842	680.900000
2472.544693	709.800000
2474.038897	709.700000
2475.532827	737.900000
2477.023233	725.600000
2478.516617	701.400000
2480.008103	702.700000
2481.497692	717.600000
2482.987009	695.900000
2484.474430	714.100000
2485.964827	695.600000
2487.451706	719.500000
2488.939936	699.900000
2490.424649	683.700000
2491.909093	702.900000
2493.394887	696.700000
2494.878790	691.600000
2496.364043	705.500000
2497.844163	680.500000
2499.327256	694.400000
2500.808458	693.200000
2502.289391	709.600000
2503.768435	699.600000
2505.247210	684.200000
2506.725717	717.000000
2508.203956	712.400000
2509.681926	677.400000
2511.156391	709.900000
2512.633826	691.400000
2514.107757	698.200000
2515.583038	684.900000
2517.058052	674.800000
2518.529565	710.000000
2520.002429	735.400000
2521.473410	702.600000
2522.945741	720.900000
2524.412958	706.000000
2525.883142	719.400000
2527.351445	716.700000
2528.819483	695.200000
2530.287256	693.400000
2531.754764	711.600000
2533.222007	722.100000
2534.685758	703.900000
2536.150859	744.400000
2537.614083	725.600000
2539.078656	719.200000
2540.539741	729.600000
2542.002175	729.200000
2543.464346	729.700000
2544.923031	741.200000
2546.386287	725.200000
2547.844448	750.000000
2549.303957	751.600000
2550.758372	751.000000
2552.217358	742.100000
2553.674472	773.400000
2555.129715	740.300000
2556.584696	771.400000
2558.037809	753.600000
2559.492270	762.200000
2560.944861	769.600000
2562.397193	779.200000
2563.847658	790.500000
2565.301078	765.100000
2566.749416	786.500000
2568.200709	786.000000
2569.650137	775.700000
2571.096092	802.700000
2572.545002	793.800000
2573.990442	779.800000
2575.437229	819.500000
2576.882154	806.400000
2578.326820	840.800000
2579.772834	802.900000
2581.215382	828.000000
2582.659277	820.400000
2584.099707	824.500000
2585.541484	822.600000
2586.981402	834.300000
2588.422667	820.100000
2589.860470	833.000000
2591.301223	818.100000
2592.736914	850.000000
2594.175554	834.200000
2595.612336	869.100000
2597.047263	865.700000
2598.485137	846.700000
2599.917954	878.100000
2601.352118	904.800000
2602.784428	881.600000
2604.218084	892.600000
2605.649887	915.500000
2607.081436	941.800000
2608.512733	949.600000
2609.942177	957.400000
2611.371369	948.000000
2612.798711	996.400000
2614.227398	988.000000
2615.655834	990.400000
2617.080822	1015.800000
2618.507157	1028.500000
2619.931643	1043.000000
2621.357475	1036.800000
2622.779863	1064.200000
2624.203597	1095.500000
2625.625484	1088.000000
2627.047122	1139.200000
2628.466914	1135.100000
2629.888052	1157.700000
2631.308940	1158.800000
2632.726390	1168.700000
2634.146779	1232.100000
2635.563731	1212.900000
2636.980434	1266.100000
2638.396889	1264.200000
2639.813096	1302.000000
2641.229055	1307.900000
2642.643173	1349.800000
2644.057043	1368.200000
2645.469075	1353.000000
2646.882450	1415.400000
2648.292396	1406.000000
2649.705278	1435.100000
2651.114731	1472.000000
2652.523938	1529.200000
2653.931309	1511.100000
2655.341614	1536.700000
2656.750084	1568.800000
2658.156718	1604.600000
2659.563107	1614.400000
2660.967662	1657.900000
2662.373561	1692.600000
2663.777627	1699.600000
2665.181448	1720.600000
2666.585025	1749.300000
2667.986771	1771.200000
2669.389860	1841.900000
2670.789531	1859.100000
2672.190546	1852.400000
2673.588145	1869.000000
2674.988674	1883.000000
2676.385787	1881.100000
2677.784244	1939.400000
2679.180874	1925.600000
2680.577261	1929.700000
2681.973406	1939.600000
2683.367725	1901.400000
2684.763387	1897.000000
2686.155640	1913.700000
2687.549235	1914.800000
2688.941006	1921.300000
2690.334120	1888.300000
2691.725410	1869.500000
2693.114877	1894.400000
2694.504104	1859.400000
2695.893092	1856.700000
2697.283421	1868.100000
2698.668767	1825.800000
2700.057036	1848.900000
2701.443485	1783.200000
2702.829695	1789.400000
2704.215666	1766.300000
2705.598239	1716.300000
2706.982154	1725.100000
2708.365831	1653.400000
2709.749269	1667.600000
2711.129313	1634.200000
2712.510697	1590.000000
2713.890267	1582.200000
2715.271177	1541.100000
2716.650273	1517.300000
2718.027555	1459.800000
2719.406178	1414.300000
2720.782988	1359.600000
2722.159561	1363.500000
2723.535899	1287.300000
2724.910426	1269.100000
2726.286293	1245.400000
2727.658773	1195.500000
2729.034169	1171.000000
2730.404605	1153.000000
2731.776382	1140.500000
2733.147924	1088.400000
2734.517658	1075.000000
2735.888733	1040.300000
2737.257999	1007.900000
2738.627032	1020.900000
2739.994259	983.900000
2741.361252	969.100000
2742.728013	951.400000
2744.094542	938.600000
2745.459265	903.900000
2746.823756	916.300000
2748.188016	894.000000
2749.552043	883.000000
2750.915839	887.700000
2752.276261	858.100000
2753.639593	848.000000
2754.997983	855.300000
2756.359283	813.700000
2757.717213	843.000000
2759.078051	811.900000
2760.437090	811.800000
2761.792760	810.000000
2763.151338	802.600000
2764.506549	788.800000
2765.861531	786.400000
2767.214717	812.900000
2768.570809	809.300000
2769.923536	784.600000
2771.276036	793.600000
2772.628307	792.300000
2773.981916	767.900000
2775.332165	778.600000
2776.680619	807.900000
2778.031979	769.000000
2779.379979	760.100000
2780.729317	776.200000
2782.076863	769.500000
2783.424183	776.200000
2784.771276	770.600000
2786.116578	777.600000
2787.461653	756.000000
2788.806503	730.000000
2790.151127	750.300000
2791.492399	753.200000
2792.835009	762.100000
2794.177393	724.600000
2795.519552	762.800000
2796.858362	712.300000
2798.200072	737.300000
2799.538434	737.000000
2800.878132	766.500000
2802.216046	748.000000
2803.552175	760.900000
2804.888080	719.800000
2806.225323	750.600000
2807.560782	740.100000
2808.896018	769.700000
2810.229471	729.700000
2811.564261	762.300000
2812.895711	759.500000
2814.230056	728.600000
2815.559503	719.300000
2816.890287	748.600000
2818.220849	730.800000
2819.549632	732.100000
2820.879751	726.200000
2822.208092	741.700000
2823.536212	699.300000
2824.862554	734.200000
2826.190233	712.400000
2827.514578	721.100000
2828.840260	721.400000
2830.164166	731.800000
2831.487853	698.900000
2832.812875	725.300000
2834.134567	683.300000
2835.456041	713.200000
2836.777296	692.400000
2838.098332	709.300000
2839.417595	708.900000
2840.738194	700.000000
2842.057022	703.000000
2843.375631	692.300000
2844.692469	695.000000
2846.009090	691.500000
2847.325494	702.200000
2848.640128	677.000000
2849.956098	708.600000
2851.268747	706.100000
2852.582731	706.000000
2853.896499	704.400000
2855.210050	697.100000
2856.521835	712.800000
2857.831853	692.400000
2859.143206	708.800000
2860.451244	701.800000
2861.760616	696.700000
2863.069774	683.500000
2864.378716	715.700000
2865.685894	677.100000
2866.991310	701.600000
2868.298060	723.500000
2869.603047	691.000000
2870.907821	700.100000
2872.210833	705.800000
2873.516726	701.000000
2874.817765	701.700000
2876.120138	684.900000
2877.420751	731.400000
2878.722698	706.300000
2880.024431	723.900000
2881.322861	728.800000
2882.622624	698.600000
2883.920630	712.200000
2885.218424	710.000000
2886.514462	702.800000
2887.811833	735.300000
2889.107448	701.200000
2890.402852	718.900000
2891.698045	705.100000
2892.989941	723.100000
2894.284713	706.000000
2895.576188	729.300000
2896.868996	733.000000
2898.161594	690.900000
2899.450898	700.900000
2900.741534	680.100000
2902.030419	705.000000
2903.320636	712.400000
2904.607562	723.700000
2905.895820	729.800000
2907.182329	698.600000
2908.468629	707.600000
2909.754722	736.800000
2911.039066	709.300000
2912.326281	716.900000
2913.608670	717.600000
2914.892391	707.600000
2916.174366	707.900000
2917.456133	714.200000
2918.736156	710.500000
2920.019048	722.000000
2921.300195	706.500000
2922.578060	724.100000
2923.858794	695.200000
2925.136247	705.100000
2926.413494	721.500000
2927.688999	699.200000
2928.967372	664.700000
2930.240931	703.900000
2931.517357	685.700000
2932.792042	698.400000
2934.064986	680.000000
2935.339262	677.000000
2936.611798	687.500000
2937.884129	703.200000
2939.153188	676.300000
2940.425112	652.500000
2941.695298	653.200000
2942.965280	676.700000
2944.235059	677.400000
2945.503102	654.800000
2946.769408	684.300000
2948.035513	690.300000
2949.302947	663.700000
2950.568647	666.200000
2951.834144	667.800000
2953.099439	650.000000
2954.361469	641.000000
2955.624829	660.200000
2956.887988	648.000000
2958.149415	658.000000
2959.412171	640.500000
2960.673195	662.900000
2961.932489	665.500000
2963.191583	670.100000
2964.450476	637.900000
2965.709169	661.600000
2966.967662	624.100000
2968.224426	629.000000
2969.480990	657.200000
2970.735827	634.200000
2971.991992	625.100000
2973.244903	653.600000
2974.499143	647.600000
2975.753184	650.700000
2977.005499	647.100000
2978.257615	660.500000
2979.508007	654.300000
2980.761254	628.100000
2982.009724	626.800000
2983.261049	671.000000
2984.509124	637.200000
2985.757003	648.600000
2987.004684	647.900000
2988.252168	686.500000
2989.497931	640.300000
2990.743498	643.400000
2991.990392	626.000000
2993.234042	621.100000
2994.479020	655.800000
2995.720754	640.100000
2996.965340	651.800000
2998.208207	653.300000
2999.447833	652.900000
3000.690309	643.200000
3001.929545	648.200000
3003.170109	630.200000
3004.408957	659.500000
3005.647609	597.700000
3006.884546	638.000000
3008.122811	645.200000
3009.359360	642.300000
3010.595716	640.700000
3011.831878	664.500000
3013.066326	652.400000
3014.300582	647.700000
3015.534644	665.700000
3016.766994	649.100000
3017.997632	656.100000
3019.231116	651.100000
3020.462888	650.600000
3021.692950	663.000000
3022.922819	653.300000
3024.150980	643.700000
3025.380466	652.900000
3026.608243	635.400000
3027.835829	619.400000
3029.064742	659.700000
3030.288912	651.100000
3031.515925	609.700000
3032.739714	655.900000
3033.964830	644.200000
3035.188239	631.300000
3036.411458	610.200000
3037.632972	644.500000
3038.857327	617.900000
3040.076947	621.100000
3041.297893	629.400000
3042.518650	620.200000
3043.737703	604.500000
3044.958081	617.800000
3046.175243	585.400000
3047.393731	629.100000
3048.610516	614.900000
3049.827114	610.800000
3051.043523	628.300000
3052.256720	630.300000
3053.472754	608.300000
3054.685576	614.500000
3055.901235	623.000000
3057.112171	610.900000
3058.324432	602.900000
3059.536507	623.000000
3060.748394	608.100000
3061.958585	638.400000
3063.168589	596.700000
3064.378407	589.500000
3065.586529	595.600000
3066.794466	607.900000
3068.000707	598.500000
3069.208273	615.100000
3070.414144	610.850000
3071.619831	606.600000
3072.825332	612.200000
3074.029140	592.000000
3075.234272	593.100000
3076.437711	624.600000
3077.639459	606.800000
3078.841022	594.000000
3080.042402	581.700000
3081.243598	598.000000
3082.443104	600.100000
3083.642427	589.200000
3084.843073	595.400000
3086.042029	621.800000
3087.237791	572.200000
3088.436382	608.500000
3089.631779	582.300000
3090.828499	588.800000
3092.022027	625.600000
3093.218383	594.000000
3094.413053	609.600000
3095.604532	576.100000
3096.800342	619.700000
3097.991458	606.500000
3099.183898	590.100000
3100.373150	584.400000
3101.565227	625.300000
3102.755621	604.800000
3103.942829	614.000000
3105.131360	586.100000
3106.321212	600.100000
3107.507881	591.800000
3108.694369	583.100000
3109.880679	579.500000
3111.068310	603.800000
3112.252759	607.500000
3113.435529	586.200000
3114.621121	612.100000
3115.805034	592.300000
3116.987268	607.600000
3118.169323	577.700000
3119.351200	575.700000
3120.532899	588.800000
3121.712921	589.700000
3122.891266	586.900000
3124.072431	609.900000
3125.250421	593.200000
3126.428235	589.500000
3127.605871	576.600000
3128.781832	595.100000
3129.957616	594.400000
3131.134722	574.200000
3132.310153	568.500000
3133.483911	560.200000
3134.655996	586.600000
3135.829403	605.000000
3137.002633	589.200000
3138.174192	593.400000
3139.347071	576.100000
3140.516783	595.700000
3141.687816	616.400000
3142.857179	614.400000
3144.024871	603.800000
3145.195379	610.000000
3146.361229	589.800000
3147.531387	606.400000
3148.696889	606.600000
3149.862216	621.300000
3151.027370	625.500000
3152.192351	595.600000
3153.358651	604.300000
3154.520299	617.900000
3155.683266	608.500000
3156.846061	589.400000
3158.008683	585.000000
3159.169640	593.600000
3160.330424	569.800000
3161.491036	615.500000
3162.649984	577.600000
3163.808761	590.600000
3164.967366	597.100000
3166.125798	571.700000
3167.284060	588.400000
3168.440659	584.900000
3169.595597	581.500000
3170.751854	589.400000
3171.906450	591.600000
3173.060876	579.200000
3174.213642	583.000000
3175.366237	563.900000
3176.518663	563.100000
3177.670919	587.200000
3178.823004	575.600000
3179.971944	577.800000
3181.123690	582.500000
3182.273778	569.700000
3183.422210	563.900000
3184.570472	605.500000
3185.718566	596.000000
3186.866491	564.700000
3188.012760	565.600000
3189.158861	582.800000
3190.303308	602.000000
3191.447587	619.300000
3192.591698	588.800000
3193.737126	601.400000
3194.879416	591.200000
3196.021539	605.600000
3197.163494	602.500000
3198.305282	599.500000
3199.446903	598.000000
3200.585389	627.300000
3201.725192	601.900000
3202.866313	597.600000
3204.004299	623.700000
3205.140636	616.900000
3206.276807	652.100000
3207.414295	612.300000
3208.550135	633.300000
3209.687292	606.800000
3210.819836	620.700000
3211.956662	625.200000
3213.088876	639.700000
3214.222407	648.200000
3215.355774	636.500000
3216.486013	613.300000
3217.619050	624.400000
3218.748961	602.400000
3219.880188	585.100000
3221.008291	605.400000
3222.139190	620.100000
3223.268445	593.900000
3224.396057	606.600000
3225.520546	609.800000
3226.649311	610.400000
3227.774954	608.600000
3228.900435	609.000000
3230.024274	616.400000
3231.150907	598.700000
3232.272943	601.800000
3233.396295	596.000000
3234.519485	579.300000
3235.642512	593.600000
3236.763901	578.500000
3237.885127	560.700000
3239.004716	574.900000
3240.124143	540.300000
3241.241932	565.000000
3242.362513	557.000000
3243.479981	550.100000
3244.597288	563.600000
3245.714435	541.200000
3246.829946	557.700000
3247.946771	545.000000
3249.060487	567.800000
3250.176992	553.700000
3251.291863	536.300000
3252.403625	536.200000
3253.515227	553.800000
3254.628145	563.200000
3255.740903	561.900000
3256.850555	544.000000
3257.961522	531.000000
3259.072330	556.200000
3260.181506	521.400000
3261.289052	541.900000
3262.397911	526.600000
3263.506613	558.900000
3264.612212	527.600000
3265.719125	552.700000
3266.824409	540.300000
3267.931007	536.400000
3269.034505	523.600000
3270.139318	565.400000
3271.243973	550.400000
3272.345529	565.400000
3273.446929	536.200000
3274.549643	541.200000
3275.652201	562.100000
3276.751662	544.600000
3277.853907	547.300000
3278.953056	534.300000
3280.050581	524.300000
3281.147950	544.400000
3282.248101	533.400000
3283.345160	554.300000
3284.442063	516.800000
3285.538811	518.300000
3286.631001	528.800000
3287.727439	537.700000
3288.822255	527.100000
3289.916917	561.700000
3291.009957	515.000000
3292.102842	536.600000
3293.194108	529.300000
3294.286685	534.300000
3295.377643	510.400000
3296.466981	527.000000
3297.556166	525.400000
3298.646664	506.800000
3299.734077	534.900000
3300.821337	519.200000
3301.909910	518.100000
3302.998331	513.000000
3304.082204	513.500000
3305.170319	524.900000
3306.255352	524.500000
3307.338770	511.800000
3308.423500	515.200000
3309.506614	510.300000
3310.591041	541.500000
3311.672389	546.100000
3312.755049	512.400000
3313.836095	518.700000
3314.916990	532.900000
3315.996271	523.300000
3317.075402	526.200000
3318.155845	531.500000
3319.233213	542.400000
3320.311893	523.900000
3321.388961	533.900000
3322.465880	530.000000
3323.541187	523.300000
3324.616345	534.600000
3325.692814	501.700000
3326.766213	521.300000
3327.839463	532.700000
3328.914023	518.800000
3329.986975	552.300000
3331.058318	521.700000
3332.130972	537.100000
3333.200560	521.400000
3334.271458	518.300000
3335.340749	530.300000
3336.411351	538.100000
3337.480346	516.400000
3338.547735	514.600000
3339.613519	524.100000
3340.683529	518.100000
3341.750476	502.000000
3342.814361	513.500000
3343.881014	507.900000
3344.946062	510.200000
3346.009507	489.000000
3347.072806	490.600000
3348.135958	513.500000
3349.198964	538.300000
3350.261824	515.000000
3351.323082	495.700000
3352.381283	512.500000
3353.443704	511.400000
3354.503070	486.000000
3355.562290	499.500000
3356.622820	491.300000
3357.678840	538.800000
3358.737624	505.200000
3359.791901	508.100000
3360.848942	526.100000
3361.904384	502.700000
3362.961136	522.400000
3364.016289	536.900000
3365.069845	493.000000
3366.121805	514.400000
3367.176526	508.600000
3368.228198	496.600000
3369.279727	511.100000
3370.332564	519.300000
3371.382354	534.700000
3372.433453	516.300000
3373.481506	505.600000
3374.532318	514.200000
3375.580086	528.800000
3376.627711	511.800000
3377.675193	512.900000
3378.721083	521.400000
3379.768281	522.500000
3380.812437	507.200000
3381.859351	510.900000
3382.904673	527.400000
3383.946954	503.300000
3384.989095	532.700000
3386.032543	495.700000
3387.075850	502.600000
3388.117568	524.700000
3389.159144	480.600000
3390.200579	492.300000
3391.240426	502.800000
3392.278684	492.500000
3393.318250	505.700000
3394.357676	499.500000
3395.395514	519.000000
3396.431765	497.500000
3397.467877	527.700000
3398.505296	486.700000
3399.539682	497.400000
3400.575375	494.700000
3401.610929	523.800000
3402.643452	500.100000
3403.678728	496.100000
3404.710973	514.700000
3405.743080	489.900000
3406.773603	500.900000
3407.805433	486.000000
3408.837125	505.100000
3409.865789	515.100000
3410.894316	504.400000
3411.924149	494.100000
3412.953845	465.100000
3413.980515	514.100000
3415.008492	494.700000
3416.033444	492.400000
3417.061146	490.900000
3418.085825	501.300000
3419.111810	481.600000
3420.136215	500.000000
3421.160484	493.500000
3422.183174	512.900000
3423.205728	491.200000
3424.229588	494.900000
3425.250428	504.700000
3426.271132	486.800000
3427.293143	501.300000
3428.312135	475.600000
3429.330991	492.600000
3430.351154	512.900000
3431.368300	494.000000
