-117.888313	15.300000
-115.218713	7.000000
-112.552048	9.600000
-109.886135	3.600000
-107.223154	-11.200000
-104.558744	-3.800000
-101.897264	-4.600000
-99.234355	-9.400000
-96.576552	1.300000
-93.917320	29.400000
-91.258836	-10.000000
-88.603276	-4.400000
-85.946288	-18.600000
-83.294398	0.600000
-80.641078	-3.800000
-77.990677	0.600000
-75.338847	2.900000
-72.692108	5.900000
-70.043940	-3.000000
-67.396514	24.200000
-64.752002	-22.900000
-62.106062	-7.700000
-59.465203	-6.700000
-56.822915	11.100000
-54.183536	-9.900000
-51.542727	7.700000
-48.902659	-1.800000
-46.267663	3.000000
-43.631239	9.000000
-40.997717	7.000000
-38.362767	7.700000
-35.732882	26.000000
-33.099405	-16.600000
-30.470990	-0.700000
-27.843309	2.400000
-25.214199	2.000000
-22.590146	0.000000
-19.962504	3.200000
-17.339915	15.700000
-14.718058	0.300000
-12.096931	-3.600000
-9.476534	5.900000
-6.859026	1.800000
-4.240089	16.900000
-1.624037	-10.900000
0.991286	3.800000
3.605882	-22.400000
6.217595	17.000000
8.830737	12.700000
11.438845	4.700000
14.050535	-14.300000
16.657194	38.600000
19.265281	6.100000
21.872644	21.000000
24.474982	-4.600000
27.080898	28.200000
29.681792	-3.800000
32.284114	8.800000
34.881419	1.300000
37.482299	12.800000
40.078164	-24.100000
42.675458	21.500000
45.272032	21.800000
47.863597	9.000000
50.456590	1.100000
53.046722	3.300000
55.638282	-4.800000
58.226982	4.600000
60.817109	3.900000
63.402237	11.300000
65.988793	9.300000
68.574635	2.300000
71.157623	2.500000
73.742037	20.700000
76.319323	8.800000
78.900175	0.900000
81.478178	-7.000000
84.055471	4.500000
86.634190	-12.600000
89.207927	7.000000
91.783092	10.700000
94.355413	17.000000
96.927026	18.700000
99.495799	17.800000
102.065999	2.600000
104.633361	8.700000
107.202148	-1.600000
109.768099	0.300000
112.331215	9.000000
114.897887	2.500000
117.455338	13.600000
120.018474	19.500000
122.576650	-6.100000
125.138381	9.600000
127.695155	-6.400000
130.253356	10.200000
132.806603	-11.500000
135.359153	16.800000
137.915253	-7.900000
140.466405	14.300000
143.016860	1.300000
145.566617	8.600000
148.113555	-12.800000
150.659798	17.000000
153.207466	-4.300000
155.754438	-0.300000
158.296475	13.600000
160.837818	23.600000
163.378468	14.400000
165.920544	6.500000
168.459808	-14.100000
170.996264	15.700000
173.532028	17.500000
176.069218	20.300000
178.605717	20.800000
181.139410	1.200000
183.670299	9.500000
186.200501	0.700000
188.732127	-7.700000
191.260952	-0.800000
193.786978	12.500000
196.312318	7.400000
198.839083	19.100000
201.363052	3.500000
203.886336	2.300000
206.408935	-3.300000
208.928741	13.700000
211.447864	4.300000
213.966304	4.200000
216.486168	23.700000
218.999031	-2.700000
221.515425	13.100000
224.031137	1.700000
226.541959	3.100000
229.054206	19.800000
231.563671	26.800000
234.072457	-8.900000
236.580564	-8.700000
239.090096	1.200000
241.594747	19.700000
244.098722	1.900000
246.604121	16.700000
249.104645	-17.400000
251.608693	8.700000
254.105769	-10.900000
256.606369	-2.000000
259.104197	12.100000
261.601352	10.200000
264.097834	-9.000000
266.589453	9.800000
269.084592	-19.300000
271.576964	26.600000
274.068666	3.200000
276.557605	5.500000
279.047968	16.000000
281.535568	24.200000
284.020409	-18.300000
286.508765	30.300000
288.990181	10.200000
291.475111	6.700000
293.955196	-4.200000
296.438793	-9.400000
298.917547	-0.400000
301.397725	-0.500000
303.875150	1.500000
306.351912	-14.000000
308.828011	-8.000000
311.301361	27.600000
313.774049	4.600000
316.246076	-4.100000
318.717442	-6.000000
321.186063	8.900000
323.654026	4.700000
326.123410	10.800000
328.587972	-0.800000
331.056038	-12.200000
333.519284	10.400000
335.981872	7.400000
338.443804	13.000000
340.905079	12.300000
343.363620	4.000000
345.823583	20.800000
348.280813	-0.900000
350.737389	26.200000
353.193311	-16.300000
355.646503	17.100000
358.101118	8.500000
360.550931	0.600000
363.004240	0.300000
365.452751	2.300000
367.900610	-12.000000
370.349892	13.300000
372.794380	4.000000
375.240290	-10.700000
377.685550	1.000000
380.128092	-9.400000
382.569986	1.900000
385.011233	12.100000
387.449764	-2.600000
389.889717	5.600000
392.326956	-20.200000
394.761483	-1.700000
397.199498	2.800000
399.632736	6.200000
402.067395	-12.400000
404.497282	-7.800000
406.930654	8.100000
409.359256	28.200000
411.787216	-6.500000
414.216598	3.300000
416.641214	7.400000
419.067252	9.600000
421.492649	-12.200000
423.917406	8.400000
426.337405	-25.900000
428.758825	1.700000
431.177548	11.300000
433.597692	-5.600000
436.015141	-2.800000
438.434010	15.700000
440.850186	6.200000
443.261614	13.500000
445.676520	3.500000
448.088735	6.500000
450.500316	9.200000
452.911263	4.600000
455.319524	-4.900000
457.727152	3.400000
460.134148	-6.700000
462.540513	12.400000
464.944195	-10.700000
467.347247	7.800000
469.749669	6.400000
472.151461	1.900000
474.550576	12.300000
476.951110	15.400000
479.351015	6.100000
481.746197	12.700000
484.144846	10.900000
486.538775	30.300000
488.932078	3.900000
491.324755	18.800000
493.716807	-2.400000
496.110277	27.900000
498.499035	-2.200000
500.885127	0.300000
503.272639	-3.500000
505.659528	12.900000
508.043753	-3.200000
510.429396	18.800000
512.812378	2.700000
515.192699	9.700000
517.574439	-2.300000
519.953520	-8.100000
522.334020	0.800000
524.711862	12.600000
527.087049	-13.700000
529.461618	8.800000
531.837605	13.600000
534.210940	15.400000
536.585692	-9.300000
538.955759	1.800000
541.325210	-6.000000
543.696079	11.700000
546.062268	9.500000
548.429875	2.600000
550.794836	-11.800000
553.159184	9.100000
555.522919	6.000000
557.888072	0.300000
560.248553	-2.100000
562.610452	13.700000
564.969710	-12.200000
567.326331	1.900000
569.686396	-7.300000
572.039770	15.800000
574.396589	9.300000
576.750773	5.500000
579.104349	-0.400000
581.457316	26.800000
583.807651	1.400000
586.159404	27.500000
588.504480	2.500000
590.855020	11.800000
593.198886	24.000000
595.548214	24.600000
597.892893	13.100000
600.234948	12.200000
602.578420	3.700000
604.919269	15.200000
607.259516	9.600000
609.597142	5.900000
611.938203	-13.800000
614.274626	13.700000
616.612466	3.700000
618.947689	10.400000
621.280296	1.200000
623.614319	15.000000
625.945728	8.400000
628.276539	-8.400000
630.606753	11.800000
632.936368	13.500000
635.261360	-9.100000
637.591794	6.100000
639.917607	8.100000
642.240812	6.000000
644.565434	-3.300000
646.887450	10.100000
649.208872	1.500000
651.527692	15.400000
653.847927	-9.500000
656.167569	17.100000
658.484610	-0.800000
660.801059	23.200000
663.114910	-8.000000
665.430177	16.900000
667.742847	-8.800000
670.056932	7.000000
672.366417	-1.100000
674.677318	5.500000
676.985626	-5.400000
679.293346	18.200000
681.602480	0.800000
683.907022	-9.100000
686.210978	5.700000
688.514348	0.700000
690.819132	-0.400000
693.119330	9.100000
695.420942	4.600000
697.721970	3.800000
700.018415	-5.900000
702.316276	-5.100000
704.613553	-7.400000
706.910247	-8.800000
709.202365	-6.000000
711.497894	15.300000
713.788849	10.900000
716.081219	-9.500000
718.371014	-8.600000
720.660228	-4.000000
722.948863	-5.000000
725.234925	10.100000
727.522402	3.800000
729.807307	12.100000
732.091635	9.700000
734.373394	8.500000
736.656567	21.300000
738.939163	3.100000
741.217203	13.500000
743.496658	7.600000
745.775536	2.500000
748.053840	14.800000
750.327594	-3.200000
752.602761	14.900000
754.877355	15.600000
757.149390	6.900000
759.422838	11.900000
761.693728	14.100000
763.962062	6.500000
766.231809	18.500000
768.499002	5.100000
770.765624	27.700000
773.031676	3.700000
775.295177	16.300000
777.560091	-11.000000
779.824435	1.900000
782.084250	-9.400000
784.345477	2.300000
786.606137	3.800000
788.864251	12.600000
791.119820	-11.800000
793.378780	12.300000
795.631241	9.600000
797.889068	19.500000
800.142377	-16.600000
802.393146	9.600000
804.645327	-7.000000
806.894969	0.100000
809.146024	-2.600000
811.392567	4.900000
813.640522	-2.400000
815.885943	2.000000
818.132775	-11.400000
820.379046	14.200000
822.620812	2.800000
824.865962	19.200000
827.104639	-6.500000
829.346698	18.000000
831.584259	5.100000
833.823232	21.900000
836.059678	6.100000
838.297535	17.000000
840.532867	-1.100000
842.765676	3.500000
844.999896	13.000000
847.231593	25.100000
849.462736	23.700000
851.693324	1.800000
853.923358	-1.900000
856.152838	-9.300000
858.377836	-2.200000
860.606209	4.100000
862.830102	16.900000
865.055407	-1.800000
867.276236	-8.300000
869.500437	19.600000
871.720165	0.800000
873.941303	0.200000
876.161891	7.300000
878.379970	6.600000
880.599458	7.700000
882.814480	5.400000
885.028955	14.900000
887.242881	16.500000
889.456261	-15.800000
891.669093	11.800000
893.881379	11.800000
896.091162	4.200000
898.300400	-7.600000
900.509093	3.600000
902.715287	11.200000
904.922890	-5.000000
907.127995	0.000000
909.332557	27.200000
911.534624	2.800000
913.738100	7.000000
915.939082	-3.800000
918.139522	11.500000
920.341371	5.800000
922.536829	0.500000
924.735646	-18.900000
926.930024	17.000000
929.127760	5.900000
931.321060	7.700000
933.515769	20.500000
935.707992	11.600000
937.899676	-10.800000
940.090823	11.300000
942.279487	1.900000
944.467615	6.000000
946.653262	-0.600000
948.842261	26.600000
951.026837	-8.800000
953.210878	17.200000
955.398269	16.000000
957.577356	-2.200000
959.759794	-9.200000
961.941698	7.600000
964.121127	12.000000
966.298084	3.300000
968.476449	2.000000
970.656221	14.900000
972.829644	-5.600000
975.006413	14.400000
977.178775	3.800000
979.352545	-4.600000
981.521911	-7.700000
983.694621	8.900000
985.864866	-0.700000
988.034582	-3.000000
990.203769	-1.500000
992.368559	3.000000
994.536690	6.100000
996.700427	18.700000
998.865570	4.800000
1001.028254	16.600000
1003.190413	2.200000
1005.350115	2.000000
1007.509292	-17.200000
1009.669876	15.800000
1011.828006	4.800000
1013.985611	0.900000
1016.142693	-7.400000
1018.299251	11.100000
1020.451430	3.500000
1022.605016	20.800000
1024.758080	-2.100000
1026.908695	25.200000
1029.060717	3.300000
1031.208365	-4.700000
1033.359345	19.500000
1035.505954	15.100000
1037.652044	4.000000
1039.797616	11.500000
1041.944593	-1.500000
1044.085281	13.800000
1046.229299	21.200000
1048.370876	2.100000
1050.511937	15.700000
1052.654402	20.400000
1054.790588	2.200000
1056.930099	-4.400000
1059.065256	-6.200000
1061.203737	1.900000
1063.337864	8.800000
1065.471478	-7.300000
1067.606497	-13.800000
1069.737166	7.400000
1071.869240	1.400000
1073.998885	10.900000
1076.128018	12.500000
1078.256639	11.600000
1080.384749	-1.700000
1082.510433	14.200000
1084.635607	-13.900000
1086.762185	10.800000
1088.884425	5.200000
1091.008070	-5.800000
1093.127380	-14.100000
1095.251920	29.000000
1097.370214	-13.300000
1099.489913	-12.600000
1101.607193	-11.100000
1103.723967	5.100000
1105.840234	0.000000
1107.954085	5.300000
1110.069341	23.000000
1112.180273	12.500000
1114.294518	-7.100000
1116.404442	-1.600000
1118.515770	3.300000
1120.626593	9.700000
1122.733100	13.500000
1124.842917	3.200000
1126.948419	10.600000
1129.055324	17.700000
1131.156014	1.900000
1133.261916	17.500000
1135.363509	8.000000
1137.466505	1.900000
1139.569000	-1.700000
1141.665288	0.200000
1143.766784	15.300000
1145.863976	4.500000
1147.960671	4.500000
1150.056867	-6.000000
1152.152566	-5.000000
1154.247766	-11.000000
1156.340570	-6.100000
1158.434777	-2.700000
1160.522792	0.600000
1162.616005	2.800000
1164.703030	-9.000000
1166.793354	-9.800000
1168.879391	-7.300000
1170.968725	7.900000
1173.051878	-6.300000
1175.136433	-9.200000
1177.222390	-9.700000
1179.304065	-5.900000
1181.387142	-5.100000
1183.467833	15.200000
1185.548032	-7.600000
1187.627740	-0.600000
1189.706957	-11.800000
1191.783792	-2.000000
1193.858246	-7.700000
1195.935991	10.100000
1198.009467	-4.100000
1200.084343	-8.300000
1202.154952	-22.100000
1204.226962	18.300000
1206.296597	7.000000
1208.367632	1.900000
1210.438179	6.900000
1212.504465	2.800000
1214.572152	-10.500000
1216.637467	10.500000
1218.704182	-3.700000
1220.766641	-0.100000
1222.832385	3.800000
1224.893875	4.600000
1226.956766	4.500000
1229.017289	-0.500000
1231.077328	-13.100000
1233.136885	5.900000
1235.194076	-5.800000
1237.250786	0.600000
1239.305132	5.300000
1241.362760	1.300000
1243.418025	10.300000
1245.469049	20.600000
1247.521473	0.400000
1249.573417	12.400000
1251.623003	-2.100000
1253.672110	0.600000
1255.720739	3.800000
1257.768889	-6.000000
1259.816560	-1.600000
1261.860001	17.000000
1263.906718	-1.100000
1265.951081	-4.400000
1267.994968	10.900000
1270.036503	10.300000
1272.075689	-5.400000
1274.118148	9.300000
1276.156384	-2.500000
1278.196019	3.200000
1280.235179	2.900000
1282.270120	-0.500000
1284.306460	-10.200000
1286.340456	-6.300000
1288.375849	-20.300000
1290.407030	14.300000
1292.439608	9.700000
1294.471715	4.300000
1296.501481	-5.700000
1298.532645	23.200000
1300.559601	8.200000
1302.587955	9.500000
1304.612104	-3.200000
1306.639519	10.800000
1308.662731	6.100000
1310.687341	25.200000
1312.709617	15.100000
1314.733290	11.000000
1316.754630	3.000000
1318.775502	7.600000
1320.795907	-8.200000
1322.812119	12.000000
1324.829728	-20.200000
1326.845009	8.600000
1328.863549	-15.400000
1330.877900	4.400000
1332.889925	3.800000
1334.905207	6.100000
1336.916304	16.600000
1338.928798	-12.800000
1340.937109	6.000000
1342.948675	11.100000
1344.954203	11.300000
1346.962986	8.000000
1348.967591	18.400000
1350.975450	11.200000
1352.982847	10.000000
1354.984213	-4.200000
1356.986975	5.900000
1358.989278	25.100000
1360.991121	17.400000
1362.992504	1.700000
1364.991574	6.800000
1366.990185	2.600000
1368.988338	-13.400000
1370.986032	8.400000
1372.979564	-2.800000
1374.974491	6.200000
1376.968962	-3.600000
1378.962976	-0.100000
1380.954683	19.400000
1382.945935	14.800000
1384.934881	12.500000
1386.925222	8.500000
1388.915108	23.300000
1390.902690	-9.600000
1392.889819	9.300000
1394.874646	12.900000
1396.860868	-0.400000
1398.844790	9.600000
1400.828259	-5.300000
1402.811275	2.900000
1404.791994	-13.400000
1406.774107	8.800000
1408.753924	-18.100000
1410.733289	-4.000000
1412.708516	-16.500000
1414.686981	17.800000
1416.663153	2.800000
1418.638876	1.000000
1420.614149	7.200000
1422.587131	11.900000
1424.559665	-6.400000
1426.531751	-3.200000
1428.503390	4.800000
1430.470900	13.300000
1432.443484	8.500000
1434.408262	2.100000
1436.378113	-8.800000
1438.343840	6.200000
1440.310959	-8.600000
1442.275795	26.900000
1444.236511	-7.000000
1446.202295	26.500000
1448.162124	-7.800000
1450.123347	23.500000
1452.085962	-1.000000
1454.044462	3.600000
1456.002519	3.500000
1457.960135	19.900000
1459.917308	-15.200000
1461.872206	21.500000
1463.828497	-9.600000
1465.782513	6.700000
1467.736088	0.200000
1469.687391	8.000000
1471.640087	10.300000
1473.590510	7.700000
1475.540495	13.100000
1477.490041	6.100000
1479.437318	-4.900000
1481.382327	7.500000
1483.328729	18.700000
1485.274693	-0.900000
1487.220220	10.400000
1489.163481	9.300000
1491.106307	18.500000
1493.046869	6.100000
1494.988822	5.700000
1496.928513	14.600000
1498.867770	11.400000
1500.806591	5.900000
1502.743153	6.800000
1504.681106	4.400000
1506.616800	14.300000
1508.552061	29.500000
1510.485066	5.300000
1512.417638	20.600000
1514.349778	-3.000000
1516.281486	-2.700000
1518.210940	0.700000
1520.141785	6.000000
1522.072198	3.400000
1523.998539	-15.600000
1525.926271	7.800000
1527.851752	15.000000
1529.776804	18.100000
1531.701427	4.200000
1533.625621	-3.800000
1535.547567	-3.300000
1537.470904	12.400000
1539.391994	8.700000
1541.310840	-2.300000
1543.231076	25.600000
1545.149069	6.000000
1547.066635	26.800000
1548.981959	-14.800000
1550.898673	0.300000
1552.811332	13.500000
1554.727195	-19.500000
1556.640818	1.500000
1558.552203	12.000000
1560.464978	5.900000
1562.373703	-1.600000
1564.283817	4.300000
1566.193508	8.300000
1568.102776	-17.000000
1570.009810	18.200000
1571.914611	-9.900000
1573.820801	-11.600000
1575.724759	6.800000
1577.628296	4.400000
1579.531413	-5.200000
1581.432300	1.700000
1583.334576	-0.400000
1585.234624	19.800000
1587.136059	-9.100000
1589.033461	7.100000
1590.930444	-0.600000
1592.827009	13.900000
1594.724962	-0.300000
1596.617080	14.500000
1598.512391	-0.200000
1600.407285	3.700000
1602.299957	-17.000000
1604.192212	9.100000
1606.082248	15.100000
1607.971868	13.000000
1609.861073	-10.000000
1611.749863	3.100000
1613.636435	-5.800000
1615.524395	2.600000
1617.408338	-0.200000
1619.293668	9.100000
1621.178585	2.800000
1623.061288	0.700000
1624.945378	-9.600000
1626.825456	-6.000000
1628.706922	-6.400000
1630.586177	4.300000
1632.466818	9.800000
1634.341655	3.800000
1636.221473	7.600000
1638.097287	15.700000
1639.972690	-11.900000
1641.849479	25.000000
1643.720472	-0.900000
1645.594646	14.700000
1647.464821	0.400000
1649.338178	20.600000
1651.209331	12.900000
1653.078282	1.200000
1654.948618	12.000000
1656.814962	11.200000
1658.682691	10.900000
1660.548221	29.700000
1662.415137	-3.000000
1664.278064	7.500000
1666.142376	-17.100000
1668.004492	14.000000
1669.866203	-16.300000
1671.729300	6.100000
1673.590201	-2.200000
1675.448910	16.800000
1677.307215	11.500000
1679.166905	19.300000
1681.020827	8.500000
1682.877923	-3.400000
1684.734616	4.400000
1686.587332	4.600000
1688.443220	4.200000
1690.295134	24.500000
1692.146647	0.000000
1693.997759	15.600000
1695.848471	-1.600000
1697.698782	1.700000
1699.546908	-1.700000
1701.396419	-2.300000
1703.240181	22.400000
1705.088892	5.200000
1706.931857	6.200000
1708.777989	3.600000
1710.620158	0.000000
1712.465493	12.400000
1714.305087	-13.800000
1716.146065	3.700000
1717.988426	-7.000000
1719.826831	-1.100000
1721.666619	2.900000
1723.504232	5.300000
1725.341449	-15.300000
1727.176493	8.300000
1729.012920	12.600000
1730.847175	4.500000
1732.681035	10.200000
1734.514501	16.600000
1736.344022	-14.700000
1738.176701	7.300000
1740.005436	12.900000
1741.837328	0.500000
1743.665278	-4.900000
1745.492837	10.100000
1747.320003	-5.900000
1749.146778	16.000000
1750.973161	-9.000000
1752.795608	18.000000
1754.621210	-9.800000
1756.442877	7.500000
1758.265926	2.800000
1760.086813	14.500000
1761.907312	6.400000
1763.729191	0.900000
1765.545372	2.000000
1767.364704	5.400000
1769.180109	-9.700000
1770.998664	4.200000
1772.813294	7.100000
1774.627537	7.400000
1776.441394	15.400000
1778.254864	8.500000
1780.066181	-6.900000
1781.878878	3.400000
1783.691190	5.400000
1785.499584	-11.000000
1787.309358	0.200000
1789.115218	-2.300000
1790.924223	12.100000
1792.729315	18.900000
1794.535788	-5.800000
1796.341877	25.700000
1798.144055	3.400000
1799.949378	15.500000
1801.750792	-16.100000
1803.553586	9.900000
1805.352474	1.500000
1807.152743	29.600000
1808.952630	0.600000
1810.750375	-13.600000
1812.547740	-3.300000
1814.344725	13.500000
1816.141329	4.000000
1817.935794	14.800000
1819.731638	-13.100000
1821.521827	2.200000
1823.316913	-6.500000
1825.106347	25.100000
1826.898917	-11.400000
1828.689352	5.100000
1830.477653	0.300000
1832.269089	-4.700000
1834.054879	-0.900000
1835.842049	22.400000
1837.627087	-7.300000
1839.415259	11.500000
1841.199545	-6.200000
1842.981701	1.100000
1844.765237	8.600000
1846.546644	6.900000
1848.329430	0.300000
1850.108335	15.500000
1851.888620	-16.100000
1853.666778	21.500000
1855.446315	-15.800000
1857.223727	5.300000
1858.999015	7.400000
1860.775681	17.400000
1862.550225	-9.900000
1864.326147	3.800000
1866.096448	-25.800000
1867.869877	8.000000
1869.641186	-3.800000
1871.412124	10.100000
1873.184440	18.400000
1874.951142	8.100000
1876.720970	-6.000000
1878.486934	5.200000
1880.256021	5.000000
1882.021247	14.000000
1883.786105	1.900000
1885.552340	17.900000
1887.314716	-4.800000
1889.076725	-3.100000
1890.838366	1.600000
1892.599641	16.600000
1894.360548	-6.900000
1896.121089	8.400000
1897.879520	7.700000
1899.637585	2.800000
1901.393543	7.000000
1903.150877	23.000000
1904.907846	12.200000
1906.662708	13.900000
1908.415466	-9.600000
1910.167859	-14.300000
1911.921629	13.800000
1913.673295	-2.300000
1915.422859	-19.100000
1917.173798	-4.800000
1918.924375	-2.300000
1920.671112	-1.600000
1922.419226	3.900000
1924.165240	5.500000
1925.912629	5.000000
1927.657921	7.600000
1929.401115	-3.900000
1931.145684	13.400000
1932.888158	-5.200000
1934.630271	-0.800000
1936.372024	2.100000
1938.113417	13.100000
1939.852717	-1.000000
1941.591658	10.700000
1943.330240	-2.400000
1945.066731	10.100000
1946.802864	1.400000
1948.540371	-7.300000
1950.274056	11.700000
1952.009116	3.900000
1953.742087	1.600000
1955.474702	25.600000
1957.206961	-10.400000
1958.938863	2.100000
1960.668679	-13.100000
1962.396410	0.800000
1964.125516	-6.000000
1965.854267	11.300000
1967.580934	3.800000
1969.307247	18.800000
1971.034933	1.000000
1972.757083	8.900000
1974.482334	-8.500000
1976.203778	-9.500000
1977.928323	-9.200000
1979.650787	3.200000
1981.369449	-0.500000
1983.091209	20.500000
1984.809167	-9.500000
1986.528498	13.100000
1988.244030	9.600000
1989.964382	3.500000
1991.680936	-5.700000
1993.393693	-15.700000
1995.109546	-5.700000
1996.823327	4.100000
1998.536758	-5.500000
2000.248118	21.600000
2001.960850	-12.500000
2003.669792	4.800000
2005.381826	-2.200000
2007.088352	25.200000
2008.797969	12.300000
2010.505520	17.700000
2012.212722	4.300000
2013.917859	-1.900000
2015.622650	9.300000
2017.328812	16.100000
2019.031192	0.200000
2020.734943	6.100000
2022.436632	8.100000
2024.137976	22.200000
2025.838974	0.500000
2027.537911	3.600000
2029.238220	-6.400000
2030.934754	11.700000
2032.632659	-4.400000
2034.328505	12.000000
2036.027437	-0.400000
2037.720883	22.700000
2039.415700	2.400000
2041.110175	1.500000
2042.800881	7.600000
2044.494671	8.700000
2046.184694	4.300000
2047.876088	5.700000
2049.565429	-12.500000
2051.256140	3.600000
2052.943088	-4.800000
2054.629697	-0.600000
2056.317675	-14.300000
2058.001894	6.800000
2059.687484	-3.800000
2061.372734	15.600000
2063.055935	5.400000
2064.740507	11.100000
2066.419616	-1.200000
2068.103510	6.000000
2069.781943	14.200000
2071.463454	20.000000
2073.141213	3.900000
2074.818636	11.500000
2076.497428	-4.200000
2078.174178	8.900000
2079.848886	-2.700000
2081.524963	8.500000
2083.199000	-11.600000
2084.872701	8.700000
2086.546067	-2.000000
2088.217394	3.500000
2089.888387	1.900000
2091.559046	19.700000
2093.229371	-20.900000
2094.899362	1.000000
2096.567317	5.600000
2098.234939	14.500000
2099.900526	21.600000
2101.567482	9.700000
2103.232405	12.000000
2104.896996	21.600000
2106.559555	9.300000
2108.223482	1.600000
2109.885378	3.700000
2111.546944	-19.300000
2113.208178	13.600000
2114.867384	12.800000
2116.526259	-2.000000
2118.184805	8.500000
2119.843020	4.700000
2121.497513	31.800000
2123.155070	-10.100000
2124.812298	14.500000
2126.465804	21.800000
2128.120678	9.700000
2129.771833	-5.200000
2131.426051	9.700000
2133.076552	-2.900000
2134.728419	16.800000
2136.374878	19.600000
2138.026092	1.300000
2139.673592	-12.300000
2141.322459	1.800000
2142.969307	6.400000
2144.615830	19.600000
2146.262027	-11.900000
2147.904516	12.000000
2149.550063	-5.800000
2151.191903	2.900000
2152.836800	17.300000
2154.477991	2.300000
2156.118860	3.700000
2157.759404	14.800000
2159.397936	-5.600000
2161.037834	18.000000
2162.674032	11.800000
2164.311596	2.600000
2165.948838	-1.300000
2167.584070	23.700000
2169.218981	-5.000000
2170.853569	10.600000
2172.487837	-13.700000
2174.118411	8.200000
2175.752037	15.900000
2177.381971	19.800000
2179.013270	-9.100000
2180.642564	6.100000
2182.271539	-6.500000
2183.900194	14.800000
2185.528530	21.000000
2187.154864	18.200000
2188.780879	-16.700000
2190.404892	9.500000
2192.030271	14.000000
2193.653649	-1.500000
2195.278392	0.100000
2196.899454	2.700000
2198.520199	0.200000
2200.142309	6.600000
2201.762421	-15.100000
2203.380536	-1.700000
2204.998336	1.200000
2206.615821	14.100000
2208.232990	2.600000
2209.849844	17.800000
2211.466382	-5.700000
2213.080928	24.300000
2214.693481	5.300000
2216.307398	15.000000
2217.919324	9.300000
2219.532613	-3.900000
2221.143912	16.500000
2222.753221	-6.100000
2224.363894	-2.900000
2225.972578	10.500000
2227.580949	5.200000
2229.187334	10.600000
2230.795082	-10.400000
2232.400843	-22.100000
2234.006293	1.500000
2235.609758	20.700000
2237.214586	-9.600000
2238.817430	3.500000
2240.418291	-2.200000
2242.020515	-2.800000
2243.620757	17.900000
2245.222361	21.400000
2246.820312	12.800000
2248.419626	3.700000
2250.016960	3.100000
2251.613986	3.300000
2253.212374	-4.200000
2254.807113	24.400000
2256.399875	8.700000
2257.994000	15.000000
2259.589486	11.600000
2261.181327	9.600000
2262.772862	-3.500000
2264.365759	20.100000
2265.953346	4.900000
2267.545629	26.100000
2269.132606	6.100000
2270.722610	5.500000
2272.307310	-19.100000
2273.896704	14.800000
2275.480796	15.700000
2277.066248	10.400000
2278.649732	0.200000
2280.236241	21.600000
2281.819117	-8.600000
2283.401690	20.000000
2284.983959	5.100000
2286.562598	10.700000
2288.144262	-4.700000
2289.722297	-5.500000
2291.303355	8.800000
2292.880786	7.500000
2294.456254	6.200000
2296.034744	9.300000
2297.609610	2.900000
2299.184175	18.300000
2300.758440	-5.100000
2302.332404	24.200000
2303.906067	2.000000
2305.479431	13.200000
2307.049176	-9.400000
2308.618622	11.300000
2310.191086	2.400000
2311.758276	21.700000
2313.328484	20.000000
2314.895077	18.700000
2316.463030	-6.400000
2318.029027	9.000000
2319.594727	3.100000
2321.160129	13.700000
2322.723578	-3.500000
2324.288386	15.400000
2325.849586	2.700000
2327.413800	19.900000
2328.972752	10.500000
2330.534719	11.100000
2332.094734	-6.500000
2333.654455	-2.700000
2335.212226	-1.800000
2336.769702	2.700000
2338.326884	-2.300000
2339.882118	2.300000
2341.437059	-3.400000
2342.991705	12.900000
2344.546058	-3.600000
2346.100118	14.700000
2347.653883	-0.500000
2349.205704	17.700000
2350.755583	0.900000
2352.308469	7.400000
2353.856112	3.400000
2355.406764	16.500000
2356.953824	-0.100000
2358.502242	8.100000
2360.050369	2.000000
2361.594907	5.400000
2363.140803	12.900000
2364.684761	17.400000
2366.230076	4.800000
2367.771806	19.600000
2369.314893	1.500000
2370.856044	-3.000000
2372.396906	-2.000000
2373.937479	5.900000
2375.477763	-6.500000
2377.017758	1.200000
2378.554175	-0.300000
2380.093593	7.700000
2381.629433	-4.000000
2383.166631	-5.100000
2384.700253	1.600000
2386.236875	18.500000
2387.771567	-0.500000
2389.304329	-3.000000
2390.836804	-5.500000
2392.367351	6.500000
2393.900896	5.700000
2395.429230	3.300000
2396.958921	-13.000000
2398.488325	5.000000
2400.017445	-4.400000
2401.546280	13.300000
2403.069909	-1.500000
2404.598174	5.800000
2406.121237	1.200000
2407.648933	0.800000
2409.169790	0.100000
2410.695280	7.200000
2412.217209	-11.000000
2413.740494	5.800000
2415.261857	-9.600000
2416.781301	-4.600000
2418.302100	7.900000
2419.820981	27.900000
2421.339579	7.400000
2422.856260	17.400000
2424.374295	-2.600000
2425.892049	-4.600000
2427.406252	-0.500000
2428.920174	24.000000
2430.433816	-1.900000
2431.948813	8.300000
2433.460261	-9.900000
2434.973064	14.700000
2436.483953	-12.300000
2437.994564	10.000000
2439.503263	13.700000
2441.014948	6.900000
2442.523090	-0.300000
2444.030954	10.600000
2445.538540	-9.200000
2447.042585	14.300000
2448.549615	15.400000
2450.054737	14.000000
2451.559582	1.100000
2453.062520	11.100000
2454.565182	14.800000
2456.067567	2.900000
2457.568047	8.500000
2459.069880	11.600000
2460.569808	1.700000
2462.069461	7.200000
2463.568839	-2.900000
2465.066314	1.800000
2466.561887	-3.100000
2468.060440	7.600000
2469.555465	1.800000
2471.051842	13.100000
2472.544693	-0.400000
2474.038897	4.600000
2475.532827	8.900000
2477.023233	-0.700000
2478.516617	-3.700000
2480.008103	28.600000
2481.497692	-2.200000
2482.987009	-0.200000
2484.474430	14.600000
2485.964827	19.700000
2487.451706	-8.800000
2488.939936	21.800000
2490.424649	20.800000
2491.909093	-0.200000
2493.394887	3.000000
2494.878790	-3.500000
2496.364043	3.300000
2497.844163	11.500000
2499.327256	15.500000
2500.808458	5.500000
2502.289391	7.800000
2503.768435	14.400000
2505.247210	-2.400000
2506.725717	16.600000
2508.203956	-5.800000
2509.681926	-3.300000
2511.156391	24.700000
2512.633826	8.700000
2514.107757	2.300000
2515.583038	10.300000
2517.058052	5.200000
2518.529565	-1.900000
2520.002429	4.000000
2521.473410	5.800000
2522.945741	4.700000
2524.412958	25.400000
2525.883142	2.200000
2527.351445	9.700000
2528.819483	-4.900000
2530.287256	2.300000
2531.754764	-11.000000
2533.222007	11.000000
2534.685758	-16.500000
2536.150859	7.900000
2537.614083	-3.300000
2539.078656	6.000000
2540.539741	-2.200000
2542.002175	-3.500000
2543.464346	2.500000
2544.923031	13.500000
2546.386287	-0.400000
2547.844448	6.200000
2549.303957	-12.300000
2550.758372	-2.000000
2552.217358	-13.500000
2553.674472	12.400000
2555.129715	-21.000000
2556.584696	-4.000000
2558.037809	27.800000
2559.492270	-5.400000
2560.944861	6.300000
2562.397193	3.900000
2563.847658	1.500000
2565.301078	23.900000
2566.749416	24.200000
2568.200709	8.500000
2569.650137	8.900000
2571.096092	-3.300000
2572.545002	-23.300000
2573.990442	-2.400000
2575.437229	5.300000
2576.882154	15.500000
2578.326820	-10.500000
2579.772834	13.500000
2581.215382	2.000000
2582.659277	16.000000
2584.099707	-1.300000
2585.541484	19.900000
2586.981402	15.800000
2588.422667	4.300000
2589.860470	-7.000000
2591.301223	-4.200000
2592.736914	2.500000
2594.175554	6.700000
2595.612336	-6.900000
2597.047263	16.400000
2598.485137	17.700000
2599.917954	21.800000
2601.352118	-8.000000
2602.784428	5.100000
2604.218084	4.000000
2605.649887	-15.500000
2607.081436	22.400000
2608.512733	33.600000
2609.942177	0.700000
2611.371369	1.000000
2612.798711	8.900000
2614.227398	0.100000
2615.655834	-1.400000
2617.080822	25.100000
2618.507157	-4.400000
2619.931643	-2.000000
2621.357475	3.900000
2622.779863	18.400000
2624.203597	8.200000
2625.625484	-4.700000
2627.047122	-1.500000
2628.466914	14.300000
2629.888052	21.200000
2631.308940	16.700000
2632.726390	1.000000
2634.146779	5.200000
2635.563731	6.000000
2636.980434	17.900000
2638.396889	-3.300000
2639.813096	-2.000000
2641.229055	9.200000
2642.643173	15.400000
2644.057043	-4.700000
2645.469075	-0.600000
2646.882450	-16.800000
2648.292396	-17.000000
2649.705278	13.100000
2651.114731	2.400000
2652.523938	-14.400000
2653.931309	14.600000
2655.341614	20.600000
2656.750084	10.200000
2658.156718	1.300000
2659.563107	15.300000
2660.967662	0.300000
2662.373561	-2.000000
2663.777627	4.500000
2665.181448	7.600000
2666.585025	5.700000
2667.986771	20.500000
2669.389860	-14.300000
2670.789531	13.000000
2672.190546	7.100000
2673.588145	4.500000
2674.988674	-0.700000
2676.385787	9.800000
2677.784244	18.200000
2679.180874	0.700000
2680.577261	4.700000
2681.973406	7.400000
2683.367725	8.600000
2684.763387	3.500000
2686.155640	-6.600000
2687.549235	23.200000
2688.941006	17.100000
2690.334120	14.500000
2691.725410	-16.300000
2693.114877	9.900000
2694.504104	20.200000
2695.893092	10.300000
2697.283421	5.100000
2698.668767	0.600000
2700.057036	-0.500000
2701.443485	9.900000
2702.829695	10.600000
2704.215666	18.600000
2705.598239	-5.300000
2706.982154	18.100000
2708.365831	11.100000
2709.749269	19.800000
2711.129313	4.700000
2712.510697	-11.200000
2713.890267	4.700000
2715.271177	22.400000
2716.650273	3.000000
2718.027555	4.000000
2719.406178	-3.600000
2720.782988	14.700000
2722.159561	1.100000
2723.535899	-4.600000
2724.910426	8.700000
2726.286293	6.800000
2727.658773	-11.800000
2729.034169	8.200000
2730.404605	6.000000
2731.776382	24.600000
2733.147924	-14.800000
2734.517658	-0.300000
2735.888733	2.600000
2737.257999	13.300000
2738.627032	1.900000
2739.994259	5.500000
2741.361252	-13.000000
2742.728013	3.100000
2744.094542	-19.100000
2745.459265	10.100000
2746.823756	9.400000
2748.188016	4.500000
2749.552043	1.200000
2750.915839	-3.900000
2752.276261	2.900000
2753.639593	14.800000
2754.997983	5.400000
2756.359283	3.100000
2757.717213	14.800000
2759.078051	14.700000
2760.437090	11.000000
2761.792760	28.800000
2763.151338	10.400000
2764.506549	6.500000
2765.861531	-5.000000
2767.214717	6.700000
2768.570809	0.800000
2769.923536	21.900000
2771.276036	-3.100000
2772.628307	6.600000
2773.981916	10.000000
2775.332165	12.700000
2776.680619	-12.300000
2778.031979	7.400000
2779.379979	-4.900000
2780.729317	-4.500000
2782.076863	0.800000
2783.424183	0.800000
2784.771276	19.700000
2786.116578	17.600000
2787.461653	-7.600000
2788.806503	-2.300000
2790.151127	-4.900000
2791.492399	2.000000
2792.835009	-17.100000
2794.177393	-6.900000
2795.519552	10.200000
2796.858362	28.100000
2798.200072	-6.300000
2799.538434	0.500000
2800.878132	-1.200000
2802.216046	9.200000
2803.552175	-9.300000
2804.888080	18.400000
2806.225323	-9.700000
2807.560782	20.600000
2808.896018	-12.200000
2810.229471	20.600000
2811.564261	-0.200000
2812.895711	13.100000
2814.230056	-2.000000
2815.559503	0.800000
2816.890287	4.400000
2818.220849	-1.600000
2819.549632	5.300000
2820.879751	25.600000
2822.208092	-5.800000
2823.536212	12.600000
2824.862554	0.600000
2826.190233	12.400000
2827.514578	2.000000
2828.840260	7.900000
2830.164166	1.100000
2831.487853	13.900000
2832.812875	-10.600000
2834.134567	12.800000
2835.456041	-4.900000
2836.777296	4.300000
2838.098332	-6.400000
2839.417595	-7.100000
2840.738194	1.200000
2842.057022	22.500000
2843.375631	7.800000
2844.692469	10.400000
2846.009090	-7.300000
2847.325494	17.400000
2848.640128	0.700000
2849.956098	11.600000
2851.268747	-14.000000
2852.582731	-2.100000
2853.896499	-14.400000
2855.210050	6.600000
2856.521835	5.600000
2857.831853	5.500000
2859.143206	-9.300000
2860.451244	15.700000
2861.760616	-10.100000
2863.069774	-1.300000
2864.378716	11.000000
2865.685894	16.500000
2866.991310	-8.200000
2868.298060	5.800000
2869.603047	-3.900000
2870.907821	16.900000
2872.210833	11.500000
2873.516726	9.200000
2874.817765	9.400000
2876.120138	7.400000
2877.420751	-13.700000
2878.722698	5.100000
2880.024431	-15.800000
2881.322861	13.600000
2882.622624	13.400000
2883.920630	-4.800000
2885.218424	-7.700000
2886.514462	16.900000
2887.811833	-13.100000
2889.107448	21.300000
2890.402852	-8.800000
2891.698045	11.600000
2892.989941	-13.300000
2894.284713	-1.400000
2895.576188	-4.500000
2896.868996	8.800000
2898.161594	-15.800000
2899.450898	-0.300000
2900.741534	9.900000
2902.030419	-20.100000
2903.320636	19.300000
2904.607562	6.700000
2905.895820	0.900000
2907.182329	-5.900000
2908.468629	-0.400000
2909.754722	1.900000
2911.039066	9.500000
2912.326281	10.600000
2913.608670	-9.900000
2914.892391	14.700000
2916.174366	1.500000
2917.456133	1.200000
2918.736156	-2.100000
2920.019048	18.100000
2921.300195	-1.600000
2922.578060	4.400000
2923.858794	-7.900000
2925.136247	18.300000
2926.413494	0.200000
2927.688999	13.600000
2928.967372	2.700000
2930.240931	4.500000
2931.517357	-18.800000
2932.792042	11.600000
2934.064986	3.000000
2935.339262	22.400000
2936.611798	1.900000
2937.884129	10.400000
2939.153188	15.200000
2940.425112	10.200000
2941.695298	-18.000000
2942.965280	17.600000
2944.235059	-18.700000
2945.503102	-1.500000
2946.769408	-3.200000
2948.035513	9.800000
2949.302947	4.400000
2950.568647	2.900000
2951.834144	-1.200000
2953.099439	15.700000
2954.361469	25.000000
2955.624829	1.500000
2956.887988	13.600000
2958.149415	7.500000
2959.412171	15.800000
2960.673195	3.100000
2961.932489	5.100000
2963.191583	-3.000000
2964.450476	3.700000
2965.709169	-8.600000
2966.967662	9.000000
2968.224426	15.300000
2969.480990	-13.400000
2970.735827	4.600000
2971.991992	15.100000
2973.244903	20.900000
2974.499143	-2.200000
2975.753184	8.700000
2977.005499	-2.300000
2978.257615	9.500000
2979.508007	-3.600000
2980.761254	9.100000
2982.009724	20.300000
2983.261049	28.900000
2984.509124	-13.300000
2985.757003	11.300000
2987.004684	12.700000
2988.252168	3.300000
2989.497931	-21.800000
2990.743498	8.600000
2991.990392	1.800000
2993.234042	11.900000
2994.479020	4.000000
2995.720754	7.600000
2996.965340	12.200000
2998.208207	-5.200000
2999.447833	10.800000
3000.690309	-3.100000
3001.929545	-2.800000
3003.170109	10.800000
3004.408957	-5.600000
3005.647609	14.100000
3006.884546	-3.700000
3008.122811	11.000000
3009.359360	14.200000
3010.595716	6.900000
3011.831878	6.200000
3013.066326	-1.200000
3014.300582	-6.000000
3015.534644	15.400000
3016.766994	-7.100000
3017.997632	-7.100000
3019.231116	9.700000
3020.462888	6.900000
3021.692950	9.800000
3022.922819	5.600000
3024.150980	15.700000
3025.380466	19.400000
3026.608243	9.600000
3027.835829	23.900000
3029.064742	-15.000000
3030.288912	6.000000
3031.515925	14.100000
3032.739714	5.100000
3033.964830	11.300000
3035.188239	1.000000
3036.411458	-1.500000
3037.632972	4.200000
3038.857327	0.800000
3040.076947	15.800000
3041.297893	-19.100000
3042.518650	17.800000
3043.737703	6.300000
3044.958081	2.100000
3046.175243	-0.300000
3047.393731	17.800000
3048.610516	12.900000
3049.827114	2.100000
3051.043523	2.400000
3052.256720	27.000000
3053.472754	12.000000
3054.685576	6.000000
3055.901235	5.200000
3057.112171	1.000000
3058.324432	-8.200000
3059.536507	-8.700000
3060.748394	-13.100000
3061.958585	3.700000
3063.168589	-7.400000
3064.378407	7.500000
3065.586529	-9.800000
3066.794466	3.700000
3068.000707	21.900000
3069.208273	-1.400000
3070.414144	6.500000
3071.619831	14.400000
3072.825332	-8.500000
3074.029140	6.100000
3075.234272	-4.000000
3076.437711	7.600000
3077.639459	-10.800000
3078.841022	8.700000
3080.042402	6.700000
3081.243598	-0.200000
3082.443104	1.800000
3083.642427	21.000000
3084.843073	16.000000
3086.042029	6.100000
3087.237791	6.100000
3088.436382	15.700000
3089.631779	4.300000
3090.828499	2.800000
3092.022027	-9.900000
3093.218383	4.300000
3094.413053	2.800000
3095.604532	3.800000
3096.800342	10.200000
3097.991458	10.300000
3099.183898	-1.100000
3100.373150	12.400000
3101.565227	-7.400000
3102.755621	-0.500000
3103.942829	4.500000
3105.131360	23.500000
3106.321212	-0.500000
3107.507881	16.000000
3108.694369	-11.500000
3109.880679	-3.100000
3111.068310	-1.200000
3112.252759	16.700000
3113.435529	-0.300000
3114.621121	24.900000
3115.805034	5.200000
3116.987268	3.100000
3118.169323	-14.000000
3119.351200	12.000000
3120.532899	6.000000
3121.712921	9.300000
3122.891266	-14.500000
3124.072431	12.700000
3125.250421	-10.500000
3126.428235	13.200000
3127.605871	4.700000
3128.781832	7.400000
3129.957616	-18.300000
3131.134722	6.700000
3132.310153	2.800000
3133.483911	7.100000
3134.655996	-13.000000
3135.829403	11.200000
3137.002633	2.800000
3138.174192	3.200000
3139.347071	-14.400000
3140.516783	25.300000
3141.687816	3.500000
3142.857179	6.400000
3144.024871	-5.500000
3145.195379	9.200000
3146.361229	6.700000
3147.531387	1.900000
3148.696889	-16.500000
3149.862216	15.300000
3151.027370	1.400000
3152.192351	28.300000
3153.358651	-3.000000
3154.520299	1.500000
3155.683266	0.900000
3156.846061	3.800000
3158.008683	20.800000
3159.169640	19.800000
3160.330424	1.900000
3161.491036	-0.600000
3162.649984	12.300000
3163.808761	12.000000
3164.967366	4.800000
3166.125798	0.500000
3167.284060	-9.700000
3168.440659	16.800000
3169.595597	-10.000000
3170.751854	33.500000
3171.906450	-5.900000
3173.060876	24.200000
3174.213642	-3.900000
3175.366237	4.800000
3176.518663	2.300000
3177.670919	4.800000
3178.823004	-14.500000
3179.971944	4.100000
3181.123690	5.800000
3182.273778	-8.600000
3183.422210	15.500000
3184.570472	-0.300000
3185.718566	-5.100000
3186.866491	13.000000
3188.012760	-5.100000
3189.158861	14.700000
3190.303308	-3.000000
3191.447587	20.200000
3192.591698	-13.700000
3193.737126	7.200000
3194.879416	7.900000
3196.021539	18.200000
3197.163494	9.500000
3198.305282	-1.800000
3199.446903	16.000000
3200.585389	18.500000
3201.725192	-17.300000
3202.866313	19.900000
3204.004299	4.100000
3205.140636	-12.200000
3206.276807	14.200000
3207.414295	8.700000
3208.550135	-20.200000
3209.687292	18.300000
3210.819836	-18.700000
3211.956662	23.700000
3213.088876	0.400000
3214.222407	10.800000
3215.355774	-7.200000
3216.486013	3.900000
3217.619050	-14.800000
3218.748961	10.400000
3219.880188	-7.700000
3221.008291	13.300000
3222.139190	-5.700000
3223.268445	0.100000
3224.396057	-20.000000
3225.520546	30.800000
3226.649311	-12.700000
3227.774954	6.900000
3228.900435	-17.000000
3230.024274	-1.500000
3231.150907	-5.500000
3232.272943	1.000000
3233.396295	6.400000
3234.519485	13.100000
3235.642512	5.000000
3236.763901	4.700000
3237.885127	4.300000
3239.004716	6.300000
3240.124143	-7.300000
3241.241932	-3.500000
3242.362513	-3.400000
3243.479981	15.600000
3244.597288	13.200000
3245.714435	3.500000
3246.829946	-2.300000
3247.946771	13.600000
3249.060487	-7.500000
3250.176992	0.700000
3251.291863	4.400000
3252.403625	10.700000
3253.515227	2.400000
3254.628145	8.600000
3255.740903	-2.800000
3256.850555	8.200000
3257.961522	-10.700000
3259.072330	6.800000
3260.181506	-8.400000
3261.289052	10.900000
3262.397911	9.400000
3263.506613	3.300000
3264.612212	2.400000
3265.719125	14.400000
3266.824409	1.100000
3267.931007	24.100000
3269.034505	13.900000
3270.139318	-6.100000
3271.243973	-0.100000
3272.345529	4.600000
3273.446929	-7.000000
3274.549643	12.000000
3275.652201	9.400000
3276.751662	3.000000
3277.853907	-15.900000
3278.953056	26.600000
3280.050581	-4.900000
3281.147950	0.200000
3282.248101	1.900000
3283.345160	12.800000
3284.442063	5.800000
3285.538811	19.600000
3286.631001	1.000000
3287.727439	2.900000
3288.822255	-16.100000
3289.916917	-0.600000
3291.009957	-1.200000
3292.102842	14.700000
3293.194108	10.900000
3294.286685	6.600000
3295.377643	12.400000
3296.466981	12.500000
3297.556166	6.300000
3298.646664	7.500000
3299.734077	12.000000
3300.821337	11.600000
3301.909910	13.700000
3302.998331	13.600000
3304.082204	-8.300000
3305.170319	10.100000
3306.255352	8.500000
3307.338770	13.500000
3308.423500	-9.800000
3309.506614	-3.700000
3310.591041	-5.800000
3311.672389	28.300000
3312.755049	16.100000
3313.836095	11.400000
3314.916990	-6.500000
3315.996271	11.000000
3317.075402	-5.700000
3318.155845	21.200000
3319.233213	6.900000
3320.311893	17.400000
3321.388961	0.500000
3322.465880	19.500000
3323.541187	-20.300000
3324.616345	3.900000
3325.692814	-6.400000
3326.766213	11.800000
3327.839463	-22.300000
3328.914023	0.600000
3329.986975	6.300000
3331.058318	3.000000
3332.130972	-10.100000
3333.200560	16.600000
3334.271458	-17.700000
3335.340749	16.900000
3336.411351	10.400000
3337.480346	17.000000
3338.547735	-0.600000
3339.613519	26.300000
3340.683529	5.700000
3341.750476	9.700000
3342.814361	-9.700000
3343.881014	19.300000
3344.946062	3.100000
3346.009507	1.600000
3347.072806	8.100000
3348.135958	6.600000
3349.198964	-8.700000
3350.261824	22.100000
3351.323082	5.400000
3352.381283	35.000000
3353.443704	-5.700000
3354.503070	7.900000
3355.562290	-7.300000
3356.622820	-1.100000
3357.678840	-10.700000
3358.737624	4.600000
3359.791901	9.600000
3360.848942	-10.700000
3361.904384	5.500000
3362.961136	26.500000
3364.016289	-24.500000
3365.069845	14.300000
3366.121805	-7.800000
3367.176526	4.000000
3368.228198	5.000000
3369.279727	-10.700000
3370.332564	0.600000
3371.382354	12.500000
3372.433453	16.700000
3373.481506	17.400000
3374.532318	-0.600000
3375.580086	1.300000
3376.627711	-1.800000
3377.675193	4.500000
3378.721083	11.900000
3379.768281	19.400000
3380.812437	-9.400000
3381.859351	-9.500000
3382.904673	5.700000
3383.946954	12.200000
3384.989095	-4.300000
3386.032543	6.700000
3387.075850	-4.800000
3388.117568	23.600000
3389.159144	-1.500000
3390.200579	-0.700000
3391.240426	7.900000
3392.278684	12.500000
3393.318250	-14.200000
3394.357676	9.500000
3395.395514	12.800000
3396.431765	-2.400000
3397.467877	2.900000
3398.505296	0.200000
3399.539682	4.800000
3400.575375	2.300000
3401.610929	4.800000
3402.643452	17.600000
3403.678728	6.100000
3404.710973	13.400000
3405.743080	4.300000
3406.773603	22.400000
3407.805433	-3.000000
3408.837125	14.400000
3409.865789	6.400000
3410.894316	18.700000
3411.924149	6.600000
3412.953845	3.300000
3413.980515	-1.100000
3415.008492	12.800000
3416.033444	11.500000
3417.061146	6.000000
3418.085825	-5.700000
3419.111810	17.200000
3420.136215	-8.000000
3421.160484	1.800000
3422.183174	5.200000
3423.205728	2.400000
3424.229588	-18.200000
3425.250428	12.000000
3426.271132	-9.600000
3427.293143	12.800000
3428.312135	11.700000
3429.330991	10.100000
3430.351154	1.200000
3431.368300	8.900000
