-117.888313	21.800000
-115.218713	31.600000
-112.552048	20.600000
-109.886135	25.400000
-107.223154	25.700000
-104.558744	25.600000
-101.897264	46.100000
-99.234355	19.100000
-96.576552	3.000000
-93.917320	39.600000
-91.258836	30.000000
-88.603276	46.800000
-85.946288	27.900000
-83.294398	17.500000
-80.641078	21.200000
-77.990677	23.000000
-75.338847	43.000000
-72.692108	15.100000
-70.043940	22.700000
-67.396514	33.900000
-64.752002	35.900000
-62.106062	28.500000
-59.465203	14.600000
-56.822915	22.600000
-54.183536	26.600000
-51.542727	45.800000
-48.902659	36.100000
-46.267663	41.800000
-43.631239	29.900000
-40.997717	46.400000
-38.362767	43.400000
-35.732882	31.700000
-33.099405	50.100000
-30.470990	53.800000
-27.843309	50.500000
-25.214199	58.700000
-22.590146	45.600000
-19.962504	70.100000
-17.339915	87.100000
-14.718058	144.100000
-12.096931	217.700000
-9.476534	515.500000
-6.859026	1585.400000
-4.240089	5131.400000
-1.624037	11401.700000
0.991286	13325.700000
3.605882	7238.900000
6.217595	871.400000
8.830737	128.100000
11.438845	111.200000
14.050535	56.300000
16.657194	59.100000
19.265281	45.200000
21.872644	49.800000
24.474982	41.700000
27.080898	39.400000
29.681792	59.000000
32.284114	44.800000
34.881419	18.800000
37.482299	44.000000
40.078164	40.600000
42.675458	38.100000
45.272032	27.000000
47.863597	60.000000
50.456590	46.700000
53.046722	71.100000
55.638282	39.600000
58.226982	46.300000
60.817109	27.700000
63.402237	26.300000
65.988793	45.400000
68.574635	31.100000
71.157623	52.100000
73.742037	55.000000
76.319323	55.000000
78.900175	51.500000
81.478178	42.600000
84.055471	58.600000
86.634190	41.000000
89.207927	56.500000
91.783092	82.600000
94.355413	41.600000
96.927026	65.600000
99.495799	65.100000
102.065999	61.800000
104.633361	79.200000
107.202148	61.600000
109.768099	84.300000
112.331215	112.800000
114.897887	140.400000
117.455338	162.800000
120.018474	196.500000
122.576650	243.700000
125.138381	364.400000
127.695155	500.400000
130.253356	768.200000
132.806603	1155.300000
135.359153	1717.400000
137.915253	2393.400000
140.466405	3353.000000
143.016860	4249.100000
145.566617	5011.900000
148.113555	5652.400000
150.659798	6005.400000
153.207466	6323.900000
155.754438	6439.700000
158.296475	6321.800000
160.837818	6342.600000
163.378468	6301.700000
165.920544	6259.900000
168.459808	6230.400000
170.996264	6205.600000
173.532028	6163.500000
176.069218	6033.700000
178.605717	6020.300000
181.139410	6043.000000
183.670299	5897.900000
186.200501	5845.700000
188.732127	5826.300000
191.260952	5903.200000
193.786978	5855.800000
196.312318	5923.300000
198.839083	5998.100000
201.363052	5989.300000
203.886336	6052.600000
206.408935	6132.300000
208.928741	6064.800000
211.447864	6031.300000
213.966304	6010.800000
216.486168	6045.500000
218.999031	6132.600000
221.515425	6101.700000
224.031137	6127.800000
226.541959	6148.100000
229.054206	6159.600000
231.563671	6148.100000
234.072457	6146.500000
236.580564	6222.500000
239.090096	6178.600000
241.594747	6193.200000
244.098722	6161.300000
246.604121	6270.900000
249.104645	6391.700000
251.608693	6474.400000
254.105769	6474.300000
256.606369	6580.300000
259.104197	6484.500000
261.601352	6443.400000
264.097834	6470.700000
266.589453	6467.900000
269.084592	6370.300000
271.576964	6399.500000
274.068666	6451.100000
276.557605	6374.100000
279.047968	6359.300000
281.535568	6326.900000
284.020409	6333.900000
286.508765	6320.300000
288.990181	6323.600000
291.475111	6288.900000
293.955196	6301.300000
296.438793	6239.300000
298.917547	6323.800000
301.397725	6323.900000
303.875150	6343.100000
306.351912	6399.700000
308.828011	6439.800000
311.301361	6445.400000
313.774049	6660.100000
316.246076	6772.300000
318.717442	6945.000000
321.186063	7021.600000
323.654026	7115.100000
326.123410	6912.200000
328.587972	6782.000000
331.056038	6798.200000
333.519284	6781.400000
335.981872	6804.400000
338.443804	6687.600000
340.905079	6811.000000
343.363620	6811.100000
345.823583	6833.000000
348.280813	6869.800000
350.737389	6881.700000
353.193311	7004.500000
355.646503	6914.800000
358.101118	6931.600000
360.550931	6995.700000
363.004240	6909.900000
365.452751	6961.900000
367.900610	6882.400000
370.349892	6975.900000
372.794380	7011.200000
375.240290	6911.100000
377.685550	6835.400000
380.128092	6895.800000
382.569986	6941.400000
385.011233	6938.900000
387.449764	7006.200000
389.889717	7106.800000
392.326956	7137.000000
394.761483	7118.000000
397.199498	7178.300000
399.632736	7137.800000
402.067395	7099.200000
404.497282	7063.800000
406.930654	7088.500000
409.359256	7207.000000
411.787216	7088.500000
414.216598	7187.000000
416.641214	7107.500000
419.067252	7108.900000
421.492649	6979.100000
423.917406	7080.800000
426.337405	6948.100000
428.758825	7023.300000
431.177548	7039.300000
433.597692	6918.800000
436.015141	6929.300000
438.434010	6940.900000
440.850186	6874.400000
443.261614	6914.600000
445.676520	6887.300000
448.088735	6823.000000
450.500316	6955.900000
452.911263	7057.600000
455.319524	7042.400000
457.727152	6974.100000
460.134148	6983.100000
462.540513	6951.200000
464.944195	6960.700000
467.347247	6877.300000
469.749669	6919.900000
472.151461	6831.200000
474.550576	6819.900000
476.951110	6876.100000
479.351015	6917.000000
481.746197	6763.600000
484.144846	6868.500000
486.538775	6770.900000
488.932078	6761.600000
491.324755	6759.400000
493.716807	6730.000000
496.110277	6732.300000
498.499035	6756.400000
500.885127	6656.600000
503.272639	6659.900000
505.659528	6605.100000
508.043753	6598.200000
510.429396	6590.000000
512.812378	6523.300000
515.192699	6509.200000
517.574439	6559.400000
519.953520	6493.800000
522.334020	6482.100000
524.711862	6385.500000
527.087049	6427.800000
529.461618	6310.400000
531.837605	6330.400000
534.210940	6306.700000
536.585692	6252.400000
538.955759	6168.500000
541.325210	6292.600000
543.696079	6244.100000
546.062268	6173.300000
548.429875	6240.900000
550.794836	6191.800000
553.159184	6211.200000
555.522919	6211.000000
557.888072	6207.700000
560.248553	6194.600000
562.610452	6255.500000
564.969710	6248.600000
567.326331	6257.400000
569.686396	6349.400000
572.039770	6509.300000
574.396589	6543.500000
576.750773	6592.100000
579.104349	6702.200000
581.457316	6711.900000
583.807651	6714.100000
586.159404	6736.700000
588.504480	6699.400000
590.855020	6737.100000
593.198886	6772.500000
595.548214	6788.100000
597.892893	6854.600000
600.234948	6865.300000
602.578420	6819.500000
604.919269	6843.300000
607.259516	6711.500000
609.597142	6776.100000
611.938203	6686.000000
614.274626	6662.900000
616.612466	6522.700000
618.947689	6489.800000
621.280296	6393.900000
623.614319	6283.300000
625.945728	6245.300000
628.276539	6162.700000
630.606753	6067.100000
632.936368	6164.800000
635.261360	6036.600000
637.591794	6157.500000
639.917607	6124.500000
642.240812	6137.000000
644.565434	6164.800000
646.887450	6131.900000
649.208872	6199.500000
651.527692	6249.800000
653.847927	6169.400000
656.167569	6243.500000
658.484610	6277.000000
660.801059	6283.000000
663.114910	6263.900000
665.430177	6319.600000
667.742847	6311.800000
670.056932	6264.600000
672.366417	6370.800000
674.677318	6334.800000
676.985626	6296.300000
679.293346	6275.200000
681.602480	6235.200000
683.907022	6142.700000
686.210978	6046.700000
688.514348	6104.200000
690.819132	6109.500000
693.119330	6138.400000
695.420942	6226.700000
697.721970	6086.800000
700.018415	6130.300000
702.316276	6149.600000
704.613553	6102.500000
706.910247	6123.800000
709.202365	6155.000000
711.497894	6108.000000
713.788849	6154.000000
716.081219	6118.800000
718.371014	6082.200000
720.660228	6156.900000
722.948863	6110.600000
725.234925	6110.200000
727.522402	6087.700000
729.807307	6139.600000
732.091635	6130.000000
734.373394	6086.800000
736.656567	5978.900000
738.939163	6085.800000
741.217203	6050.400000
743.496658	5969.100000
745.775536	6041.700000
748.053840	5994.300000
750.327594	5874.700000
752.602761	5804.100000
754.877355	5879.500000
757.149390	5831.900000
759.422838	5857.400000
761.693728	5758.300000
763.962062	5836.800000
766.231809	5787.400000
768.499002	5800.800000
770.765624	5810.300000
773.031676	5782.000000
775.295177	5844.400000
777.560091	5774.200000
779.824435	5810.800000
782.084250	5858.400000
784.345477	5749.500000
786.606137	5822.300000
788.864251	5878.800000
791.119820	5802.600000
793.378780	5990.000000
795.631241	6004.100000
797.889068	6010.300000
800.142377	6043.600000
802.393146	5970.600000
804.645327	6021.200000
806.894969	6046.400000
809.146024	6016.100000
811.392567	5872.400000
813.640522	5816.500000
815.885943	5754.600000
818.132775	5788.900000
820.379046	5745.100000
822.620812	5651.400000
824.865962	5580.200000
827.104639	5574.700000
829.346698	5560.600000
831.584259	5542.000000
833.823232	5533.700000
836.059678	5562.100000
838.297535	5486.400000
840.532867	5491.300000
842.765676	5626.100000
844.999896	5521.100000
847.231593	5500.700000
849.462736	5547.400000
851.693324	5465.500000
853.923358	5467.900000
856.152838	5429.800000
858.377836	5400.100000
860.606209	5452.600000
862.830102	5435.500000
865.055407	5361.300000
867.276236	5439.100000
869.500437	5345.000000
871.720165	5299.800000
873.941303	5305.100000
876.161891	5283.800000
878.379970	5300.800000
880.599458	5240.400000
882.814480	5252.000000
885.028955	5262.300000
887.242881	5210.400000
889.456261	5136.200000
891.669093	5069.800000
893.881379	4996.700000
896.091162	5067.400000
898.300400	5011.900000
900.509093	5052.400000
902.715287	5094.600000
904.922890	5103.200000
907.127995	5091.400000
909.332557	5125.500000
911.534624	5163.700000
913.738100	5161.000000
915.939082	5187.700000
918.139522	5149.700000
920.341371	5179.500000
922.536829	5324.200000
924.735646	5306.600000
926.930024	5350.000000
929.127760	5363.300000
931.321060	5488.400000
933.515769	5504.900000
935.707992	5570.600000
937.899676	5619.000000
940.090823	5652.900000
942.279487	5586.500000
944.467615	5516.200000
946.653262	5557.300000
948.842261	5523.500000
951.026837	5631.200000
953.210878	5662.700000
955.398269	5645.600000
957.577356	5671.300000
959.759794	5683.300000
961.941698	5739.200000
964.121127	5808.000000
966.298084	5817.800000
968.476449	5776.100000
970.656221	5813.500000
972.829644	5818.100000
975.006413	5818.700000
977.178775	5825.500000
979.352545	5872.600000
981.521911	5825.300000
983.694621	5865.700000
985.864866	5838.200000
988.034582	5876.600000
990.203769	5901.700000
992.368559	5909.000000
994.536690	5863.800000
996.700427	5847.600000
998.865570	5872.400000
1001.028254	5851.000000
1003.190413	5850.900000
1005.350115	5839.300000
1007.509292	5718.000000
1009.669876	5760.200000
1011.828006	5754.700000
1013.985611	5676.900000
1016.142693	5640.700000
1018.299251	5672.300000
1020.451430	5782.700000
1022.605016	5761.600000
1024.758080	5677.200000
1026.908695	5733.300000
1029.060717	5702.800000
1031.208365	5774.600000
1033.359345	5853.600000
1035.505954	5896.500000
1037.652044	5892.600000
1039.797616	5944.600000
1041.944593	6009.600000
1044.085281	6101.900000
1046.229299	6058.600000
1048.370876	6133.400000
1050.511937	6198.100000
1052.654402	6156.900000
1054.790588	6092.600000
1056.930099	6065.100000
1059.065256	6020.600000
1061.203737	5986.100000
1063.337864	5911.700000
1065.471478	5885.800000
1067.606497	5767.000000
1069.737166	5726.100000
1071.869240	5689.900000
1073.998885	5650.600000
1076.128018	5691.600000
1078.256639	5654.400000
1080.384749	5628.500000
1082.510433	5630.300000
1084.635607	5576.400000
1086.762185	5647.800000
1088.884425	5643.100000
1091.008070	5734.300000
1093.127380	5709.600000
1095.251920	5737.200000
1097.370214	5736.600000
1099.489913	5805.500000
1101.607193	5792.000000
1103.723967	5790.000000
1105.840234	5781.500000
1107.954085	5809.300000
1110.069341	5747.800000
1112.180273	5734.200000
1114.294518	5747.100000
1116.404442	5813.000000
1118.515770	5866.700000
1120.626593	5806.400000
1122.733100	5761.100000
1124.842917	5857.500000
1126.948419	5915.700000
1129.055324	5874.100000
1131.156014	5822.600000
1133.261916	5766.300000
1135.363509	5661.200000
1137.466505	5735.500000
1139.569000	5612.200000
1141.665288	5615.100000
1143.766784	5594.900000
1145.863976	5686.300000
1147.960671	5572.200000
1150.056867	5519.200000
1152.152566	5593.400000
1154.247766	5611.700000
1156.340570	5632.400000
1158.434777	5665.700000
1160.522792	5612.800000
1162.616005	5752.200000
1164.703030	5703.900000
1166.793354	5654.500000
1168.879391	5755.100000
1170.968725	5782.200000
1173.051878	5766.700000
1175.136433	5767.600000
1177.222390	5666.300000
1179.304065	5609.600000
1181.387142	5612.900000
1183.467833	5516.900000
1185.548032	5470.500000
1187.627740	5439.300000
1189.706957	5365.000000
1191.783792	5312.500000
1193.858246	5290.300000
1195.935991	5250.500000
1198.009467	5208.100000
1200.084343	5160.300000
1202.154952	5166.000000
1204.226962	5154.300000
1206.296597	5162.700000
1208.367632	5175.200000
1210.438179	5138.000000
1212.504465	5121.300000
1214.572152	5096.900000
1216.637467	5134.100000
1218.704182	5172.800000
1220.766641	5171.500000
1222.832385	5186.100000
1224.893875	5363.700000
1226.956766	5357.700000
1229.017289	5322.400000
1231.077328	5230.500000
1233.136885	5321.000000
1235.194076	5374.100000
1237.250786	5408.000000
1239.305132	5400.200000
1241.362760	5459.900000
1243.418025	5438.400000
1245.469049	5452.400000
1247.521473	5457.900000
1249.573417	5505.000000
1251.623003	5598.400000
1253.672110	5484.200000
1255.720739	5572.100000
1257.768889	5667.800000
1259.816560	5694.300000
1261.860001	5751.300000
1263.906718	5737.300000
1265.951081	5798.400000
1267.994968	5762.400000
1270.036503	5760.100000
1272.075689	5628.200000
1274.118148	5604.500000
1276.156384	5581.000000
1278.196019	5528.500000
1280.235179	5446.500000
1282.270120	5556.700000
1284.306460	5524.600000
1286.340456	5505.800000
1288.375849	5537.600000
1290.407030	5518.800000
1292.439608	5489.600000
1294.471715	5476.800000
1296.501481	5539.600000
1298.532645	5589.300000
1300.559601	5625.300000
1302.587955	5615.800000
1304.612104	5692.700000
1306.639519	5720.400000
1308.662731	5748.900000
1310.687341	5801.300000
1312.709617	5807.100000
1314.733290	5761.600000
1316.754630	5746.800000
1318.775502	5822.300000
1320.795907	5812.300000
1322.812119	5904.300000
1324.829728	5768.000000
1326.845009	5808.300000
1328.863549	5872.700000
1330.877900	5892.700000
1332.889925	5884.100000
1334.905207	5893.400000
1336.916304	5851.800000
1338.928798	5874.400000
1340.937109	5937.800000
1342.948675	5900.900000
1344.954203	5984.900000
1346.962986	5935.800000
1348.967591	5914.200000
1350.975450	5862.500000
1352.982847	5909.700000
1354.984213	5778.800000
1356.986975	5806.500000
1358.989278	5813.900000
1360.991121	5762.900000
1362.992504	5753.000000
1364.991574	5743.500000
1366.990185	5725.500000
1368.988338	5719.100000
1370.986032	5659.200000
1372.979564	5616.000000
1374.974491	5682.700000
1376.968962	5762.600000
1378.962976	5786.300000
1380.954683	5823.900000
1382.945935	5752.300000
1384.934881	5786.600000
1386.925222	5762.300000
1388.915108	5707.900000
1390.902690	5736.800000
1392.889819	5703.900000
1394.874646	5677.800000
1396.860868	5609.900000
1398.844790	5619.400000
1400.828259	5542.800000
1402.811275	5542.000000
1404.791994	5580.100000
1406.774107	5555.300000
1408.753924	5563.800000
1410.733289	5612.800000
1412.708516	5660.700000
1414.686981	5659.700000
1416.663153	5670.700000
1418.638876	5722.800000
1420.614149	5659.400000
1422.587131	5689.900000
1424.559665	5683.200000
1426.531751	5695.500000
1428.503390	5712.100000
1430.470900	5800.600000
1432.443484	5836.000000
1434.408262	5788.400000
1436.378113	5698.600000
1438.343840	5739.300000
1440.310959	5696.100000
1442.275795	5602.300000
1444.236511	5702.600000
1446.202295	5638.100000
1448.162124	5607.100000
1450.123347	5509.900000
1452.085962	5429.400000
1454.044462	5389.900000
1456.002519	5450.800000
1457.960135	5481.300000
1459.917308	5445.100000
1461.872206	5461.500000
1463.828497	5477.100000
1465.782513	5474.000000
1467.736088	5444.800000
1469.687391	5454.500000
1471.640087	5512.200000
1473.590510	5432.800000
1475.540495	5556.900000
1477.490041	5530.100000
1479.437318	5544.400000
1481.382327	5515.100000
1483.328729	5516.100000
1485.274693	5504.300000
1487.220220	5484.900000
1489.163481	5473.000000
1491.106307	5449.600000
1493.046869	5363.700000
1494.988822	5350.100000
1496.928513	5377.800000
1498.867770	5351.900000
1500.806591	5358.900000
1502.743153	5418.400000
1504.681106	5523.700000
1506.616800	5558.400000
1508.552061	5570.700000
1510.485066	5497.100000
1512.417638	5510.400000
1514.349778	5542.200000
1516.281486	5544.400000
1518.210940	5630.800000
1520.141785	5679.100000
1522.072198	5730.400000
1523.998539	5841.600000
1525.926271	5896.000000
1527.851752	5963.900000
1529.776804	6000.600000
1531.701427	6120.900000
1533.625621	6090.500000
1535.547567	6122.600000
1537.470904	6185.100000
1539.391994	6217.600000
1541.310840	6329.800000
1543.231076	6461.000000
1545.149069	6585.200000
1547.066635	6808.800000
1548.981959	7083.900000
1550.898673	7377.100000
1552.811332	7804.000000
1554.727195	8144.600000
1556.640818	8725.900000
1558.552203	9154.100000
1560.464978	9366.000000
1562.373703	9512.900000
1564.283817	9668.200000
1566.193508	9489.800000
1568.102776	9330.700000
1570.009810	8953.500000
1571.914611	8450.800000
1573.820801	8041.300000
1575.724759	7656.200000
1577.628296	7282.600000
1579.531413	7087.600000
1581.432300	6928.300000
1583.334576	6690.800000
1585.234624	6570.700000
1587.136059	6422.800000
1589.033461	6242.600000
1590.930444	6189.700000
1592.827009	6091.100000
1594.724962	6036.600000
1596.617080	5974.300000
1598.512391	5852.800000
1600.407285	5878.100000
1602.299957	5796.000000
1604.192212	5855.000000
1606.082248	5813.500000
1607.971868	5824.200000
1609.861073	5742.800000
1611.749863	5794.900000
1613.636435	5747.400000
1615.524395	5697.600000
1617.408338	5723.300000
1619.293668	5690.600000
1621.178585	5728.100000
1623.061288	5709.100000
1624.945378	5705.600000
1626.825456	5688.700000
1628.706922	5654.900000
1630.586177	5618.200000
1632.466818	5582.600000
1634.341655	5693.900000
1636.221473	5697.600000
1638.097287	5713.800000
1639.972690	5772.700000
1641.849479	5773.500000
1643.720472	5865.700000
1645.594646	5869.200000
1647.464821	5824.400000
1649.338178	5926.600000
1651.209331	5844.000000
1653.078282	5870.200000
1654.948618	5902.800000
1656.814962	5875.400000
1658.682691	5960.400000
1660.548221	5928.200000
1662.415137	5983.500000
1664.278064	5955.800000
1666.142376	5865.200000
1668.004492	5929.200000
1669.866203	5914.600000
1671.729300	5930.000000
1673.590201	5928.700000
1675.448910	5872.200000
1677.307215	5878.800000
1679.166905	5910.600000
1681.020827	5873.200000
1682.877923	5818.900000
1684.734616	5750.300000
1686.587332	5655.300000
1688.443220	5677.700000
1690.295134	5671.900000
1692.146647	5685.000000
1693.997759	5666.400000
1695.848471	5583.800000
1697.698782	5604.600000
1699.546908	5617.000000
1701.396419	5642.200000
1703.240181	5551.100000
1705.088892	5574.000000
1706.931857	5585.600000
1708.777989	5544.700000
1710.620158	5504.000000
1712.465493	5495.000000
1714.305087	5439.700000
1716.146065	5484.200000
1717.988426	5555.800000
1719.826831	5534.700000
1721.666619	5569.400000
1723.504232	5631.700000
1725.341449	5614.300000
1727.176493	5669.700000
1729.012920	5606.200000
1730.847175	5520.800000
1732.681035	5501.900000
1734.514501	5504.100000
1736.344022	5418.500000
1738.176701	5314.000000
1740.005436	5322.200000
1741.837328	5278.000000
1743.665278	5326.100000
1745.492837	5306.000000
1747.320003	5281.000000
1749.146778	5342.000000
1750.973161	5333.600000
1752.795608	5337.600000
1754.621210	5273.000000
1756.442877	5348.600000
1758.265926	5342.200000
1760.086813	5301.000000
1761.907312	5305.400000
1763.729191	5374.900000
1765.545372	5292.000000
1767.364704	5372.300000
1769.180109	5326.100000
1770.998664	5372.100000
1772.813294	5300.200000
1774.627537	5320.300000
1776.441394	5334.500000
1778.254864	5349.900000
1780.066181	5290.500000
1781.878878	5301.300000
1783.691190	5326.500000
1785.499584	5239.000000
1787.309358	5214.400000
1789.115218	5187.900000
1790.924223	5252.200000
1792.729315	5271.600000
1794.535788	5258.400000
1796.341877	5247.200000
1798.144055	5233.000000
1799.949378	5265.400000
1801.750792	5257.400000
1803.553586	5186.900000
1805.352474	5186.200000
1807.152743	5118.300000
1808.952630	5153.800000
1810.750375	5116.700000
1812.547740	5136.300000
1814.344725	5146.000000
1816.141329	5189.000000
1817.935794	5222.900000
1819.731638	5219.800000
1821.521827	5212.400000
1823.316913	5174.800000
1825.106347	5153.300000
1826.898917	5101.900000
1828.689352	5045.200000
1830.477653	5074.000000
1832.269089	5084.800000
1834.054879	5031.300000
1835.842049	5080.200000
1837.627087	5029.800000
1839.415259	4927.200000
1841.199545	4896.200000
1842.981701	4869.100000
1844.765237	4882.600000
1846.546644	4881.300000
1848.329430	4905.300000
1850.108335	4971.100000
1851.888620	4859.800000
1853.666778	4907.400000
1855.446315	4861.300000
1857.223727	4866.800000
1858.999015	4919.200000
1860.775681	4844.600000
1862.550225	4882.700000
1864.326147	4906.300000
1866.096448	4898.300000
1867.869877	4913.400000
1869.641186	4983.100000
1871.412124	5036.700000
1873.184440	5016.500000
1874.951142	5108.600000
1876.720970	5071.200000
1878.486934	5162.700000
1880.256021	5165.400000
1882.021247	5131.900000
1883.786105	5090.600000
1885.552340	5101.300000
1887.314716	5094.000000
1889.076725	5152.900000
1890.838366	5186.700000
1892.599641	5207.700000
1894.360548	5252.800000
1896.121089	5248.400000
1897.879520	5273.600000
1899.637585	5206.700000
1901.393543	5204.500000
1903.150877	5152.500000
1904.907846	5099.500000
1906.662708	5041.300000
1908.415466	4973.600000
1910.167859	4993.200000
1911.921629	4958.300000
1913.673295	4896.500000
1915.422859	4899.500000
1917.173798	4915.000000
1918.924375	4923.400000
1920.671112	4969.100000
1922.419226	4918.700000
1924.165240	4897.700000
1925.912629	4881.500000
1927.657921	4854.900000
1929.401115	4877.000000
1931.145684	4895.900000
1932.888158	4916.700000
1934.630271	4995.300000
1936.372024	5062.700000
1938.113417	5084.900000
1939.852717	5050.700000
1941.591658	5030.300000
1943.330240	5118.400000
1945.066731	5090.200000
1946.802864	5062.450000
1948.540371	5034.700000
1950.274056	5006.400000
1952.009116	4936.900000
1953.742087	4977.100000
1955.474702	4938.300000
1957.206961	4951.900000
1958.938863	4938.200000
1960.668679	4996.500000
1962.396410	4970.700000
1964.125516	4979.400000
1965.854267	4997.400000
1967.580934	5070.100000
1969.307247	5081.400000
1971.034933	5033.600000
1972.757083	4954.100000
1974.482334	4984.400000
1976.203778	4955.600000
1977.928323	5081.800000
1979.650787	5043.200000
1981.369449	5049.100000
1983.091209	4962.500000
1984.809167	4956.800000
1986.528498	4937.500000
1988.244030	4966.200000
1989.964382	4950.800000
1991.680936	4915.400000
1993.393693	5030.100000
1995.109546	5038.800000
1996.823327	5062.700000
1998.536758	5051.800000
2000.248118	5102.600000
2001.960850	5168.000000
2003.669792	5189.100000
2005.381826	5244.000000
2007.088352	5298.600000
2008.797969	5236.800000
2010.505520	5369.200000
2012.212722	5275.800000
2013.917859	5291.000000
2015.622650	5231.700000
2017.328812	5230.200000
2019.031192	5212.100000
2020.734943	5253.100000
2022.436632	5252.000000
2024.137976	5223.600000
2025.838974	5257.500000
2027.537911	5233.200000
2029.238220	5215.100000
2030.934754	5155.500000
2032.632659	5119.000000
2034.328505	5112.900000
2036.027437	5121.100000
2037.720883	5032.400000
2039.415700	5011.900000
2041.110175	5051.100000
2042.800881	5019.800000
2044.494671	5095.400000
2046.184694	5090.100000
2047.876088	5098.400000
2049.565429	5125.000000
2051.256140	5023.400000
2052.943088	5008.100000
2054.629697	5040.000000
2056.317675	5039.700000
2058.001894	5082.000000
2059.687484	5084.400000
2061.372734	5148.500000
2063.055935	5088.800000
2064.740507	5097.400000
2066.419616	5168.900000
2068.103510	5122.200000
2069.781943	5145.400000
2071.463454	5192.400000
2073.141213	5160.200000
2074.818636	5187.400000
2076.497428	5113.200000
2078.174178	5102.000000
2079.848886	5057.400000
2081.524963	5076.300000
2083.199000	5079.200000
2084.872701	5053.400000
2086.546067	5046.600000
2088.217394	5070.500000
2089.888387	5047.300000
2091.559046	5047.800000
2093.229371	5060.500000
2094.899362	5117.900000
2096.567317	5006.200000
2098.234939	5077.800000
2099.900526	4950.400000
2101.567482	4996.400000
2103.232405	4984.400000
2104.896996	5001.200000
2106.559555	5069.600000
2108.223482	5130.700000
2109.885378	5101.400000
2111.546944	5170.000000
2113.208178	5151.800000
2114.867384	5171.400000
2116.526259	5207.800000
2118.184805	5223.900000
2119.843020	5273.200000
2121.497513	5235.600000
2123.155070	5160.700000
2124.812298	5179.900000
2126.465804	5105.100000
2128.120678	5125.800000
2129.771833	5117.600000
2131.426051	5031.400000
2133.076552	4945.400000
2134.728419	5011.500000
2136.374878	4890.100000
2138.026092	4930.000000
2139.673592	5081.200000
2141.322459	5116.000000
2142.969307	5146.000000
2144.615830	5207.500000
2146.262027	5194.400000
2147.904516	5233.200000
2149.550063	5210.100000
2151.191903	5313.800000
2152.836800	5292.600000
2154.477991	5278.300000
2156.118860	5229.800000
2157.759404	5215.800000
2159.397936	5153.600000
2161.037834	5155.500000
2162.674032	5154.100000
2164.311596	5113.100000
2165.948838	5038.700000
2167.584070	5076.300000
2169.218981	5006.200000
2170.853569	5106.100000
2172.487837	5116.300000
2174.118411	5187.600000
2175.752037	5111.700000
2177.381971	5071.900000
2179.013270	5168.000000
2180.642564	5218.300000
2182.271539	5239.600000
2183.900194	5150.200000
2185.528530	5275.800000
2187.154864	5290.600000
2188.780879	5302.600000
2190.404892	5367.600000
2192.030271	5364.600000
2193.653649	5310.200000
2195.278392	5346.700000
2196.899454	5238.300000
2198.520199	5250.700000
2200.142309	5141.700000
2201.762421	5194.800000
2203.380536	5121.000000
2204.998336	5186.500000
2206.615821	5102.600000
2208.232990	5146.000000
2209.849844	5150.400000
2211.466382	5174.400000
2213.080928	5253.200000
2214.693481	5190.000000
2216.307398	5202.000000
2217.919324	5226.100000
2219.532613	5177.600000
2221.143912	5248.900000
2222.753221	5262.600000
2224.363894	5264.800000
2225.972578	5239.200000
2227.580949	5237.800000
2229.187334	5170.400000
2230.795082	5164.900000
2232.400843	5226.700000
2234.006293	5188.700000
2235.609758	5148.600000
2237.214586	5136.700000
2238.817430	5091.100000
2240.418291	5072.400000
2242.020515	4996.200000
2243.620757	4971.800000
2245.222361	5119.500000
2246.820312	5102.200000
2248.419626	5105.600000
2250.016960	5141.200000
2251.613986	5148.600000
2253.212374	5196.500000
2254.807113	5192.400000
2256.399875	5230.300000
2257.994000	5183.900000
2259.589486	5199.200000
2261.181327	5103.700000
2262.772862	5035.800000
2264.365759	4943.600000
2265.953346	4955.300000
2267.545629	4947.900000
2269.132606	4999.500000
2270.722610	5033.100000
2272.307310	5023.800000
2273.896704	5031.600000
2275.480796	5023.800000
2277.066248	5011.300000
2278.649732	5178.900000
2280.236241	5116.300000
2281.819117	5120.000000
2283.401690	5099.200000
2284.983959	5062.700000
2286.562598	5167.000000
2288.144262	5063.900000
2289.722297	5038.800000
2291.303355	5092.900000
2292.880786	5054.050000
2294.456254	5015.200000
2296.034744	4914.600000
2297.609610	4906.100000
2299.184175	4906.200000
2300.758440	4936.800000
2302.332404	4904.300000
2303.906067	4855.300000
2305.479431	4889.200000
2307.049176	4831.900000
2308.618622	4896.100000
2310.191086	4901.300000
2311.758276	4868.300000
2313.328484	4851.100000
2314.895077	4894.300000
2316.463030	4841.900000
2318.029027	4869.500000
2319.594727	4828.400000
2321.160129	4927.600000
2322.723578	4835.700000
2324.288386	4861.900000
2325.849586	4880.100000
2327.413800	4882.500000
2328.972752	4865.000000
2330.534719	4857.100000
2332.094734	4796.900000
2333.654455	4834.800000
2335.212226	4938.800000
2336.769702	4972.600000
2338.326884	5003.300000
2339.882118	4944.800000
2341.437059	4983.200000
2342.991705	4967.800000
2344.546058	4975.700000
2346.100118	4933.200000
2347.653883	4899.600000
2349.205704	4933.000000
2350.755583	4915.200000
2352.308469	4911.400000
2353.856112	4908.900000
2355.406764	4870.700000
2356.953824	4857.000000
2358.502242	4891.500000
2360.050369	4887.500000
2361.594907	4888.200000
2363.140803	4925.900000
2364.684761	4850.600000
2366.230076	4883.600000
2367.771806	4859.400000
2369.314893	4851.300000
2370.856044	4807.100000
2372.396906	4805.700000
2373.937479	4856.600000
2375.477763	4838.000000
2377.017758	4794.700000
2378.554175	4816.700000
2380.093593	4790.400000
2381.629433	4744.400000
2383.166631	4734.700000
2384.700253	4784.600000
2386.236875	4727.400000
2387.771567	4774.700000
2389.304329	4643.700000
2390.836804	4732.400000
2392.367351	4632.200000
2393.900896	4655.800000
2395.429230	4710.600000
2396.958921	4629.600000
2398.488325	4656.700000
2400.017445	4581.400000
2401.546280	4622.500000
2403.069909	4627.700000
2404.598174	4642.900000
2406.121237	4554.700000
2407.648933	4570.500000
2409.169790	4524.300000
2410.695280	4535.400000
2412.217209	4571.900000
2413.740494	4677.000000
2415.261857	4603.100000
2416.781301	4583.800000
2418.302100	4557.600000
2419.820981	4583.200000
2421.339579	4582.800000
2422.856260	4557.900000
2424.374295	4566.600000
2425.892049	4619.100000
2427.406252	4622.700000
2428.920174	4603.600000
2430.433816	4596.400000
2431.948813	4613.300000
2433.460261	4622.800000
2434.973064	4719.100000
2436.483953	4629.600000
2437.994564	4682.100000
2439.503263	4726.600000
2441.014948	4700.800000
2442.523090	4714.600000
2444.030954	4684.700000
2445.538540	4664.200000
2447.042585	4694.700000
2448.549615	4633.100000
2450.054737	4624.700000
2451.559582	4678.200000
2453.062520	4655.700000
2454.565182	4681.600000
2456.067567	4653.500000
2457.568047	4597.400000
2459.069880	4608.700000
2460.569808	4548.400000
2462.069461	4550.600000
2463.568839	4546.100000
2465.066314	4582.600000
2466.561887	4590.400000
2468.060440	4590.500000
2469.555465	4627.700000
2471.051842	4658.900000
2472.544693	4673.100000
2474.038897	4587.400000
2475.532827	4560.700000
2477.023233	4633.500000
2478.516617	4610.000000
2480.008103	4669.900000
2481.497692	4675.600000
2482.987009	4649.700000
2484.474430	4614.500000
2485.964827	4620.400000
2487.451706	4642.300000
2488.939936	4641.500000
2490.424649	4647.900000
2491.909093	4526.700000
2493.394887	4531.500000
2494.878790	4528.200000
2496.364043	4513.200000
2497.844163	4528.400000
2499.327256	4533.200000
2500.808458	4553.600000
2502.289391	4570.500000
2503.768435	4636.100000
2505.247210	4527.200000
2506.725717	4664.500000
2508.203956	4664.400000
2509.681926	4700.000000
2511.156391	4632.800000
2512.633826	4714.600000
2514.107757	4762.900000
2515.583038	4764.100000
2517.058052	4781.400000
2518.529565	4814.800000
2520.002429	4833.400000
2521.473410	4768.600000
2522.945741	4771.100000
2524.412958	4816.000000
2525.883142	4817.800000
2527.351445	4855.300000
2528.819483	4809.500000
2530.287256	4859.300000
2531.754764	4789.800000
2533.222007	4839.200000
2534.685758	4827.300000
2536.150859	4839.300000
2537.614083	4879.400000
2539.078656	4902.800000
2540.539741	4889.900000
2542.002175	4930.400000
2543.464346	4991.300000
2544.923031	4969.800000
2546.386287	4927.900000
2547.844448	4982.700000
2549.303957	4983.600000
2550.758372	4917.100000
2552.217358	4898.900000
2553.674472	4990.200000
2555.129715	4983.700000
2556.584696	4952.000000
2558.037809	4915.800000
2559.492270	4938.400000
2560.944861	4973.100000
2562.397193	4916.500000
2563.847658	4973.900000
2565.301078	4981.900000
2566.749416	4987.000000
2568.200709	4966.500000
2569.650137	4944.600000
2571.096092	4968.100000
2572.545002	4946.400000
2573.990442	4985.000000
2575.437229	5021.100000
2576.882154	4967.500000
2578.326820	4993.300000
2579.772834	5001.200000
2581.215382	5034.000000
2582.659277	5079.400000
2584.099707	5120.000000
2585.541484	5092.800000
2586.981402	5090.200000
2588.422667	5049.100000
2589.860470	5109.600000
2591.301223	5116.500000
2592.736914	5068.300000
2594.175554	5115.500000
2595.612336	5093.700000
2597.047263	5121.200000
2598.485137	5057.700000
2599.917954	5088.000000
2601.352118	5047.300000
2602.784428	5069.900000
2604.218084	4996.100000
2605.649887	5001.600000
2607.081436	4999.600000
2608.512733	4914.300000
2609.942177	4979.500000
2611.371369	4937.700000
2612.798711	4990.900000
2614.227398	5008.300000
2615.655834	5024.600000
2617.080822	5013.200000
2618.507157	5026.600000
2619.931643	5049.100000
2621.357475	5036.200000
2622.779863	5083.900000
2624.203597	5078.200000
2625.625484	5069.700000
2627.047122	5092.000000
2628.466914	5020.700000
2629.888052	5087.600000
2631.308940	5116.300000
2632.726390	5113.900000
2634.146779	5241.400000
2635.563731	5170.500000
2636.980434	5209.900000
2638.396889	5162.300000
2639.813096	5164.400000
2641.229055	5105.500000
2642.643173	5212.700000
2644.057043	5231.000000
2645.469075	5209.400000
2646.882450	5207.900000
2648.292396	5214.300000
2649.705278	5247.100000
2651.114731	5284.900000
2652.523938	5348.200000
2653.931309	5302.900000
2655.341614	5308.500000
2656.750084	5320.700000
2658.156718	5369.900000
2659.563107	5382.700000
2660.967662	5396.300000
2662.373561	5427.500000
2663.777627	5430.400000
2665.181448	5513.800000
2666.585025	5465.000000
2667.986771	5555.800000
2669.389860	5574.100000
2670.789531	5617.900000
2672.190546	5611.000000
2673.588145	5632.600000
2674.988674	5597.200000
2676.385787	5652.300000
2677.784244	5648.400000
2679.180874	5699.500000
2680.577261	5657.900000
2681.973406	5747.800000
2683.367725	5700.700000
2684.763387	5759.600000
2686.155640	5662.400000
2687.549235	5677.100000
2688.941006	5633.200000
2690.334120	5575.600000
2691.725410	5559.400000
2693.114877	5549.600000
2694.504104	5468.700000
2695.893092	5646.300000
2697.283421	5575.300000
2698.668767	5600.400000
2700.057036	5594.300000
2701.443485	5542.900000
2702.829695	5472.400000
2704.215666	5577.700000
2705.598239	5550.700000
2706.982154	5479.900000
2708.365831	5434.600000
2709.749269	5431.500000
2711.129313	5385.800000
2712.510697	5389.000000
2713.890267	5343.000000
2715.271177	5238.900000
2716.650273	5228.000000
2718.027555	5108.000000
2719.406178	5117.600000
2720.782988	5107.200000
2722.159561	5176.700000
2723.535899	5102.400000
2724.910426	5122.100000
2726.286293	5106.300000
2727.658773	5075.300000
2729.034169	5052.300000
2730.404605	5033.600000
2731.776382	5034.600000
2733.147924	5067.000000
2734.517658	5020.400000
2735.888733	4971.200000
2737.257999	4893.900000
2738.627032	4851.500000
2739.994259	4854.000000
2741.361252	4832.900000
2742.728013	4838.800000
2744.094542	4766.500000
2745.459265	4800.500000
2746.823756	4724.400000
2748.188016	4682.000000
2749.552043	4751.700000
2750.915839	4684.600000
2752.276261	4595.500000
2753.639593	4614.200000
2754.997983	4586.100000
2756.359283	4509.000000
2757.717213	4493.900000
2759.078051	4454.800000
2760.437090	4511.700000
2761.792760	4513.700000
2763.151338	4426.700000
2764.506549	4448.400000
2765.861531	4396.800000
2767.214717	4398.300000
2768.570809	4382.900000
2769.923536	4411.600000
2771.276036	4406.200000
2772.628307	4339.700000
2773.981916	4333.100000
2775.332165	4336.000000
2776.680619	4356.000000
2778.031979	4291.700000
2779.379979	4388.800000
2780.729317	4338.000000
2782.076863	4331.900000
2783.424183	4300.300000
2784.771276	4361.500000
2786.116578	4313.900000
2787.461653	4238.700000
2788.806503	4194.500000
2790.151127	4181.300000
2791.492399	4176.400000
2792.835009	4202.700000
2794.177393	4143.100000
2795.519552	4160.500000
2796.858362	4101.400000
2798.200072	4084.300000
2799.538434	4061.400000
2800.878132	4138.900000
2802.216046	4106.600000
2803.552175	4149.100000
2804.888080	4179.400000
2806.225323	4203.300000
2807.560782	4232.800000
2808.896018	4233.600000
2810.229471	4282.800000
2811.564261	4221.000000
2812.895711	4317.900000
2814.230056	4282.500000
2815.559503	4301.600000
2816.890287	4359.800000
2818.220849	4314.800000
2819.549632	4306.800000
2820.879751	4350.700000
2822.208092	4355.600000
2823.536212	4380.400000
2824.862554	4279.100000
2826.190233	4254.300000
2827.514578	4361.000000
2828.840260	4198.500000
2830.164166	4224.100000
2831.487853	4190.700000
2832.812875	4236.900000
2834.134567	4310.900000
2835.456041	4237.500000
2836.777296	4254.700000
2838.098332	4285.400000
2839.417595	4314.700000
2840.738194	4319.600000
2842.057022	4310.100000
2843.375631	4371.500000
2844.692469	4308.200000
2846.009090	4368.700000
2847.325494	4401.900000
2848.640128	4402.800000
2849.956098	4420.900000
2851.268747	4483.200000
2852.582731	4387.800000
2853.896499	4457.400000
2855.210050	4411.300000
2856.521835	4438.400000
2857.831853	4408.400000
2859.143206	4432.200000
2860.451244	4367.100000
2861.760616	4343.200000
2863.069774	4328.400000
2864.378716	4287.800000
2865.685894	4385.000000
2866.991310	4309.300000
2868.298060	4303.400000
2869.603047	4315.100000
2870.907821	4249.500000
2872.210833	4286.200000
2873.516726	4220.800000
2874.817765	4231.800000
2876.120138	4276.000000
2877.420751	4244.800000
2878.722698	4210.200000
2880.024431	4140.500000
2881.322861	4171.000000
2882.622624	4144.700000
2883.920630	4139.900000
2885.218424	4235.600000
2886.514462	4233.800000
2887.811833	4192.100000
2889.107448	4243.700000
2890.402852	4232.000000
2891.698045	4284.600000
2892.989941	4282.500000
2894.284713	4269.600000
2895.576188	4297.100000
2896.868996	4319.600000
2898.161594	4247.900000
2899.450898	4272.400000
2900.741534	4290.000000
2902.030419	4301.900000
2903.320636	4305.700000
2904.607562	4327.200000
2905.895820	4376.000000
2907.182329	4342.200000
2908.468629	4265.700000
2909.754722	4261.600000
2911.039066	4233.100000
2912.326281	4191.400000
2913.608670	4175.000000
2914.892391	4116.900000
2916.174366	4176.200000
2917.456133	4153.500000
2918.736156	4087.800000
2920.019048	4155.900000
2921.300195	4091.600000
2922.578060	4112.000000
2923.858794	4159.900000
2925.136247	4146.700000
2926.413494	4212.100000
2927.688999	4137.300000
2928.967372	4230.800000
2930.240931	4176.200000
2931.517357	4218.300000
2932.792042	4241.400000
2934.064986	4241.900000
2935.339262	4285.900000
2936.611798	4288.500000
2937.884129	4225.600000
2939.153188	4233.100000
2940.425112	4209.700000
2941.695298	4277.200000
2942.965280	4217.000000
2944.235059	4123.000000
2945.503102	4124.500000
2946.769408	4120.500000
2948.035513	4112.300000
2949.302947	4113.100000
2950.568647	4100.800000
2951.834144	4016.000000
2953.099439	4018.500000
2954.361469	4002.900000
2955.624829	4013.600000
2956.887988	3992.700000
2958.149415	3981.500000
2959.412171	3919.800000
2960.673195	4001.600000
2961.932489	3956.500000
2963.191583	4006.800000
2964.450476	3922.700000
2965.709169	3912.100000
2966.967662	3886.000000
2968.224426	3871.400000
2969.480990	3871.400000
2970.735827	3814.500000
2971.991992	3874.100000
2973.244903	3865.500000
2974.499143	3827.300000
2975.753184	3902.900000
2977.005499	3869.200000
2978.257615	3907.900000
2979.508007	3910.700000
2980.761254	3958.200000
2982.009724	3974.500000
2983.261049	4081.400000
2984.509124	4025.600000
2985.757003	3997.000000
2987.004684	4059.400000
2988.252168	4016.100000
2989.497931	4014.000000
2990.743498	3970.000000
2991.990392	3905.100000
2993.234042	3958.800000
2994.479020	3959.000000
2995.720754	3972.700000
2996.965340	3944.500000
2998.208207	3990.300000
2999.447833	4054.900000
3000.690309	4025.300000
3001.929545	4033.400000
3003.170109	4118.800000
3004.408957	4116.300000
3005.647609	4108.600000
3006.884546	4095.600000
3008.122811	4155.400000
3009.359360	4180.400000
3010.595716	4131.100000
3011.831878	4138.800000
3013.066326	4183.700000
3014.300582	4208.200000
3015.534644	4246.100000
3016.766994	4267.800000
3017.997632	4268.800000
3019.231116	4225.400000
3020.462888	4233.800000
3021.692950	4261.600000
3022.922819	4263.200000
3024.150980	4220.900000
3025.380466	4166.100000
3026.608243	4322.800000
3027.835829	4259.600000
3029.064742	4235.300000
3030.288912	4163.500000
3031.515925	4173.600000
3032.739714	4057.000000
3033.964830	4122.400000
3035.188239	4101.100000
3036.411458	4004.200000
3037.632972	4031.100000
3038.857327	3970.000000
3040.076947	3970.900000
3041.297893	3959.900000
3042.518650	3932.500000
3043.737703	3957.500000
3044.958081	3947.000000
3046.175243	3893.100000
3047.393731	3901.800000
3048.610516	3920.400000
3049.827114	3950.200000
3051.043523	3828.700000
3052.256720	3932.700000
3053.472754	3975.600000
3054.685576	3867.700000
3055.901235	3952.000000
3057.112171	3914.300000
3058.324432	3921.200000
3059.536507	3923.500000
3060.748394	3899.300000
3061.958585	3931.300000
3063.168589	3902.200000
3064.378407	3858.300000
3065.586529	3920.700000
3066.794466	3886.900000
3068.000707	3935.600000
3069.208273	3903.100000
3070.414144	3916.000000
3071.619831	3928.900000
3072.825332	3989.400000
3074.029140	3919.300000
3075.234272	3909.200000
3076.437711	4013.700000
3077.639459	3860.700000
3078.841022	3845.100000
3080.042402	3790.200000
3081.243598	3816.200000
3082.443104	3793.500000
3083.642427	3730.100000
3084.843073	3754.100000
3086.042029	3790.500000
3087.237791	3758.400000
3088.436382	3772.700000
3089.631779	3818.700000
3090.828499	3853.000000
3092.022027	3850.200000
3093.218383	3976.500000
3094.413053	3962.300000
3095.604532	4006.200000
3096.800342	4033.700000
3097.991458	3998.100000
3099.183898	4112.700000
3100.373150	4006.900000
3101.565227	3984.100000
3102.755621	3948.500000
3103.942829	4047.800000
3105.131360	3994.100000
3106.321212	4012.900000
3107.507881	4027.700000
3108.694369	4061.000000
3109.880679	4083.100000
3111.068310	4006.700000
3112.252759	4034.800000
3113.435529	4013.100000
3114.621121	4022.200000
3115.805034	3992.800000
3116.987268	4039.000000
3118.169323	3990.500000
3119.351200	4021.600000
3120.532899	4010.300000
3121.712921	4054.400000
3122.891266	4021.600000
3124.072431	4106.000000
3125.250421	4078.100000
3126.428235	4142.200000
3127.605871	4116.800000
3128.781832	4099.400000
3129.957616	4152.700000
3131.134722	4111.600000
3132.310153	4108.400000
3133.483911	4019.900000
3134.655996	4087.700000
3135.829403	4155.800000
3137.002633	4228.800000
3138.174192	4162.000000
3139.347071	4149.600000
3140.516783	4103.900000
3141.687816	4077.000000
3142.857179	4045.500000
3144.024871	3994.100000
3145.195379	3964.200000
3146.361229	4027.500000
3147.531387	3966.700000
3148.696889	3924.000000
3149.862216	3936.900000
3151.027370	3892.100000
3152.192351	3907.200000
3153.358651	3844.000000
3154.520299	3765.700000
3155.683266	3740.900000
3156.846061	3781.000000
3158.008683	3766.400000
3159.169640	3730.800000
3160.330424	3869.700000
3161.491036	3809.600000
3162.649984	3787.100000
3163.808761	3777.100000
3164.967366	3853.600000
3166.125798	3736.300000
3167.284060	3832.400000
3168.440659	3705.700000
3169.595597	3699.400000
3170.751854	3647.000000
3171.906450	3644.400000
3173.060876	3660.600000
3174.213642	3677.400000
3175.366237	3665.200000
3176.518663	3707.200000
3177.670919	3746.800000
3178.823004	3725.100000
3179.971944	3696.400000
3181.123690	3774.700000
3182.273778	3773.200000
3183.422210	3748.500000
3184.570472	3800.500000
3185.718566	3867.100000
3186.866491	3840.400000
3188.012760	3871.500000
3189.158861	3981.400000
3190.303308	3949.000000
3191.447587	3945.200000
3192.591698	3979.900000
3193.737126	3894.500000
3194.879416	3920.700000
3196.021539	3929.200000
3197.163494	3935.100000
3198.305282	3843.400000
3199.446903	3853.200000
3200.585389	3897.200000
3201.725192	3952.000000
3202.866313	3880.400000
3204.004299	3910.100000
3205.140636	3951.600000
3206.276807	3893.100000
3207.414295	3975.100000
3208.550135	3939.500000
3209.687292	3921.000000
3210.819836	3869.700000
3211.956662	3918.500000
3213.088876	3804.000000
3214.222407	3777.700000
3215.355774	3701.200000
3216.486013	3761.300000
3217.619050	3639.300000
3218.748961	3697.300000
3219.880188	3691.300000
3221.008291	3732.700000
3222.139190	3820.600000
3223.268445	3740.300000
3224.396057	3782.200000
3225.520546	3763.700000
3226.649311	3826.400000
3227.774954	3753.400000
3228.900435	3752.700000
3230.024274	3783.600000
3231.150907	3750.700000
3232.272943	3773.800000
3233.396295	3696.300000
3234.519485	3702.100000
3235.642512	3558.800000
3236.763901	3563.200000
3237.885127	3572.000000
3239.004716	3625.800000
3240.124143	3529.300000
3241.241932	3554.100000
3242.362513	3521.600000
3243.479981	3499.500000
3244.597288	3501.800000
3245.714435	3521.200000
3246.829946	3482.300000
3247.946771	3529.000000
3249.060487	3537.700000
3250.176992	3575.100000
3251.291863	3525.900000
3252.403625	3517.600000
3253.515227	3533.000000
3254.628145	3516.200000
3255.740903	3515.100000
3256.850555	3553.100000
3257.961522	3529.300000
3259.072330	3469.400000
3260.181506	3480.400000
3261.289052	3533.900000
3262.397911	3479.100000
3263.506613	3508.000000
3264.612212	3523.100000
3265.719125	3557.900000
3266.824409	3557.200000
3267.931007	3619.200000
3269.034505	3543.500000
3270.139318	3619.400000
3271.243973	3651.600000
3272.345529	3661.400000
3273.446929	3681.700000
3274.549643	3681.000000
3275.652201	3682.300000
3276.751662	3690.700000
3277.853907	3646.500000
3278.953056	3661.700000
3280.050581	3632.100000
3281.147950	3648.300000
3282.248101	3694.300000
3283.345160	3694.500000
3284.442063	3627.500000
3285.538811	3619.800000
3286.631001	3630.100000
3287.727439	3612.400000
3288.822255	3589.400000
3289.916917	3604.600000
3291.009957	3515.400000
3292.102842	3601.100000
3293.194108	3564.200000
3294.286685	3590.600000
3295.377643	3563.800000
3296.466981	3523.300000
3297.556166	3499.500000
3298.646664	3486.600000
3299.734077	3492.300000
3300.821337	3469.600000
3301.909910	3480.300000
3302.998331	3475.000000
3304.082204	3446.400000
3305.170319	3533.400000
3306.255352	3496.000000
3307.338770	3508.200000
3308.423500	3431.800000
3309.506614	3439.300000
3310.591041	3452.400000
3311.672389	3426.300000
3312.755049	3440.600000
3313.836095	3393.300000
3314.916990	3434.400000
3315.996271	3460.700000
3317.075402	3453.800000
3318.155845	3469.000000
3319.233213	3476.900000
3320.311893	3521.900000
3321.388961	3505.700000
3322.465880	3513.600000
3323.541187	3451.400000
3324.616345	3487.700000
3325.692814	3422.300000
3326.766213	3391.300000
3327.839463	3426.800000
3328.914023	3371.100000
3329.986975	3425.600000
3331.058318	3427.000000
3332.130972	3382.000000
3333.200560	3373.900000
3334.271458	3340.000000
3335.340749	3355.500000
3336.411351	3406.500000
3337.480346	3370.900000
3338.547735	3356.900000
3339.613519	3349.700000
3340.683529	3293.900000
3341.750476	3267.000000
3342.814361	3275.400000
3343.881014	3257.300000
3344.946062	3197.100000
3346.009507	3214.500000
3347.072806	3227.100000
3348.135958	3179.200000
3349.198964	3216.300000
3350.261824	3151.700000
3351.323082	3176.900000
3352.381283	3170.400000
3353.443704	3195.300000
3354.503070	3220.200000
3355.562290	3286.300000
3356.622820	3235.100000
3357.678840	3328.000000
3358.737624	3323.100000
3359.791901	3365.800000
3360.848942	3328.700000
3361.904384	3389.800000
3362.961136	3432.600000
3364.016289	3417.000000
3365.069845	3459.100000
3366.121805	3428.100000
3367.176526	3482.000000
3368.228198	3494.100000
3369.279727	3500.900000
3370.332564	3480.200000
3371.382354	3494.900000
3372.433453	3466.800000
3373.481506	3467.000000
3374.532318	3454.300000
3375.580086	3466.100000
3376.627711	3460.200000
3377.675193	3534.900000
3378.721083	3523.500000
3379.768281	3474.400000
3380.812437	3424.800000
3381.859351	3454.200000
3382.904673	3452.900000
3383.946954	3441.500000
3384.989095	3449.300000
3386.032543	3480.400000
3387.075850	3460.700000
3388.117568	3457.500000
3389.159144	3466.300000
3390.200579	3455.200000
3391.240426	3460.200000
3392.278684	3491.200000
3393.318250	3476.600000
3394.357676	3485.400000
3395.395514	3498.700000
3396.431765	3474.800000
3397.467877	3473.600000
3398.505296	3501.700000
3399.539682	3423.400000
3400.575375	3444.200000
3401.610929	3415.000000
3402.643452	3442.800000
3403.678728	3427.100000
3404.710973	3367.100000
3405.743080	3402.300000
3406.773603	3376.900000
3407.805433	3319.900000
3408.837125	3328.700000
3409.865789	3258.000000
3410.894316	3266.800000
3411.924149	3201.500000
3412.953845	3241.500000
3413.980515	3193.300000
3415.008492	3144.100000
3416.033444	3127.400000
3417.061146	3150.800000
3418.085825	3131.300000
3419.111810	3120.800000
3420.136215	3083.600000
3421.160484	3078.000000
3422.183174	3067.800000
3423.205728	3060.400000
3424.229588	3064.500000
3425.250428	3159.800000
3426.271132	3096.700000
3427.293143	3127.100000
3428.312135	3091.300000
3429.330991	3066.200000
3430.351154	3109.400000
3431.368300	3098.200000
