-117.888313	18.000000
-115.218713	-1.600000
-112.552048	8.500000
-109.886135	-8.100000
-107.223154	9.400000
-104.558744	5.900000
-101.897264	2.600000
-99.234355	3.200000
-96.576552	25.300000
-93.917320	3.800000
-91.258836	-6.700000
-88.603276	31.900000
-85.946288	19.200000
-83.294398	-5.000000
-80.641078	7.300000
-77.990677	-22.300000
-75.338847	-16.200000
-72.692108	-3.900000
-70.043940	6.300000
-67.396514	-5.000000
-64.752002	5.900000
-62.106062	-6.600000
-59.465203	1.500000
-56.822915	-8.500000
-54.183536	-7.400000
-51.542727	-2.400000
-48.902659	14.000000
-46.267663	3.300000
-43.631239	6.900000
-40.997717	6.300000
-38.362767	-3.800000
-35.732882	-5.100000
-33.099405	3.700000
-30.470990	1.500000
-27.843309	6.200000
-25.214199	0.400000
-22.590146	-13.600000
-19.962504	-10.600000
-17.339915	-0.400000
-14.718058	-16.300000
-12.096931	-15.800000
-9.476534	-14.900000
-6.859026	-19.000000
-4.240089	-9.800000
-1.624037	-10.700000
0.991286	5.700000
3.605882	-6.400000
6.217595	5.400000
8.830737	9.900000
11.438845	-19.600000
14.050535	13.500000
16.657194	2.000000
19.265281	3.700000
21.872644	15.300000
24.474982	-3.600000
27.080898	-22.200000
29.681792	7.700000
32.284114	-16.600000
34.881419	-9.100000
37.482299	3.700000
40.078164	6.600000
42.675458	-35.600000
45.272032	-1.400000
47.863597	-22.000000
50.456590	10.500000
53.046722	-0.500000
55.638282	-11.400000
58.226982	-10.000000
60.817109	-4.600000
63.402237	-11.800000
65.988793	-20.000000
68.574635	8.700000
71.157623	12.900000
73.742037	2.400000
76.319323	0.100000
78.900175	-1.300000
81.478178	-2.200000
84.055471	-5.400000
86.634190	4.200000
89.207927	-1.100000
91.783092	-3.900000
94.355413	-5.500000
96.927026	13.600000
99.495799	-10.000000
102.065999	-3.900000
104.633361	-12.700000
107.202148	17.300000
109.768099	1.400000
112.331215	7.000000
114.897887	-0.400000
117.455338	-1.500000
120.018474	-8.900000
122.576650	-4.600000
125.138381	-7.600000
127.695155	8.300000
130.253356	-18.700000
132.806603	2.200000
135.359153	1.700000
137.915253	-4.400000
140.466405	8.600000
143.016860	4.500000
145.566617	-6.800000
148.113555	9.100000
150.659798	-3.000000
153.207466	4.100000
155.754438	-6.000000
158.296475	-7.000000
160.837818	5.400000
163.378468	-3.900000
165.920544	10.600000
168.459808	11.300000
170.996264	10.600000
173.532028	-4.700000
176.069218	11.400000
178.605717	3.800000
181.139410	-4.800000
183.670299	-14.000000
186.200501	3.600000
188.732127	3.400000
191.260952	-1.500000
193.786978	-0.300000
196.312318	-8.100000
198.839083	14.000000
201.363052	3.700000
203.886336	8.500000
206.408935	-1.400000
208.928741	-2.700000
211.447864	18.800000
213.966304	21.600000
216.486168	6.600000
218.999031	-7.300000
221.515425	-9.100000
224.031137	13.700000
226.541959	-5.400000
229.054206	4.300000
231.563671	-16.400000
234.072457	2.200000
236.580564	2.200000
239.090096	-4.200000
241.594747	-5.100000
244.098722	8.400000
246.604121	-9.400000
249.104645	14.300000
251.608693	-10.000000
254.105769	8.100000
256.606369	-16.900000
259.104197	7.200000
261.601352	-15.700000
264.097834	-6.600000
266.589453	7.800000
269.084592	-3.800000
271.576964	5.600000
274.068666	5.500000
276.557605	-6.000000
279.047968	-0.700000
281.535568	3.200000
284.020409	11.800000
286.508765	-3.000000
288.990181	-5.400000
291.475111	5.200000
293.955196	21.600000
296.438793	-2.600000
298.917547	10.800000
301.397725	3.100000
303.875150	10.200000
306.351912	-6.300000
308.828011	-2.700000
311.301361	-9.500000
313.774049	21.600000
316.246076	5.700000
318.717442	12.500000
321.186063	6.700000
323.654026	5.300000
326.123410	-21.100000
328.587972	8.300000
331.056038	13.900000
333.519284	-7.900000
335.981872	1.000000
338.443804	6.000000
340.905079	1.200000
343.363620	-20.200000
345.823583	2.900000
348.280813	-6.400000
350.737389	-17.700000
353.193311	-1.400000
355.646503	-20.400000
358.101118	1.800000
360.550931	21.600000
363.004240	13.400000
365.452751	3.000000
367.900610	-5.100000
370.349892	-4.500000
372.794380	-18.800000
375.240290	2.600000
377.685550	-11.600000
380.128092	-6.900000
382.569986	-16.000000
385.011233	2.900000
387.449764	5.800000
389.889717	6.000000
392.326956	4.900000
394.761483	-3.800000
397.199498	13.400000
399.632736	-3.400000
402.067395	0.400000
404.497282	-19.600000
406.930654	11.300000
409.359256	12.500000
411.787216	-18.100000
414.216598	-6.700000
416.641214	-7.000000
419.067252	14.100000
421.492649	11.700000
423.917406	-12.600000
426.337405	24.800000
428.758825	-13.800000
431.177548	-0.100000
433.597692	-5.000000
436.015141	32.000000
438.434010	-9.800000
440.850186	10.100000
443.261614	6.700000
445.676520	-7.200000
448.088735	-9.900000
450.500316	2.200000
452.911263	-15.600000
455.319524	0.800000
457.727152	-3.100000
460.134148	4.300000
462.540513	0.600000
464.944195	7.900000
467.347247	5.900000
469.749669	6.500000
472.151461	-2.100000
474.550576	12.800000
476.951110	5.700000
479.351015	17.100000
481.746197	16.000000
484.144846	3.900000
486.538775	-1.900000
488.932078	1.800000
491.324755	-4.600000
493.716807	-15.900000
496.110277	-2.800000
498.499035	7.000000
500.885127	7.100000
503.272639	-17.300000
505.659528	-3.300000
508.043753	-4.300000
510.429396	-23.200000
512.812378	16.900000
515.192699	-8.300000
517.574439	-7.200000
519.953520	-2.100000
522.334020	16.900000
524.711862	-2.500000
527.087049	-3.500000
529.461618	-6.300000
531.837605	5.000000
534.210940	-14.500000
536.585692	-0.800000
538.955759	-2.300000
541.325210	3.800000
543.696079	1.400000
546.062268	-7.400000
548.429875	-18.500000
550.794836	12.400000
553.159184	-0.700000
555.522919	11.700000
557.888072	-11.200000
560.248553	-4.600000
562.610452	3.600000
564.969710	3.800000
567.326331	5.300000
569.686396	-3.800000
572.039770	-6.900000
574.396589	-6.000000
576.750773	-3.400000
579.104349	13.800000
581.457316	3.900000
583.807651	4.900000
586.159404	-14.500000
588.504480	13.500000
590.855020	5.000000
593.198886	-0.900000
595.548214	-1.500000
597.892893	2.900000
600.234948	-8.000000
602.578420	18.200000
604.919269	-2.800000
607.259516	3.400000
609.597142	22.900000
611.938203	14.300000
614.274626	-0.200000
616.612466	-0.800000
618.947689	4.400000
621.280296	17.000000
623.614319	18.800000
625.945728	22.900000
628.276539	-2.500000
630.606753	-6.300000
632.936368	1.400000
635.261360	1.100000
637.591794	7.600000
639.917607	20.000000
642.240812	10.000000
644.565434	15.800000
646.887450	-4.900000
649.208872	6.500000
651.527692	-6.000000
653.847927	-2.900000
656.167569	5.200000
658.484610	-3.400000
660.801059	-10.400000
663.114910	7.700000
665.430177	2.100000
667.742847	4.700000
670.056932	3.200000
672.366417	-2.400000
674.677318	1.900000
676.985626	9.700000
679.293346	-3.200000
681.602480	-10.500000
683.907022	-14.800000
686.210978	-3.800000
688.514348	4.000000
690.819132	3.000000
693.119330	-8.600000
695.420942	-8.600000
697.721970	5.400000
700.018415	7.100000
702.316276	-16.100000
704.613553	19.200000
706.910247	-0.200000
709.202365	2.800000
711.497894	9.600000
713.788849	4.300000
716.081219	9.400000
718.371014	5.500000
720.660228	0.600000
722.948863	3.300000
725.234925	-3.900000
727.522402	-1.300000
729.807307	-3.300000
732.091635	0.600000
734.373394	0.200000
736.656567	-8.400000
738.939163	-12.800000
741.217203	-9.400000
743.496658	-5.900000
745.775536	2.400000
748.053840	4.300000
750.327594	16.100000
752.602761	10.000000
754.877355	15.000000
757.149390	-1.600000
759.422838	5.500000
761.693728	0.300000
763.962062	-4.100000
766.231809	0.300000
768.499002	-6.500000
770.765624	-8.800000
773.031676	2.500000
775.295177	12.700000
777.560091	18.700000
779.824435	2.500000
782.084250	6.900000
784.345477	-17.400000
786.606137	10.700000
788.864251	4.300000
791.119820	14.200000
793.378780	8.200000
795.631241	-9.200000
797.889068	-2.000000
800.142377	15.000000
802.393146	12.700000
804.645327	15.900000
806.894969	-3.000000
809.146024	1.500000
811.392567	-10.200000
813.640522	-4.900000
815.885943	8.100000
818.132775	7.200000
820.379046	4.800000
822.620812	-7.200000
824.865962	-0.900000
827.104639	7.700000
829.346698	-8.900000
831.584259	11.800000
833.823232	-5.000000
836.059678	5.000000
838.297535	-12.500000
840.532867	-3.800000
842.765676	-4.000000
844.999896	7.700000
847.231593	8.700000
849.462736	11.400000
851.693324	2.000000
853.923358	-6.300000
856.152838	3.300000
858.377836	-0.600000
860.606209	5.600000
862.830102	9.300000
865.055407	-2.300000
867.276236	-0.400000
869.500437	11.400000
871.720165	4.300000
873.941303	-8.800000
876.161891	0.300000
878.379970	17.200000
880.599458	-4.900000
882.814480	-14.200000
885.028955	3.100000
887.242881	-17.200000
889.456261	-3.000000
891.669093	8.500000
893.881379	7.000000
896.091162	1.400000
898.300400	5.200000
900.509093	-16.000000
902.715287	6.600000
904.922890	-8.400000
907.127995	-8.200000
909.332557	-7.000000
911.534624	8.600000
913.738100	-9.600000
915.939082	5.800000
918.139522	28.000000
920.341371	-11.600000
922.536829	19.900000
924.735646	2.100000
926.930024	-0.400000
929.127760	20.500000
931.321060	-5.400000
933.515769	9.700000
935.707992	-7.400000
937.899676	5.400000
940.090823	-8.900000
942.279487	0.600000
944.467615	-10.700000
946.653262	3.900000
948.842261	7.500000
951.026837	3.800000
953.210878	10.700000
955.398269	4.800000
957.577356	4.900000
959.759794	2.200000
961.941698	-7.300000
964.121127	-7.600000
966.298084	11.100000
968.476449	9.600000
970.656221	9.200000
972.829644	3.900000
975.006413	-1.100000
977.178775	3.400000
979.352545	-2.600000
981.521911	12.100000
983.694621	1.200000
985.864866	5.200000
988.034582	-0.500000
990.203769	-3.200000
992.368559	-2.600000
994.536690	-11.200000
996.700427	-0.800000
998.865570	-3.500000
1001.028254	1.900000
1003.190413	-7.300000
1005.350115	6.400000
1007.509292	0.900000
1009.669876	0.800000
1011.828006	-6.500000
1013.985611	-6.200000
1016.142693	11.100000
1018.299251	7.100000
1020.451430	19.000000
1022.605016	3.600000
1024.758080	12.200000
1026.908695	11.200000
1029.060717	6.400000
1031.208365	11.900000
1033.359345	-8.200000
1035.505954	7.100000
1037.652044	-4.000000
1039.797616	-4.300000
1041.944593	5.100000
1044.085281	0.700000
1046.229299	1.700000
1048.370876	2.000000
1050.511937	7.500000
1052.654402	-8.200000
1054.790588	-6.200000
1056.930099	6.800000
1059.065256	4.700000
1061.203737	2.400000
1063.337864	17.100000
1065.471478	12.500000
1067.606497	3.000000
1069.737166	-16.600000
1071.869240	-8.700000
1073.998885	-8.500000
1076.128018	22.400000
1078.256639	-9.000000
1080.384749	17.600000
1082.510433	-1.800000
1084.635607	-4.700000
1086.762185	2.800000
1088.884425	-1.200000
1091.008070	-3.200000
1093.127380	5.400000
1095.251920	-6.400000
1097.370214	-1.000000
1099.489913	1.800000
1101.607193	17.800000
1103.723967	1.600000
1105.840234	26.100000
1107.954085	11.100000
1110.069341	9.700000
1112.180273	-14.700000
1114.294518	-8.400000
1116.404442	-12.800000
1118.515770	13.600000
1120.626593	-4.400000
1122.733100	8.200000
1124.842917	8.800000
1126.948419	0.100000
1129.055324	1.300000
1131.156014	3.900000
1133.261916	-7.100000
1135.363509	0.600000
1137.466505	-6.800000
1139.569000	5.800000
1141.665288	-0.900000
1143.766784	-7.800000
1145.863976	-1.700000
1147.960671	2.400000
1150.056867	5.300000
1152.152566	-2.700000
1154.247766	-3.800000
1156.340570	8.500000
1158.434777	-13.700000
1160.522792	-5.900000
1162.616005	5.800000
1164.703030	12.900000
1166.793354	3.500000
1168.879391	9.600000
1170.968725	4.700000
1173.051878	-18.300000
1175.136433	-13.800000
1177.222390	7.500000
1179.304065	-13.300000
1181.387142	-7.500000
1183.467833	-6.800000
1185.548032	-7.900000
1187.627740	-5.000000
1189.706957	-26.400000
1191.783792	-4.200000
1193.858246	14.100000
1195.935991	-17.600000
1198.009467	10.600000
1200.084343	-21.100000
1202.154952	-1.000000
1204.226962	1.300000
1206.296597	-5.100000
1208.367632	-20.400000
1210.438179	2.200000
1212.504465	12.500000
1214.572152	1.400000
1216.637467	-2.700000
1218.704182	11.200000
1220.766641	-8.900000
1222.832385	-1.000000
1224.893875	-0.900000
1226.956766	-11.500000
1229.017289	10.200000
1231.077328	-4.800000
1233.136885	9.200000
1235.194076	-6.600000
1237.250786	4.000000
1239.305132	-5.100000
1241.362760	1.500000
1243.418025	4.400000
1245.469049	-8.700000
1247.521473	8.200000
1249.573417	-9.000000
1251.623003	-0.400000
1253.672110	-1.500000
1255.720739	-10.900000
1257.768889	-7.100000
1259.816560	10.000000
1261.860001	-12.000000
1263.906718	11.100000
1265.951081	-8.200000
1267.994968	3.500000
1270.036503	4.600000
1272.075689	-3.200000
1274.118148	-3.700000
1276.156384	-3.300000
1278.196019	1.800000
1280.235179	6.400000
1282.270120	-10.100000
1284.306460	11.300000
1286.340456	-4.200000
1288.375849	10.400000
1290.407030	1.900000
1292.439608	-12.500000
1294.471715	17.700000
1296.501481	5.300000
1298.532645	-2.800000
1300.559601	8.900000
1302.587955	-8.800000
1304.612104	4.300000
1306.639519	-8.800000
1308.662731	7.600000
1310.687341	-4.100000
1312.709617	1.300000
1314.733290	13.000000
1316.754630	-6.600000
1318.775502	1.300000
1320.795907	-5.500000
1322.812119	8.300000
1324.829728	11.100000
1326.845009	-18.100000
1328.863549	8.500000
1330.877900	-11.900000
1332.889925	-0.700000
1334.905207	-0.700000
1336.916304	-0.900000
1338.928798	-18.600000
1340.937109	2.000000
1342.948675	-4.600000
1344.954203	-3.400000
1346.962986	4.200000
1348.967591	1.300000
1350.975450	17.200000
1352.982847	9.600000
1354.984213	5.900000
1356.986975	4.900000
1358.989278	-0.300000
1360.991121	6.900000
1362.992504	-19.500000
1364.991574	12.500000
1366.990185	-13.400000
1368.988338	-12.200000
1370.986032	-3.100000
1372.979564	10.800000
1374.974491	-1.700000
1376.968962	-12.200000
1378.962976	5.300000
1380.954683	10.200000
1382.945935	-6.400000
1384.934881	-9.300000
1386.925222	-12.400000
1388.915108	1.600000
1390.902690	-3.500000
1392.889819	1.700000
1394.874646	-3.500000
1396.860868	2.000000
1398.844790	-11.300000
1400.828259	13.300000
1402.811275	-3.800000
1404.791994	8.000000
1406.774107	-3.300000
1408.753924	5.400000
1410.733289	-11.600000
1412.708516	-2.900000
1414.686981	-0.900000
1416.663153	-3.400000
1418.638876	-0.800000
1420.614149	5.100000
1422.587131	-3.200000
1424.559665	7.300000
1426.531751	1.900000
1428.503390	8.200000
1430.470900	-7.500000
1432.443484	9.400000
1434.408262	-6.300000
1436.378113	-3.300000
1438.343840	-6.200000
1440.310959	10.300000
1442.275795	2.300000
1444.236511	10.600000
1446.202295	6.500000
1448.162124	2.900000
1450.123347	-9.700000
1452.085962	8.800000
1454.044462	-4.900000
1456.002519	1.400000
1457.960135	-5.200000
1459.917308	9.200000
1461.872206	-5.000000
1463.828497	-15.200000
1465.782513	2.900000
1467.736088	13.700000
1469.687391	-6.500000
1471.640087	-4.200000
1473.590510	0.300000
1475.540495	-0.500000
1477.490041	-13.000000
1479.437318	14.000000
1481.382327	-10.500000
1483.328729	7.600000
1485.274693	-0.500000
1487.220220	-5.000000
1489.163481	4.500000
1491.106307	0.200000
1493.046869	9.600000
1494.988822	2.300000
1496.928513	-19.700000
1498.867770	-8.700000
1500.806591	-1.300000
1502.743153	-3.100000
1504.681106	5.300000
1506.616800	20.400000
1508.552061	-7.800000
1510.485066	7.900000
1512.417638	10.400000
1514.349778	-6.300000
1516.281486	-22.300000
1518.210940	1.200000
1520.141785	8.500000
1522.072198	9.500000
1523.998539	8.300000
1525.926271	-7.600000
1527.851752	-23.200000
1529.776804	10.700000
1531.701427	-2.400000
1533.625621	6.500000
1535.547567	-22.900000
1537.470904	2.000000
1539.391994	-3.400000
1541.310840	-1.500000
1543.231076	-5.300000
1545.149069	1.800000
1547.066635	-4.300000
1548.981959	9.900000
1550.898673	-8.600000
1552.811332	11.800000
1554.727195	-13.300000
1556.640818	11.100000
1558.552203	-10.900000
1560.464978	17.600000
1562.373703	-11.300000
1564.283817	10.800000
1566.193508	-11.000000
1568.102776	0.100000
1570.009810	-6.800000
1571.914611	10.600000
1573.820801	-13.500000
1575.724759	7.300000
1577.628296	2.100000
1579.531413	5.400000
1581.432300	-2.600000
1583.334576	1.200000
1585.234624	-1.600000
1587.136059	3.200000
1589.033461	-2.900000
1590.930444	-10.600000
1592.827009	-4.900000
1594.724962	2.900000
1596.617080	1.100000
1598.512391	9.300000
1600.407285	-5.600000
1602.299957	-7.700000
1604.192212	5.300000
1606.082248	22.900000
1607.971868	-7.500000
1609.861073	2.200000
1611.749863	1.500000
1613.636435	-5.000000
1615.524395	-8.700000
1617.408338	16.700000
1619.293668	-3.400000
1621.178585	3.500000
1623.061288	-13.000000
1624.945378	17.500000
1626.825456	-0.700000
1628.706922	0.400000
1630.586177	9.400000
1632.466818	6.600000
1634.341655	-6.800000
1636.221473	-5.400000
1638.097287	0.200000
1639.972690	-5.000000
1641.849479	-5.600000
1643.720472	12.000000
1645.594646	3.500000
1647.464821	-7.300000
1649.338178	-10.300000
1651.209331	-7.700000
1653.078282	-4.100000
1654.948618	-11.300000
1656.814962	-16.200000
1658.682691	6.000000
1660.548221	-5.900000
1662.415137	-7.600000
1664.278064	1.800000
1666.142376	19.700000
1668.004492	6.500000
1669.866203	11.200000
1671.729300	8.400000
1673.590201	-7.900000
1675.448910	-8.900000
1677.307215	15.000000
1679.166905	-5.100000
1681.020827	8.200000
1682.877923	7.300000
1684.734616	12.000000
1686.587332	17.800000
1688.443220	15.500000
1690.295134	10.200000
1692.146647	-2.400000
1693.997759	13.500000
1695.848471	33.000000
1697.698782	8.800000
1699.546908	-18.300000
1701.396419	-16.100000
1703.240181	12.200000
1705.088892	17.300000
1706.931857	10.400000
1708.777989	-22.400000
1710.620158	-1.000000
1712.465493	-3.200000
1714.305087	-5.000000
1716.146065	-0.200000
1717.988426	15.000000
1719.826831	-17.500000
1721.666619	4.900000
1723.504232	-4.200000
1725.341449	12.500000
1727.176493	-1.900000
1729.012920	-8.800000
1730.847175	-1.500000
1732.681035	19.000000
1734.514501	8.500000
1736.344022	12.800000
1738.176701	15.500000
1740.005436	3.600000
1741.837328	-5.000000
1743.665278	11.000000
1745.492837	-26.100000
1747.320003	5.300000
1749.146778	-3.100000
1750.973161	-1.900000
1752.795608	-3.700000
1754.621210	-5.800000
1756.442877	-3.900000
1758.265926	0.400000
1760.086813	-6.800000
1761.907312	-3.500000
1763.729191	5.300000
1765.545372	-6.800000
1767.364704	9.700000
1769.180109	-0.200000
1770.998664	-17.700000
1772.813294	0.100000
1774.627537	0.400000
1776.441394	-0.500000
1778.254864	-9.400000
1780.066181	8.300000
1781.878878	5.300000
1783.691190	13.300000
1785.499584	0.600000
1787.309358	2.100000
1789.115218	0.400000
1790.924223	20.000000
1792.729315	12.900000
1794.535788	2.500000
1796.341877	16.900000
1798.144055	2.500000
1799.949378	-8.300000
1801.750792	-2.800000
1803.553586	-1.400000
1805.352474	6.800000
1807.152743	7.900000
1808.952630	12.700000
1810.750375	3.200000
1812.547740	2.800000
1814.344725	11.700000
1816.141329	9.600000
1817.935794	-6.000000
1819.731638	3.100000
1821.521827	0.500000
1823.316913	4.900000
1825.106347	-10.600000
1826.898917	-13.400000
1828.689352	-17.800000
1830.477653	10.600000
1832.269089	-2.700000
1834.054879	-6.300000
1835.842049	-2.600000
1837.627087	4.600000
1839.415259	13.300000
1841.199545	17.300000
1842.981701	13.200000
1844.765237	-7.900000
1846.546644	3.400000
1848.329430	14.700000
1850.108335	-3.700000
1851.888620	6.300000
1853.666778	13.300000
1855.446315	4.600000
1857.223727	11.100000
1858.999015	-2.800000
1860.775681	6.400000
1862.550225	10.700000
1864.326147	15.000000
1866.096448	3.900000
1867.869877	-15.000000
1869.641186	9.600000
1871.412124	-6.400000
1873.184440	-7.100000
1874.951142	1.500000
1876.720970	15.700000
1878.486934	-18.300000
1880.256021	-0.700000
1882.021247	10.300000
1883.786105	4.800000
1885.552340	3.000000
1887.314716	10.500000
1889.076725	11.500000
1890.838366	5.900000
1892.599641	1.100000
1894.360548	4.100000
1896.121089	2.500000
1897.879520	-13.500000
1899.637585	11.100000
1901.393543	2.000000
1903.150877	2.900000
1904.907846	-1.300000
1906.662708	4.000000
1908.415466	-0.800000
1910.167859	-8.200000
1911.921629	-11.700000
1913.673295	-2.000000
1915.422859	7.900000
1917.173798	-18.100000
1918.924375	-16.800000
1920.671112	0.300000
1922.419226	1.100000
1924.165240	-12.200000
1925.912629	-4.000000
1927.657921	19.600000
1929.401115	11.100000
1931.145684	6.300000
1932.888158	15.400000
1934.630271	-1.300000
1936.372024	-9.600000
1938.113417	-3.500000
1939.852717	-22.300000
1941.591658	-2.500000
1943.330240	7.600000
1945.066731	-12.700000
1946.802864	-7.250000
1948.540371	-1.800000
1950.274056	16.900000
1952.009116	5.500000
1953.742087	3.900000
1955.474702	-12.300000
1957.206961	2.200000
1958.938863	7.100000
1960.668679	-12.200000
1962.396410	-8.500000
1964.125516	8.900000
1965.854267	-3.400000
1967.580934	-18.700000
1969.307247	-9.000000
1971.034933	-1.200000
1972.757083	0.500000
1974.482334	-1.300000
1976.203778	3.000000
1977.928323	19.200000
1979.650787	-18.600000
1981.369449	-5.900000
1983.091209	-8.100000
1984.809167	10.200000
1986.528498	3.900000
1988.244030	6.800000
1989.964382	-5.900000
1991.680936	15.900000
1993.393693	3.500000
1995.109546	8.300000
1996.823327	13.100000
1998.536758	4.700000
2000.248118	-1.200000
2001.960850	-1.000000
2003.669792	-1.700000
2005.381826	-6.200000
2007.088352	-21.400000
2008.797969	2.200000
2010.505520	18.100000
2012.212722	5.900000
2013.917859	-7.900000
2015.622650	21.700000
2017.328812	29.600000
2019.031192	11.900000
2020.734943	-5.000000
2022.436632	-2.400000
2024.137976	3.900000
2025.838974	7.300000
2027.537911	6.400000
2029.238220	-1.800000
2030.934754	8.000000
2032.632659	-4.000000
2034.328505	0.900000
2036.027437	-7.400000
2037.720883	-0.600000
2039.415700	12.900000
2041.110175	-15.300000
2042.800881	-10.800000
2044.494671	5.500000
2046.184694	0.500000
2047.876088	15.000000
2049.565429	-13.900000
2051.256140	-13.000000
2052.943088	-6.000000
2054.629697	-6.200000
2056.317675	7.200000
2058.001894	-3.000000
2059.687484	-0.600000
2061.372734	-3.700000
2063.055935	5.300000
2064.740507	-11.100000
2066.419616	4.700000
2068.103510	1.600000
2069.781943	-2.600000
2071.463454	1.800000
2073.141213	9.200000
2074.818636	-0.900000
2076.497428	1.600000
2078.174178	13.800000
2079.848886	-8.000000
2081.524963	1.100000
2083.199000	-10.200000
2084.872701	9.500000
2086.546067	-19.200000
2088.217394	8.800000
2089.888387	12.800000
2091.559046	4.600000
2093.229371	8.200000
2094.899362	1.500000
2096.567317	-0.200000
2098.234939	7.400000
2099.900526	2.500000
2101.567482	-7.200000
2103.232405	8.600000
2104.896996	15.800000
2106.559555	-8.700000
2108.223482	-6.400000
2109.885378	4.600000
2111.546944	1.000000
2113.208178	-7.800000
2114.867384	6.300000
2116.526259	-3.700000
2118.184805	-4.400000
2119.843020	-8.200000
2121.497513	-2.600000
2123.155070	1.100000
2124.812298	8.900000
2126.465804	-1.300000
2128.120678	-13.100000
2129.771833	3.400000
2131.426051	-7.800000
2133.076552	-19.200000
2134.728419	-9.300000
2136.374878	13.000000
2138.026092	-13.700000
2139.673592	3.600000
2141.322459	-16.400000
2142.969307	-9.300000
2144.615830	7.300000
2146.262027	21.400000
2147.904516	-17.600000
2149.550063	8.400000
2151.191903	6.400000
2152.836800	14.700000
2154.477991	16.100000
2156.118860	11.100000
2157.759404	-18.200000
2159.397936	14.900000
2161.037834	-6.800000
2162.674032	5.100000
2164.311596	11.500000
2165.948838	6.300000
2167.584070	9.800000
2169.218981	9.700000
2170.853569	-6.000000
2172.487837	0.400000
2174.118411	2.600000
2175.752037	3.500000
2177.381971	6.900000
2179.013270	2.400000
2180.642564	-11.800000
2182.271539	3.000000
2183.900194	10.800000
2185.528530	-7.100000
2187.154864	-0.500000
2188.780879	-13.300000
2190.404892	-11.200000
2192.030271	2.300000
2193.653649	3.000000
2195.278392	-13.000000
2196.899454	5.200000
2198.520199	-4.500000
2200.142309	-0.300000
2201.762421	-11.100000
2203.380536	7.200000
2204.998336	-14.800000
2206.615821	13.400000
2208.232990	11.400000
2209.849844	-9.400000
2211.466382	17.900000
2213.080928	5.800000
2214.693481	4.600000
2216.307398	0.400000
2217.919324	1.900000
2219.532613	-6.700000
2221.143912	6.900000
2222.753221	-2.600000
2224.363894	2.500000
2225.972578	2.600000
2227.580949	3.800000
2229.187334	-0.800000
2230.795082	-1.200000
2232.400843	6.400000
2234.006293	9.300000
2235.609758	-12.600000
2237.214586	-5.900000
2238.817430	12.800000
2240.418291	0.700000
2242.020515	-10.000000
2243.620757	4.800000
2245.222361	1.500000
2246.820312	13.100000
2248.419626	16.100000
2250.016960	8.200000
2251.613986	17.200000
2253.212374	3.300000
2254.807113	3.000000
2256.399875	9.500000
2257.994000	-4.200000
2259.589486	-18.200000
2261.181327	-5.600000
2262.772862	-3.600000
2264.365759	17.800000
2265.953346	-10.000000
2267.545629	-0.900000
2269.132606	-2.700000
2270.722610	3.900000
2272.307310	15.100000
2273.896704	-20.600000
2275.480796	-1.500000
2277.066248	-15.800000
2278.649732	7.200000
2280.236241	-8.100000
2281.819117	14.900000
2283.401690	10.800000
2284.983959	-8.500000
2286.562598	7.400000
2288.144262	1.000000
2289.722297	-7.500000
2291.303355	4.500000
2292.880786	1.550000
2294.456254	-1.400000
2296.034744	6.400000
2297.609610	6.400000
2299.184175	1.900000
2300.758440	-4.800000
2302.332404	-12.800000
2303.906067	5.500000
2305.479431	-2.800000
2307.049176	1.000000
2308.618622	-6.800000
2310.191086	11.600000
2311.758276	-8.800000
2313.328484	-5.200000
2314.895077	4.500000
2316.463030	-22.700000
2318.029027	0.700000
2319.594727	-14.800000
2321.160129	4.400000
2322.723578	14.600000
2324.288386	-9.700000
2325.849586	-11.300000
2327.413800	13.100000
2328.972752	8.300000
2330.534719	11.600000
2332.094734	-3.000000
2333.654455	12.000000
2335.212226	7.000000
2336.769702	-4.700000
2338.326884	11.000000
2339.882118	-18.300000
2341.437059	1.000000
2342.991705	-5.400000
2344.546058	4.600000
2346.100118	-31.900000
2347.653883	-3.200000
2349.205704	-7.800000
2350.755583	0.500000
2352.308469	5.200000
2353.856112	-2.700000
2355.406764	-11.600000
2356.953824	7.500000
2358.502242	6.800000
2360.050369	19.500000
2361.594907	-7.000000
2363.140803	-0.200000
2364.684761	16.800000
2366.230076	0.100000
2367.771806	7.600000
2369.314893	4.600000
2370.856044	-0.400000
2372.396906	-19.400000
2373.937479	3.800000
2375.477763	6.100000
2377.017758	2.500000
2378.554175	-12.500000
2380.093593	8.600000
2381.629433	-5.800000
2383.166631	-14.900000
2384.700253	-4.800000
2386.236875	-12.500000
2387.771567	-8.100000
2389.304329	12.400000
2390.836804	-6.100000
2392.367351	5.200000
2393.900896	-4.500000
2395.429230	3.000000
2396.958921	16.000000
2398.488325	9.000000
2400.017445	23.300000
2401.546280	-13.900000
2403.069909	-2.400000
2404.598174	-7.200000
2406.121237	3.800000
2407.648933	5.700000
2409.169790	-6.700000
2410.695280	-1.400000
2412.217209	6.700000
2413.740494	-7.600000
2415.261857	-12.100000
2416.781301	1.700000
2418.302100	-2.000000
2419.820981	-9.400000
2421.339579	2.600000
2422.856260	-2.100000
2424.374295	3.000000
2425.892049	11.200000
2427.406252	-14.100000
2428.920174	31.200000
2430.433816	-10.200000
2431.948813	-3.000000
2433.460261	5.300000
2434.973064	-8.800000
2436.483953	-3.200000
2437.994564	-0.400000
2439.503263	8.100000
2441.014948	1.200000
2442.523090	-4.300000
2444.030954	5.100000
2445.538540	17.000000
2447.042585	-12.800000
2448.549615	-0.900000
2450.054737	0.700000
2451.559582	7.400000
2453.062520	1.000000
2454.565182	2.300000
2456.067567	2.800000
2457.568047	2.000000
2459.069880	1.100000
2460.569808	-3.800000
2462.069461	14.700000
2463.568839	-15.600000
2465.066314	-10.800000
2466.561887	-3.900000
2468.060440	5.100000
2469.555465	-5.400000
2471.051842	-1.800000
2472.544693	7.700000
2474.038897	22.500000
2475.532827	7.700000
2477.023233	17.900000
2478.516617	2.200000
2480.008103	6.400000
2481.497692	-10.000000
2482.987009	14.200000
2484.474430	-7.000000
2485.964827	2.400000
2487.451706	-9.000000
2488.939936	5.300000
2490.424649	5.600000
2491.909093	-2.700000
2493.394887	3.000000
2494.878790	0.800000
2496.364043	16.900000
2497.844163	-6.300000
2499.327256	1.000000
2500.808458	-6.800000
2502.289391	9.200000
2503.768435	0.400000
2505.247210	-9.600000
2506.725717	-4.600000
2508.203956	0.900000
2509.681926	-14.100000
2511.156391	-6.700000
2512.633826	-13.200000
2514.107757	-2.100000
2515.583038	-5.300000
2517.058052	-0.200000
2518.529565	-1.100000
2520.002429	-12.200000
2521.473410	-14.800000
2522.945741	11.800000
2524.412958	3.000000
2525.883142	8.300000
2527.351445	-8.700000
2528.819483	6.200000
2530.287256	-2.800000
2531.754764	4.000000
2533.222007	-24.000000
2534.685758	8.700000
2536.150859	-6.300000
2537.614083	1.600000
2539.078656	-6.500000
2540.539741	5.900000
2542.002175	-3.000000
2543.464346	-0.500000
2544.923031	-2.000000
2546.386287	-17.800000
2547.844448	-13.700000
2549.303957	7.600000
2550.758372	-0.500000
2552.217358	-0.500000
2553.674472	-10.100000
2555.129715	28.300000
2556.584696	1.700000
2558.037809	-5.100000
2559.492270	3.600000
2560.944861	-16.800000
2562.397193	8.400000
2563.847658	7.500000
2565.301078	-2.500000
2566.749416	0.700000
2568.200709	-6.600000
2569.650137	8.200000
2571.096092	-15.300000
2572.545002	-5.000000
2573.990442	-13.300000
2575.437229	-13.200000
2576.882154	-22.200000
2578.326820	-13.400000
2579.772834	-3.300000
2581.215382	-7.600000
2582.659277	-3.400000
2584.099707	1.200000
2585.541484	-3.600000
2586.981402	-5.800000
2588.422667	-3.300000
2589.860470	-2.200000
2591.301223	11.200000
2592.736914	21.300000
2594.175554	-4.400000
2595.612336	0.900000
2597.047263	-0.200000
2598.485137	9.500000
2599.917954	-10.600000
2601.352118	2.500000
2602.784428	-5.300000
2604.218084	4.600000
2605.649887	5.000000
2607.081436	2.100000
2608.512733	1.100000
2609.942177	23.500000
2611.371369	5.000000
2612.798711	8.200000
2614.227398	11.300000
2615.655834	1.500000
2617.080822	-3.700000
2618.507157	-15.200000
2619.931643	-7.600000
2621.357475	6.000000
2622.779863	13.500000
2624.203597	3.200000
2625.625484	-16.900000
2627.047122	17.100000
2628.466914	-5.200000
2629.888052	-2.300000
2631.308940	-15.000000
2632.726390	-3.100000
2634.146779	-4.700000
2635.563731	-1.000000
2636.980434	-8.200000
2638.396889	-4.400000
2639.813096	-9.400000
2641.229055	11.900000
2642.643173	14.600000
2644.057043	-15.500000
2645.469075	12.500000
2646.882450	6.700000
2648.292396	-22.800000
2649.705278	3.500000
2651.114731	0.600000
2652.523938	8.100000
2653.931309	-3.400000
2655.341614	-4.400000
2656.750084	4.200000
2658.156718	-8.400000
2659.563107	-17.100000
2660.967662	2.200000
2662.373561	-12.800000
2663.777627	16.300000
2665.181448	4.100000
2666.585025	10.000000
2667.986771	2.600000
2669.389860	-6.700000
2670.789531	2.500000
2672.190546	-0.700000
2673.588145	-2.300000
2674.988674	-2.500000
2676.385787	-10.300000
2677.784244	19.100000
2679.180874	-2.200000
2680.577261	10.200000
2681.973406	-0.200000
2683.367725	-5.700000
2684.763387	-19.000000
2686.155640	5.600000
2687.549235	1.600000
2688.941006	-4.400000
2690.334120	9.600000
2691.725410	8.800000
2693.114877	5.500000
2694.504104	0.400000
2695.893092	-0.200000
2697.283421	21.600000
2698.668767	-2.400000
2700.057036	-1.000000
2701.443485	-4.400000
2702.829695	-4.700000
2704.215666	-25.100000
2705.598239	5.000000
2706.982154	-3.500000
2708.365831	2.400000
2709.749269	3.000000
2711.129313	-14.500000
2712.510697	-8.200000
2713.890267	14.900000
2715.271177	13.300000
2716.650273	6.800000
2718.027555	-5.200000
2719.406178	-6.600000
2720.782988	2.700000
2722.159561	-13.800000
2723.535899	5.800000
2724.910426	4.800000
2726.286293	-3.100000
2727.658773	10.300000
2729.034169	-11.100000
2730.404605	-8.200000
2731.776382	-8.300000
2733.147924	13.500000
2734.517658	7.600000
2735.888733	4.600000
2737.257999	-2.500000
2738.627032	6.500000
2739.994259	-2.700000
2741.361252	1.600000
2742.728013	4.900000
2744.094542	8.900000
2745.459265	-12.900000
2746.823756	9.000000
2748.188016	-6.400000
2749.552043	-12.300000
2750.915839	-14.800000
2752.276261	6.000000
2753.639593	6.300000
2754.997983	5.100000
2756.359283	-10.400000
2757.717213	1.700000
2759.078051	-7.200000
2760.437090	-4.300000
2761.792760	-8.500000
2763.151338	-2.000000
2764.506549	9.300000
2765.861531	6.100000
2767.214717	-6.100000
2768.570809	7.700000
2769.923536	18.600000
2771.276036	12.500000
2772.628307	-7.700000
2773.981916	2.400000
2775.332165	-0.400000
2776.680619	12.500000
2778.031979	-4.800000
2779.379979	2.000000
2780.729317	-1.300000
2782.076863	3.000000
2783.424183	-6.300000
2784.771276	10.500000
2786.116578	-0.300000
2787.461653	15.000000
2788.806503	14.800000
2790.151127	-0.300000
2791.492399	5.700000
2792.835009	-4.800000
2794.177393	-0.300000
2795.519552	-0.800000
2796.858362	-5.600000
2798.200072	3.000000
2799.538434	-25.200000
2800.878132	15.400000
2802.216046	-5.100000
2803.552175	-5.000000
2804.888080	18.400000
2806.225323	3.400000
2807.560782	-12.900000
2808.896018	14.600000
2810.229471	-12.100000
2811.564261	2.000000
2812.895711	-13.400000
2814.230056	-2.400000
2815.559503	-2.800000
2816.890287	7.900000
2818.220849	14.200000
2819.549632	8.200000
2820.879751	10.400000
2822.208092	-4.400000
2823.536212	8.100000
2824.862554	-3.100000
2826.190233	-6.900000
2827.514578	13.700000
2828.840260	18.300000
2830.164166	-10.000000
2831.487853	-2.000000
2832.812875	-11.400000
2834.134567	-0.700000
2835.456041	6.500000
2836.777296	9.000000
2838.098332	4.000000
2839.417595	-7.200000
2840.738194	-9.700000
2842.057022	-4.700000
2843.375631	8.300000
2844.692469	2.100000
2846.009090	-3.900000
2847.325494	-6.500000
2848.640128	-1.600000
2849.956098	-5.400000
2851.268747	-12.400000
2852.582731	9.000000
2853.896499	24.500000
2855.210050	24.600000
2856.521835	16.000000
2857.831853	-12.500000
2859.143206	15.700000
2860.451244	0.000000
2861.760616	8.300000
2863.069774	5.800000
2864.378716	-3.900000
2865.685894	0.500000
2866.991310	-18.900000
2868.298060	2.800000
2869.603047	1.300000
2870.907821	-15.800000
2872.210833	-16.900000
2873.516726	-1.900000
2874.817765	19.600000
2876.120138	4.700000
2877.420751	9.500000
2878.722698	0.000000
2880.024431	3.100000
2881.322861	-1.100000
2882.622624	-6.900000
2883.920630	-18.500000
2885.218424	11.200000
2886.514462	7.500000
2887.811833	10.900000
2889.107448	10.100000
2890.402852	-5.800000
2891.698045	-1.200000
2892.989941	-15.700000
2894.284713	-0.500000
2895.576188	-1.300000
2896.868996	18.400000
2898.161594	10.600000
2899.450898	-7.000000
2900.741534	11.300000
2902.030419	-1.300000
2903.320636	1.600000
2904.607562	2.300000
2905.895820	-14.200000
2907.182329	-4.700000
2908.468629	-6.800000
2909.754722	17.700000
2911.039066	8.900000
2912.326281	3.700000
2913.608670	6.100000
2914.892391	-7.100000
2916.174366	-10.200000
2917.456133	-12.400000
2918.736156	4.300000
2920.019048	0.400000
2921.300195	10.000000
2922.578060	-16.600000
2923.858794	-0.100000
2925.136247	14.200000
2926.413494	-1.900000
2927.688999	13.200000
2928.967372	-7.500000
2930.240931	-9.200000
2931.517357	10.400000
2932.792042	6.300000
2934.064986	12.300000
2935.339262	3.400000
2936.611798	4.500000
2937.884129	6.600000
2939.153188	-3.600000
2940.425112	-0.200000
2941.695298	14.200000
2942.965280	9.500000
2944.235059	8.900000
2945.503102	-5.400000
2946.769408	1.800000
2948.035513	-10.100000
2949.302947	-2.400000
2950.568647	9.800000
2951.834144	6.300000
2953.099439	-0.100000
2954.361469	-3.900000
2955.624829	0.800000
2956.887988	5.900000
2958.149415	-3.000000
2959.412171	-0.200000
2960.673195	12.700000
2961.932489	15.700000
2963.191583	-19.500000
2964.450476	-3.800000
2965.709169	10.200000
2966.967662	11.600000
2968.224426	4.200000
2969.480990	2.200000
2970.735827	8.600000
2971.991992	5.900000
2973.244903	5.700000
2974.499143	3.100000
2975.753184	-1.900000
2977.005499	0.400000
2978.257615	8.500000
2979.508007	-6.800000
2980.761254	-11.400000
2982.009724	0.100000
2983.261049	-10.000000
2984.509124	0.000000
2985.757003	4.800000
2987.004684	12.400000
2988.252168	-13.300000
2989.497931	8.100000
2990.743498	-8.800000
2991.990392	7.300000
2993.234042	-24.200000
2994.479020	1.700000
2995.720754	9.900000
2996.965340	4.000000
2998.208207	9.700000
2999.447833	6.500000
3000.690309	-7.000000
3001.929545	-7.700000
3003.170109	3.900000
3004.408957	2.300000
3005.647609	-6.500000
3006.884546	18.900000
3008.122811	-5.500000
3009.359360	-7.600000
3010.595716	5.900000
3011.831878	2.200000
3013.066326	0.000000
3014.300582	-3.200000
3015.534644	2.000000
3016.766994	-7.500000
3017.997632	-15.700000
3019.231116	-5.400000
3020.462888	24.000000
3021.692950	-12.700000
3022.922819	2.300000
3024.150980	-1.200000
3025.380466	-3.900000
3026.608243	-2.200000
3027.835829	3.900000
3029.064742	9.400000
3030.288912	-2.900000
3031.515925	2.300000
3032.739714	3.900000
3033.964830	3.400000
3035.188239	-17.100000
3036.411458	-1.700000
3037.632972	-9.300000
3038.857327	-5.900000
3040.076947	17.100000
3041.297893	9.300000
3042.518650	-12.500000
3043.737703	29.300000
3044.958081	5.000000
3046.175243	16.600000
3047.393731	4.400000
3048.610516	13.200000
3049.827114	-1.200000
3051.043523	10.200000
3052.256720	0.300000
3053.472754	-5.100000
3054.685576	-32.800000
3055.901235	12.700000
3057.112171	-6.200000
3058.324432	2.200000
3059.536507	1.600000
3060.748394	0.500000
3061.958585	-9.300000
3063.168589	9.400000
3064.378407	-3.800000
3065.586529	2.000000
3066.794466	3.900000
3068.000707	6.600000
3069.208273	-3.500000
3070.414144	-13.150000
3071.619831	-22.800000
3072.825332	0.700000
3074.029140	-11.600000
3075.234272	23.000000
3076.437711	9.100000
3077.639459	12.200000
3078.841022	4.400000
3080.042402	16.100000
3081.243598	-5.100000
3082.443104	4.800000
3083.642427	-3.000000
3084.843073	8.000000
3086.042029	-1.800000
3087.237791	9.300000
3088.436382	2.600000
3089.631779	-7.000000
3090.828499	8.000000
3092.022027	-6.300000
3093.218383	-5.600000
3094.413053	1.800000
3095.604532	-10.600000
3096.800342	-5.100000
3097.991458	-3.700000
3099.183898	-0.400000
3100.373150	-8.300000
3101.565227	11.800000
3102.755621	-3.900000
3103.942829	-21.400000
3105.131360	7.700000
3106.321212	-4.600000
3107.507881	-10.600000
3108.694369	0.400000
3109.880679	3.800000
3111.068310	-6.500000
3112.252759	16.900000
3113.435529	6.700000
3114.621121	-9.500000
3115.805034	14.800000
3116.987268	3.600000
3118.169323	-2.900000
3119.351200	1.900000
3120.532899	9.000000
3121.712921	-11.600000
3122.891266	11.100000
3124.072431	-15.600000
3125.250421	-10.600000
3126.428235	-5.500000
3127.605871	6.900000
3128.781832	8.400000
3129.957616	1.100000
3131.134722	-4.600000
3132.310153	15.700000
3133.483911	1.100000
3134.655996	-13.100000
3135.829403	-14.700000
3137.002633	-8.100000
3138.174192	1.800000
3139.347071	-5.100000
3140.516783	-18.900000
3141.687816	-15.100000
3142.857179	8.800000
3144.024871	3.800000
3145.195379	3.600000
3146.361229	-14.800000
3147.531387	12.000000
3148.696889	-4.600000
3149.862216	-2.300000
3151.027370	-4.000000
3152.192351	-7.700000
3153.358651	-10.300000
3154.520299	-10.300000
3155.683266	-5.800000
3156.846061	-3.800000
3158.008683	9.500000
3159.169640	-12.100000
3160.330424	9.500000
3161.491036	5.500000
3162.649984	-16.000000
3163.808761	1.800000
3164.967366	-2.800000
3166.125798	-2.500000
3167.284060	27.100000
3168.440659	2.600000
3169.595597	-3.100000
3170.751854	1.000000
3171.906450	-1.800000
3173.060876	-3.300000
3174.213642	13.200000
3175.366237	-11.800000
3176.518663	3.200000
3177.670919	5.000000
3178.823004	3.800000
3179.971944	-6.800000
3181.123690	11.900000
3182.273778	-0.600000
3183.422210	7.600000
3184.570472	-6.800000
3185.718566	-11.900000
3186.866491	0.300000
3188.012760	-6.100000
3189.158861	4.400000
3190.303308	-6.500000
3191.447587	-13.000000
3192.591698	8.300000
3193.737126	-5.900000
3194.879416	-6.400000
3196.021539	-4.600000
3197.163494	-4.600000
3198.305282	-24.700000
3199.446903	3.400000
3200.585389	-6.700000
3201.725192	7.700000
3202.866313	8.500000
3204.004299	-6.000000
3205.140636	2.100000
3206.276807	0.900000
3207.414295	4.900000
3208.550135	2.600000
3209.687292	5.600000
3210.819836	-11.300000
3211.956662	-2.400000
3213.088876	5.700000
3214.222407	7.400000
3215.355774	0.400000
3216.486013	-23.200000
3217.619050	2.300000
3218.748961	2.500000
3219.880188	-17.400000
3221.008291	-8.200000
3222.139190	9.700000
3223.268445	14.400000
3224.396057	12.800000
3225.520546	-6.400000
3226.649311	-10.800000
3227.774954	-22.000000
3228.900435	2.100000
3230.024274	-5.100000
3231.150907	10.800000
3232.272943	-0.400000
3233.396295	-2.500000
3234.519485	-14.400000
3235.642512	21.400000
3236.763901	-8.300000
3237.885127	0.700000
3239.004716	-6.800000
3240.124143	-2.800000
3241.241932	13.200000
3242.362513	-2.300000
3243.479981	-16.600000
3244.597288	1.400000
3245.714435	18.400000
3246.829946	13.000000
3247.946771	2.300000
3249.060487	-3.600000
3250.176992	-4.200000
3251.291863	8.400000
3252.403625	15.300000
3253.515227	12.500000
3254.628145	-39.200000
3255.740903	0.400000
3256.850555	1.400000
3257.961522	13.600000
3259.072330	-7.500000
3260.181506	9.800000
3261.289052	10.500000
3262.397911	-9.500000
3263.506613	-8.100000
3264.612212	17.100000
3265.719125	-1.000000
3266.824409	2.100000
3267.931007	0.300000
3269.034505	-8.000000
3270.139318	-11.200000
3271.243973	-4.000000
3272.345529	3.200000
3273.446929	-11.600000
3274.549643	-14.500000
3275.652201	-2.300000
3276.751662	6.200000
3277.853907	-3.900000
3278.953056	5.500000
3280.050581	-2.700000
3281.147950	11.800000
3282.248101	-4.400000
3283.345160	11.000000
3284.442063	3.400000
3285.538811	2.200000
3286.631001	6.800000
3287.727439	13.600000
3288.822255	-9.200000
3289.916917	-2.600000
3291.009957	-5.000000
3292.102842	-7.500000
3293.194108	4.400000
3294.286685	3.600000
3295.377643	12.900000
3296.466981	5.300000
3297.556166	-26.600000
3298.646664	-0.400000
3299.734077	6.300000
3300.821337	-11.100000
3301.909910	-9.800000
3302.998331	11.300000
3304.082204	-1.500000
3305.170319	-4.000000
3306.255352	-4.300000
3307.338770	12.600000
3308.423500	10.800000
3309.506614	-16.100000
3310.591041	10.200000
3311.672389	16.300000
3312.755049	10.200000
3313.836095	5.300000
3314.916990	2.800000
3315.996271	16.000000
3317.075402	21.400000
3318.155845	-8.500000
3319.233213	15.600000
3320.311893	0.200000
3321.388961	0.000000
3322.465880	10.200000
3323.541187	10.800000
3324.616345	-4.000000
3325.692814	16.000000
3326.766213	15.500000
3327.839463	7.800000
3328.914023	15.500000
3329.986975	7.800000
3331.058318	-4.200000
3332.130972	29.800000
3333.200560	5.300000
3334.271458	-13.600000
3335.340749	-13.200000
3336.411351	-4.700000
3337.480346	-5.200000
3338.547735	5.100000
3339.613519	-0.900000
3340.683529	13.700000
3341.750476	-9.600000
3342.814361	-10.800000
3343.881014	-14.500000
3344.946062	-16.100000
3346.009507	-3.700000
3347.072806	-10.200000
3348.135958	16.700000
3349.198964	10.200000
3350.261824	1.000000
3351.323082	14.800000
3352.381283	-3.800000
3353.443704	4.100000
3354.503070	-8.700000
3355.562290	7.500000
3356.622820	10.000000
3357.678840	-12.600000
3358.737624	-3.300000
3359.791901	-3.000000
3360.848942	-2.700000
3361.904384	-5.100000
3362.961136	-5.500000
3364.016289	-6.700000
3365.069845	-10.000000
3366.121805	6.100000
3367.176526	4.700000
3368.228198	11.700000
3369.279727	-11.800000
3370.332564	-3.700000
3371.382354	-10.500000
3372.433453	2.900000
3373.481506	-3.300000
3374.532318	-7.700000
3375.580086	6.900000
3376.627711	17.900000
3377.675193	-7.200000
3378.721083	-1.500000
3379.768281	5.600000
3380.812437	16.100000
3381.859351	8.900000
3382.904673	-22.000000
3383.946954	-17.200000
3384.989095	37.400000
3386.032543	8.800000
3387.075850	-3.400000
3388.117568	12.200000
3389.159144	-0.200000
3390.200579	-3.900000
3391.240426	2.500000
3392.278684	-4.800000
3393.318250	-4.400000
3394.357676	-18.100000
3395.395514	10.500000
3396.431765	9.300000
3397.467877	3.400000
3398.505296	-1.700000
3399.539682	-9.600000
3400.575375	1.800000
3401.610929	4.400000
3402.643452	10.400000
3403.678728	-0.500000
3404.710973	3.300000
3405.743080	5.000000
3406.773603	12.200000
3407.805433	5.500000
3408.837125	7.700000
3409.865789	0.200000
3410.894316	8.100000
3411.924149	-4.600000
3412.953845	14.800000
3413.980515	4.300000
3415.008492	-4.500000
3416.033444	2.300000
3417.061146	-8.100000
3418.085825	10.500000
3419.111810	-7.200000
3420.136215	-3.100000
3421.160484	-12.300000
3422.183174	4.700000
3423.205728	-3.100000
3424.229588	-6.100000
3425.250428	11.900000
3426.271132	-3.100000
3427.293143	-0.800000
3428.312135	-9.600000
3429.330991	14.400000
3430.351154	-9.400000
3431.368300	-0.200000
