-117.888313	24.100000
-115.218713	-3.000000
-112.552048	26.500000
-109.886135	7.700000
-107.223154	-5.000000
-104.558744	13.200000
-101.897264	32.000000
-99.234355	-15.500000
-96.576552	-9.800000
-93.917320	19.800000
-91.258836	-12.200000
-88.603276	-1.100000
-85.946288	-0.600000
-83.294398	10.200000
-80.641078	29.300000
-77.990677	28.800000
-75.338847	21.200000
-72.692108	-8.000000
-70.043940	23.600000
-67.396514	11.300000
-64.752002	5.300000
-62.106062	24.300000
-59.465203	7.900000
-56.822915	-3.700000
-54.183536	24.700000
-51.542727	27.500000
-48.902659	9.800000
-46.267663	6.000000
-43.631239	-5.700000
-40.997717	11.000000
-38.362767	31.400000
-35.732882	16.100000
-33.099405	22.700000
-30.470990	26.000000
-27.843309	32.600000
-25.214199	45.300000
-22.590146	48.000000
-19.962504	26.500000
-17.339915	66.600000
-14.718058	113.000000
-12.096931	205.800000
-9.476534	462.000000
-6.859026	1539.300000
-4.240089	5345.600000
-1.624037	11282.600000
0.991286	12229.300000
3.605882	6597.200000
6.217595	785.900000
8.830737	122.900000
11.438845	56.200000
14.050535	39.400000
16.657194	11.300000
19.265281	43.800000
21.872644	0.100000
24.474982	33.500000
27.080898	1.700000
29.681792	40.100000
32.284114	16.100000
34.881419	1.400000
37.482299	22.400000
40.078164	11.900000
42.675458	5.700000
45.272032	14.100000
47.863597	14.900000
50.456590	24.500000
53.046722	28.700000
55.638282	-5.600000
58.226982	5.700000
60.817109	23.200000
63.402237	13.200000
65.988793	26.800000
68.574635	28.100000
71.157623	0.900000
73.742037	8.100000
76.319323	21.400000
78.900175	19.000000
81.478178	2.600000
84.055471	10.600000
86.634190	22.800000
89.207927	3.700000
91.783092	24.900000
94.355413	17.400000
96.927026	31.800000
99.495799	19.200000
102.065999	22.900000
104.633361	-6.900000
107.202148	27.600000
109.768099	24.900000
112.331215	47.900000
114.897887	16.300000
117.455338	42.500000
120.018474	45.500000
122.576650	71.700000
125.138381	84.200000
127.695155	152.700000
130.253356	197.800000
132.806603	303.700000
135.359153	418.000000
137.915253	610.900000
140.466405	804.100000
143.016860	937.800000
145.566617	1061.000000
148.113555	1172.900000
150.659798	1211.300000
153.207466	1313.300000
155.754438	1321.000000
158.296475	1286.300000
160.837818	1246.600000
163.378468	1279.200000
165.920544	1260.700000
168.459808	1259.200000
170.996264	1250.600000
173.532028	1234.800000
176.069218	1227.900000
178.605717	1178.000000
181.139410	1199.800000
183.670299	1208.200000
186.200501	1199.800000
188.732127	1179.700000
191.260952	1182.200000
193.786978	1225.300000
196.312318	1204.700000
198.839083	1223.800000
201.363052	1231.800000
203.886336	1268.200000
206.408935	1242.800000
208.928741	1232.500000
211.447864	1252.000000
213.966304	1234.600000
216.486168	1245.000000
218.999031	1253.600000
221.515425	1244.900000
224.031137	1259.800000
226.541959	1251.900000
229.054206	1280.300000
231.563671	1224.800000
234.072457	1267.600000
236.580564	1261.500000
239.090096	1287.700000
241.594747	1262.700000
244.098722	1263.500000
246.604121	1274.900000
249.104645	1293.900000
251.608693	1291.900000
254.105769	1280.000000
256.606369	1255.800000
259.104197	1271.500000
261.601352	1293.300000
264.097834	1287.300000
266.589453	1294.900000
269.084592	1293.600000
271.576964	1295.000000
274.068666	1270.800000
276.557605	1305.400000
279.047968	1328.200000
281.535568	1319.800000
284.020409	1288.400000
286.508765	1300.100000
288.990181	1338.500000
291.475111	1304.300000
293.955196	1330.700000
296.438793	1338.800000
298.917547	1334.800000
301.397725	1363.100000
303.875150	1379.200000
306.351912	1334.700000
308.828011	1414.100000
311.301361	1410.600000
313.774049	1438.400000
316.246076	1516.400000
318.717442	1639.900000
321.186063	1694.100000
323.654026	1700.500000
326.123410	1577.800000
328.587972	1499.300000
331.056038	1463.500000
333.519284	1439.200000
335.981872	1414.300000
338.443804	1422.400000
340.905079	1418.600000
343.363620	1398.100000
345.823583	1424.800000
348.280813	1442.400000
350.737389	1446.800000
353.193311	1412.100000
355.646503	1438.100000
358.101118	1429.800000
360.550931	1436.400000
363.004240	1453.000000
365.452751	1432.300000
367.900610	1425.100000
370.349892	1430.200000
372.794380	1427.100000
375.240290	1399.600000
377.685550	1423.700000
380.128092	1431.000000
382.569986	1411.000000
385.011233	1378.100000
387.449764	1394.600000
389.889717	1417.500000
392.326956	1390.300000
394.761483	1375.300000
397.199498	1435.800000
399.632736	1401.700000
402.067395	1410.800000
404.497282	1402.400000
406.930654	1433.100000
409.359256	1406.000000
411.787216	1384.400000
414.216598	1405.800000
416.641214	1444.100000
419.067252	1447.400000
421.492649	1378.500000
423.917406	1378.100000
426.337405	1437.200000
428.758825	1405.200000
431.177548	1401.300000
433.597692	1394.800000
436.015141	1429.000000
438.434010	1416.100000
440.850186	1419.600000
443.261614	1432.000000
445.676520	1446.000000
448.088735	1398.400000
450.500316	1419.300000
452.911263	1388.100000
455.319524	1415.500000
457.727152	1375.500000
460.134148	1409.600000
462.540513	1346.100000
464.944195	1391.600000
467.347247	1356.600000
469.749669	1357.100000
472.151461	1353.700000
474.550576	1346.900000
476.951110	1346.700000
479.351015	1339.600000
481.746197	1340.200000
484.144846	1388.800000
486.538775	1393.500000
488.932078	1359.400000
491.324755	1340.500000
493.716807	1338.200000
496.110277	1300.300000
498.499035	1274.500000
500.885127	1257.100000
503.272639	1215.500000
505.659528	1162.600000
508.043753	1144.700000
510.429396	1115.700000
512.812378	1160.300000
515.192699	1115.500000
517.574439	1096.100000
519.953520	1081.300000
522.334020	1064.000000
524.711862	1069.600000
527.087049	1062.100000
529.461618	1050.900000
531.837605	1049.100000
534.210940	998.600000
536.585692	1041.900000
538.955759	1018.800000
541.325210	1030.200000
543.696079	999.000000
546.062268	1028.100000
548.429875	984.800000
550.794836	999.000000
553.159184	1007.200000
555.522919	985.000000
557.888072	1002.000000
560.248553	998.600000
562.610452	977.900000
564.969710	988.300000
567.326331	946.300000
569.686396	996.800000
572.039770	985.100000
574.396589	989.300000
576.750773	945.000000
579.104349	994.200000
581.457316	938.600000
583.807651	950.900000
586.159404	972.800000
588.504480	979.800000
590.855020	960.800000
593.198886	952.400000
595.548214	955.000000
597.892893	992.500000
600.234948	961.300000
602.578420	988.400000
604.919269	948.200000
607.259516	941.400000
609.597142	947.700000
611.938203	926.000000
614.274626	933.200000
616.612466	942.100000
618.947689	925.600000
621.280296	926.500000
623.614319	892.500000
625.945728	896.200000
628.276539	893.700000
630.606753	854.500000
632.936368	873.200000
635.261360	866.700000
637.591794	881.700000
639.917607	863.000000
642.240812	848.800000
644.565434	864.400000
646.887450	852.300000
649.208872	896.100000
651.527692	858.400000
653.847927	881.600000
656.167569	873.600000
658.484610	895.100000
660.801059	894.200000
663.114910	869.800000
665.430177	869.100000
667.742847	874.800000
670.056932	856.100000
672.366417	892.500000
674.677318	868.300000
676.985626	904.200000
679.293346	866.700000
681.602480	852.000000
683.907022	884.900000
686.210978	872.000000
688.514348	877.500000
690.819132	857.200000
693.119330	833.800000
695.420942	860.100000
697.721970	863.000000
700.018415	828.300000
702.316276	848.900000
704.613553	830.100000
706.910247	838.800000
709.202365	849.300000
711.497894	796.700000
713.788849	836.600000
716.081219	844.900000
718.371014	828.600000
720.660228	833.600000
722.948863	830.600000
725.234925	827.600000
727.522402	840.900000
729.807307	841.900000
732.091635	864.900000
734.373394	862.400000
736.656567	870.900000
738.939163	842.400000
741.217203	874.900000
743.496658	866.900000
745.775536	878.400000
748.053840	874.300000
750.327594	884.900000
752.602761	888.500000
754.877355	903.300000
757.149390	861.200000
759.422838	890.800000
761.693728	892.700000
763.962062	876.800000
766.231809	862.700000
768.499002	891.100000
770.765624	879.900000
773.031676	894.700000
775.295177	896.900000
777.560091	871.900000
779.824435	917.800000
782.084250	896.500000
784.345477	897.000000
786.606137	905.600000
788.864251	916.400000
791.119820	912.900000
793.378780	903.900000
795.631241	896.600000
797.889068	904.700000
800.142377	910.200000
802.393146	882.800000
804.645327	877.200000
806.894969	863.800000
809.146024	882.100000
811.392567	859.900000
813.640522	884.800000
815.885943	863.600000
818.132775	867.200000
820.379046	831.000000
822.620812	864.000000
824.865962	859.500000
827.104639	852.000000
829.346698	865.400000
831.584259	874.600000
833.823232	842.600000
836.059678	828.200000
838.297535	870.200000
840.532867	827.100000
842.765676	842.800000
844.999896	838.600000
847.231593	834.500000
849.462736	842.500000
851.693324	800.100000
853.923358	838.100000
856.152838	780.300000
858.377836	805.900000
860.606209	784.600000
862.830102	801.600000
865.055407	813.600000
867.276236	816.500000
869.500437	816.500000
871.720165	813.600000
873.941303	824.200000
876.161891	805.800000
878.379970	824.500000
880.599458	795.700000
882.814480	809.900000
885.028955	817.200000
887.242881	809.300000
889.456261	771.500000
891.669093	767.900000
893.881379	798.000000
896.091162	794.700000
898.300400	751.300000
900.509093	768.200000
902.715287	768.800000
904.922890	757.100000
907.127995	770.000000
909.332557	775.000000
911.534624	760.900000
913.738100	790.800000
915.939082	787.900000
918.139522	783.200000
920.341371	838.800000
922.536829	800.400000
924.735646	840.300000
926.930024	799.800000
929.127760	838.500000
931.321060	824.000000
933.515769	816.500000
935.707992	830.100000
937.899676	837.600000
940.090823	848.200000
942.279487	836.100000
944.467615	861.500000
946.653262	872.200000
948.842261	901.100000
951.026837	879.100000
953.210878	888.300000
955.398269	890.600000
957.577356	902.100000
959.759794	921.000000
961.941698	921.500000
964.121127	945.300000
966.298084	916.800000
968.476449	949.600000
970.656221	916.800000
972.829644	942.500000
975.006413	978.700000
977.178775	967.900000
979.352545	978.400000
981.521911	956.900000
983.694621	985.100000
985.864866	1023.800000
988.034582	1004.000000
990.203769	1014.600000
992.368559	988.000000
994.536690	1010.600000
996.700427	1000.900000
998.865570	972.800000
1001.028254	985.000000
1003.190413	1001.900000
1005.350115	991.100000
1007.509292	1018.300000
1009.669876	1014.200000
1011.828006	1030.400000
1013.985611	1037.500000
1016.142693	1015.300000
1018.299251	1025.200000
1020.451430	1033.900000
1022.605016	1007.600000
1024.758080	1012.700000
1026.908695	1019.000000
1029.060717	1039.600000
1031.208365	1027.300000
1033.359345	1040.000000
1035.505954	1044.200000
1037.652044	1066.100000
1039.797616	1060.300000
1041.944593	1066.000000
1044.085281	1072.000000
1046.229299	1097.400000
1048.370876	1098.500000
1050.511937	1108.200000
1052.654402	1059.800000
1054.790588	1088.700000
1056.930099	1096.200000
1059.065256	1127.100000
1061.203737	1114.700000
1063.337864	1122.500000
1065.471478	1098.500000
1067.606497	1096.400000
1069.737166	1093.600000
1071.869240	1073.700000
1073.998885	1075.600000
1076.128018	1095.000000
1078.256639	1070.300000
1080.384749	1072.800000
1082.510433	1052.700000
1084.635607	1071.800000
1086.762185	1015.000000
1088.884425	1003.800000
1091.008070	1000.000000
1093.127380	1016.500000
1095.251920	1013.400000
1097.370214	1002.800000
1099.489913	1012.700000
1101.607193	984.400000
1103.723967	969.100000
1105.840234	962.900000
1107.954085	981.300000
1110.069341	990.100000
1112.180273	966.100000
1114.294518	982.500000
1116.404442	966.000000
1118.515770	966.400000
1120.626593	977.500000
1122.733100	1000.200000
1124.842917	998.300000
1126.948419	1009.200000
1129.055324	988.400000
1131.156014	994.900000
1133.261916	976.500000
1135.363509	975.900000
1137.466505	1002.700000
1139.569000	958.500000
1141.665288	971.700000
1143.766784	987.000000
1145.863976	944.900000
1147.960671	950.200000
1150.056867	949.600000
1152.152566	966.000000
1154.247766	956.200000
1156.340570	966.000000
1158.434777	958.500000
1160.522792	985.000000
1162.616005	965.400000
1164.703030	948.700000
1166.793354	948.500000
1168.879391	981.000000
1170.968725	944.600000
1173.051878	956.300000
1175.136433	962.500000
1177.222390	948.200000
1179.304065	930.800000
1181.387142	975.100000
1183.467833	921.700000
1185.548032	950.800000
1187.627740	933.900000
1189.706957	931.900000
1191.783792	938.300000
1193.858246	937.100000
1195.935991	912.300000
1198.009467	934.700000
1200.084343	935.500000
1202.154952	919.200000
1204.226962	943.600000
1206.296597	933.400000
1208.367632	919.900000
1210.438179	926.000000
1212.504465	921.600000
1214.572152	954.200000
1216.637467	927.000000
1218.704182	955.600000
1220.766641	910.800000
1222.832385	903.400000
1224.893875	933.400000
1226.956766	908.400000
1229.017289	920.400000
1231.077328	943.600000
1233.136885	920.900000
1235.194076	953.400000
1237.250786	939.800000
1239.305132	949.400000
1241.362760	960.100000
1243.418025	968.200000
1245.469049	957.500000
1247.521473	978.700000
1249.573417	960.000000
1251.623003	959.100000
1253.672110	958.800000
1255.720739	998.000000
1257.768889	956.900000
1259.816560	958.300000
1261.860001	925.300000
1263.906718	956.000000
1265.951081	982.700000
1267.994968	959.600000
1270.036503	998.300000
1272.075689	979.400000
1274.118148	958.500000
1276.156384	1018.800000
1278.196019	987.400000
1280.235179	1025.600000
1282.270120	1010.700000
1284.306460	1012.100000
1286.340456	1004.800000
1288.375849	1022.400000
1290.407030	1052.200000
1292.439608	1042.800000
1294.471715	1029.500000
1296.501481	1055.200000
1298.532645	1054.400000
1300.559601	1096.800000
1302.587955	1109.100000
1304.612104	1086.900000
1306.639519	1115.400000
1308.662731	1175.100000
1310.687341	1162.900000
1312.709617	1177.500000
1314.733290	1188.600000
1316.754630	1208.900000
1318.775502	1221.800000
1320.795907	1287.100000
1322.812119	1315.500000
1324.829728	1315.100000
1326.845009	1385.600000
1328.863549	1404.100000
1330.877900	1444.500000
1332.889925	1435.300000
1334.905207	1469.800000
1336.916304	1517.600000
1338.928798	1522.800000
1340.937109	1595.600000
1342.948675	1561.500000
1344.954203	1551.700000
1346.962986	1583.800000
1348.967591	1577.300000
1350.975450	1530.500000
1352.982847	1552.000000
1354.984213	1510.900000
1356.986975	1484.100000
1358.989278	1450.400000
1360.991121	1421.600000
1362.992504	1400.400000
1364.991574	1379.700000
1366.990185	1260.300000
1368.988338	1287.500000
1370.986032	1227.400000
1372.979564	1180.200000
1374.974491	1154.700000
1376.968962	1121.900000
1378.962976	1122.600000
1380.954683	1064.300000
1382.945935	1031.400000
1384.934881	1088.000000
1386.925222	1016.200000
1388.915108	1041.300000
1390.902690	1043.500000
1392.889819	993.000000
1394.874646	1003.900000
1396.860868	1026.800000
1398.844790	977.300000
1400.828259	1010.000000
1402.811275	973.300000
1404.791994	1016.300000
1406.774107	990.800000
1408.753924	981.300000
1410.733289	984.000000
1412.708516	967.500000
1414.686981	987.400000
1416.663153	966.300000
1418.638876	982.300000
1420.614149	1002.900000
1422.587131	1000.300000
1424.559665	996.200000
1426.531751	1012.800000
1428.503390	974.400000
1430.470900	994.400000
1432.443484	996.900000
1434.408262	988.600000
1436.378113	1007.800000
1438.343840	962.900000
1440.310959	1005.700000
1442.275795	961.400000
1444.236511	1005.500000
1446.202295	981.600000
1448.162124	991.800000
1450.123347	1000.900000
1452.085962	1011.000000
1454.044462	986.400000
1456.002519	1016.700000
1457.960135	1021.000000
1459.917308	1036.100000
1461.872206	1047.100000
1463.828497	1014.700000
1465.782513	1001.700000
1467.736088	1022.100000
1469.687391	1018.800000
1471.640087	1030.100000
1473.590510	996.100000
1475.540495	1001.100000
1477.490041	1012.900000
1479.437318	1041.000000
1481.382327	979.500000
1483.328729	1027.900000
1485.274693	1030.900000
1487.220220	1035.400000
1489.163481	1019.800000
1491.106307	1069.200000
1493.046869	1044.100000
1494.988822	1029.200000
1496.928513	1027.500000
1498.867770	1033.600000
1500.806591	1009.900000
1502.743153	1030.500000
1504.681106	1047.300000
1506.616800	1073.700000
1508.552061	1058.300000
1510.485066	1071.400000
1512.417638	1095.600000
1514.349778	1102.000000
1516.281486	1108.500000
1518.210940	1156.500000
1520.141785	1127.100000
1522.072198	1151.500000
1523.998539	1190.300000
1525.926271	1228.800000
1527.851752	1229.600000
1529.776804	1253.700000
1531.701427	1289.600000
1533.625621	1301.300000
1535.547567	1367.800000
1537.470904	1442.800000
1539.391994	1503.200000
1541.310840	1603.900000
1543.231076	1701.200000
1545.149069	1828.000000
1547.066635	1968.400000
1548.981959	2164.400000
1550.898673	2395.900000
1552.811332	2708.300000
1554.727195	3083.000000
1556.640818	3539.500000
1558.552203	3989.200000
1560.464978	4445.500000
1562.373703	4894.000000
1564.283817	5361.800000
1566.193508	5600.100000
1568.102776	5769.900000
1570.009810	5777.600000
1571.914611	5639.200000
1573.820801	5472.700000
1575.724759	5192.700000
1577.628296	4806.600000
1579.531413	4353.600000
1581.432300	3953.600000
1583.334576	3538.100000
1585.234624	3119.500000
1587.136059	2802.800000
1589.033461	2498.200000
1590.930444	2276.200000
1592.827009	2095.800000
1594.724962	1974.900000
1596.617080	1863.500000
1598.512391	1791.800000
1600.407285	1736.200000
1602.299957	1692.700000
1604.192212	1649.000000
1606.082248	1570.200000
1607.971868	1564.900000
1609.861073	1541.700000
1611.749863	1521.500000
1613.636435	1492.900000
1615.524395	1429.300000
1617.408338	1400.300000
1619.293668	1356.100000
1621.178585	1300.700000
1623.061288	1247.600000
1624.945378	1226.700000
1626.825456	1200.800000
1628.706922	1140.200000
1630.586177	1114.200000
1632.466818	1081.300000
1634.341655	1040.100000
1636.221473	1054.500000
1638.097287	1005.800000
1639.972690	1017.000000
1641.849479	1001.800000
1643.720472	995.200000
1645.594646	958.700000
1647.464821	960.800000
1649.338178	990.300000
1651.209331	977.700000
1653.078282	940.200000
1654.948618	938.200000
1656.814962	909.700000
1658.682691	950.000000
1660.548221	935.900000
1662.415137	905.600000
1664.278064	917.600000
1666.142376	876.600000
1668.004492	873.800000
1669.866203	856.400000
1671.729300	864.200000
1673.590201	893.700000
1675.448910	875.200000
1677.307215	869.700000
1679.166905	874.400000
1681.020827	846.900000
1682.877923	839.200000
1684.734616	861.000000
1686.587332	834.800000
1688.443220	853.800000
1690.295134	823.800000
1692.146647	820.400000
1693.997759	805.100000
1695.848471	795.500000
1697.698782	811.500000
1699.546908	797.800000
1701.396419	784.000000
1703.240181	778.100000
1705.088892	764.700000
1706.931857	774.500000
1708.777989	751.700000
1710.620158	775.600000
1712.465493	745.100000
1714.305087	755.100000
1716.146065	743.500000
1717.988426	751.300000
1719.826831	766.400000
1721.666619	757.100000
1723.504232	724.600000
1725.341449	759.800000
1727.176493	769.200000
1729.012920	767.200000
1730.847175	777.100000
1732.681035	772.600000
1734.514501	762.000000
1736.344022	755.700000
1738.176701	761.200000
1740.005436	773.700000
1741.837328	765.800000
1743.665278	773.600000
1745.492837	771.200000
1747.320003	759.500000
1749.146778	764.700000
1750.973161	773.700000
1752.795608	792.300000
1754.621210	749.800000
1756.442877	747.600000
1758.265926	774.000000
1760.086813	782.400000
1761.907312	787.800000
1763.729191	763.000000
1765.545372	767.400000
1767.364704	771.000000
1769.180109	751.600000
1770.998664	770.000000
1772.813294	759.800000
1774.627537	762.500000
1776.441394	781.400000
1778.254864	754.300000
1780.066181	758.300000
1781.878878	742.400000
1783.691190	745.800000
1785.499584	752.000000
1787.309358	740.900000
1789.115218	761.000000
1790.924223	743.500000
1792.729315	763.900000
1794.535788	743.900000
1796.341877	738.400000
1798.144055	753.100000
1799.949378	743.300000
1801.750792	750.200000
1803.553586	753.100000
1805.352474	774.400000
1807.152743	739.300000
1808.952630	747.600000
1810.750375	738.700000
1812.547740	758.400000
1814.344725	747.000000
1816.141329	751.400000
1817.935794	746.400000
1819.731638	756.600000
1821.521827	739.900000
1823.316913	756.900000
1825.106347	737.800000
1826.898917	777.500000
1828.689352	732.300000
1830.477653	721.700000
1832.269089	738.300000
1834.054879	739.100000
1835.842049	743.800000
1837.627087	767.200000
1839.415259	769.700000
1841.199545	780.000000
1842.981701	759.500000
1844.765237	770.900000
1846.546644	810.200000
1848.329430	780.500000
1850.108335	763.800000
1851.888620	787.500000
1853.666778	761.700000
1855.446315	755.100000
1857.223727	741.900000
1858.999015	743.200000
1860.775681	757.000000
1862.550225	753.300000
1864.326147	747.500000
1866.096448	766.200000
1867.869877	758.300000
1869.641186	774.300000
1871.412124	735.500000
1873.184440	745.000000
1874.951142	769.400000
1876.720970	764.500000
1878.486934	733.900000
1880.256021	767.600000
1882.021247	753.000000
1883.786105	721.600000
1885.552340	733.900000
1887.314716	736.000000
1889.076725	729.600000
1890.838366	734.700000
1892.599641	684.700000
1894.360548	710.900000
1896.121089	714.500000
1897.879520	747.900000
1899.637585	704.200000
1901.393543	728.000000
1903.150877	704.200000
1904.907846	720.800000
1906.662708	719.900000
1908.415466	712.800000
1910.167859	692.200000
1911.921629	701.900000
1913.673295	702.400000
1915.422859	714.200000
1917.173798	701.000000
1918.924375	726.600000
1920.671112	706.600000
1922.419226	732.700000
1924.165240	714.400000
1925.912629	747.000000
1927.657921	747.300000
1929.401115	740.800000
1931.145684	710.800000
1932.888158	725.700000
1934.630271	738.700000
1936.372024	738.000000
1938.113417	758.000000
1939.852717	727.300000
1941.591658	721.800000
1943.330240	757.600000
1945.066731	728.400000
1946.802864	720.350000
1948.540371	712.300000
1950.274056	726.200000
1952.009116	685.500000
1953.742087	735.200000
1955.474702	708.200000
1957.206961	709.200000
1958.938863	691.700000
1960.668679	734.500000
1962.396410	696.700000
1964.125516	735.000000
1965.854267	706.100000
1967.580934	700.200000
1969.307247	687.100000
1971.034933	704.800000
1972.757083	713.200000
1974.482334	726.200000
1976.203778	714.400000
1977.928323	719.000000
1979.650787	709.300000
1981.369449	715.400000
1983.091209	715.400000
1984.809167	712.800000
1986.528498	697.200000
1988.244030	712.600000
1989.964382	729.400000
1991.680936	730.300000
1993.393693	721.500000
1995.109546	744.100000
1996.823327	736.600000
1998.536758	736.700000
2000.248118	713.800000
2001.960850	746.500000
2003.669792	713.500000
2005.381826	748.900000
2007.088352	729.600000
2008.797969	736.900000
2010.505520	705.500000
2012.212722	762.300000
2013.917859	741.700000
2015.622650	704.200000
2017.328812	722.200000
2019.031192	724.400000
2020.734943	700.700000
2022.436632	688.900000
2024.137976	703.500000
2025.838974	728.800000
2027.537911	702.300000
2029.238220	727.900000
2030.934754	685.800000
2032.632659	725.500000
2034.328505	671.000000
2036.027437	727.800000
2037.720883	715.800000
2039.415700	732.300000
2041.110175	714.100000
2042.800881	709.100000
2044.494671	723.000000
2046.184694	719.400000
2047.876088	705.700000
2049.565429	701.900000
2051.256140	689.300000
2052.943088	700.900000
2054.629697	691.000000
2056.317675	710.700000
2058.001894	672.000000
2059.687484	716.300000
2061.372734	704.200000
2063.055935	693.900000
2064.740507	684.900000
2066.419616	698.800000
2068.103510	674.900000
2069.781943	673.200000
2071.463454	676.400000
2073.141213	673.800000
2074.818636	681.200000
2076.497428	673.900000
2078.174178	687.800000
2079.848886	699.500000
2081.524963	692.200000
2083.199000	713.500000
2084.872701	677.700000
2086.546067	726.700000
2088.217394	716.400000
2089.888387	686.600000
2091.559046	701.400000
2093.229371	740.200000
2094.899362	729.800000
2096.567317	701.100000
2098.234939	735.400000
2099.900526	752.300000
2101.567482	756.900000
2103.232405	733.200000
2104.896996	711.900000
2106.559555	729.100000
2108.223482	711.900000
2109.885378	710.900000
2111.546944	739.100000
2113.208178	719.900000
2114.867384	720.500000
2116.526259	703.700000
2118.184805	720.200000
2119.843020	721.900000
2121.497513	720.900000
2123.155070	741.300000
2124.812298	721.200000
2126.465804	739.100000
2128.120678	702.800000
2129.771833	736.400000
2131.426051	720.500000
2133.076552	714.100000
2134.728419	704.900000
2136.374878	709.700000
2138.026092	690.300000
2139.673592	717.800000
2141.322459	705.100000
2142.969307	699.600000
2144.615830	710.600000
2146.262027	725.800000
2147.904516	711.500000
2149.550063	716.400000
2151.191903	725.700000
2152.836800	725.000000
2154.477991	719.800000
2156.118860	748.000000
2157.759404	703.300000
2159.397936	708.300000
2161.037834	683.800000
2162.674032	702.000000
2164.311596	702.000000
2165.948838	719.400000
2167.584070	685.900000
2169.218981	701.900000
2170.853569	701.200000
2172.487837	709.600000
2174.118411	727.100000
2175.752037	716.900000
2177.381971	695.500000
2179.013270	692.900000
2180.642564	653.700000
2182.271539	691.700000
2183.900194	678.000000
2185.528530	702.800000
2187.154864	692.600000
2188.780879	710.100000
2190.404892	670.900000
2192.030271	700.300000
2193.653649	704.400000
2195.278392	708.100000
2196.899454	694.500000
2198.520199	733.300000
2200.142309	709.000000
2201.762421	722.600000
2203.380536	706.600000
2204.998336	713.300000
2206.615821	675.300000
2208.232990	704.900000
2209.849844	694.100000
2211.466382	698.700000
2213.080928	695.800000
2214.693481	700.800000
2216.307398	677.700000
2217.919324	701.800000
2219.532613	677.400000
2221.143912	681.300000
2222.753221	672.600000
2224.363894	678.300000
2225.972578	656.000000
2227.580949	684.500000
2229.187334	667.400000
2230.795082	670.800000
2232.400843	660.500000
2234.006293	704.100000
2235.609758	702.800000
2237.214586	721.300000
2238.817430	702.400000
2240.418291	678.500000
2242.020515	692.600000
2243.620757	701.300000
2245.222361	715.500000
2246.820312	697.800000
2248.419626	689.400000
2250.016960	706.100000
2251.613986	660.500000
2253.212374	708.000000
2254.807113	689.900000
2256.399875	710.000000
2257.994000	723.900000
2259.589486	731.300000
2261.181327	703.800000
2262.772862	720.900000
2264.365759	739.000000
2265.953346	734.400000
2267.545629	745.500000
2269.132606	734.500000
2270.722610	728.100000
2272.307310	719.600000
2273.896704	713.200000
2275.480796	718.300000
2277.066248	694.600000
2278.649732	690.700000
2280.236241	674.700000
2281.819117	696.000000
2283.401690	684.200000
2284.983959	687.200000
2286.562598	709.400000
2288.144262	700.600000
2289.722297	694.900000
2291.303355	715.500000
2292.880786	710.150000
2294.456254	704.800000
2296.034744	684.700000
2297.609610	705.200000
2299.184175	687.600000
2300.758440	670.200000
2302.332404	656.100000
2303.906067	674.700000
2305.479431	653.400000
2307.049176	653.300000
2308.618622	652.600000
2310.191086	647.400000
2311.758276	654.900000
2313.328484	631.100000
2314.895077	661.300000
2316.463030	661.800000
2318.029027	681.000000
2319.594727	672.300000
2321.160129	652.700000
2322.723578	698.000000
2324.288386	670.000000
2325.849586	705.300000
2327.413800	755.100000
2328.972752	769.100000
2330.534719	744.300000
2332.094734	725.600000
2333.654455	684.300000
2335.212226	705.700000
2336.769702	663.600000
2338.326884	679.100000
2339.882118	844.900000
2341.437059	676.000000
2342.991705	689.000000
2344.546058	725.400000
2346.100118	683.500000
2347.653883	720.900000
2349.205704	689.000000
2350.755583	703.500000
2352.308469	668.600000
2353.856112	667.200000
2355.406764	676.400000
2356.953824	690.600000
2358.502242	716.200000
2360.050369	680.800000
2361.594907	672.800000
2363.140803	688.100000
2364.684761	687.900000
2366.230076	694.100000
2367.771806	678.900000
2369.314893	689.200000
2370.856044	690.100000
2372.396906	700.400000
2373.937479	709.100000
2375.477763	704.800000
2377.017758	711.800000
2378.554175	719.100000
2380.093593	695.800000
2381.629433	728.300000
2383.166631	691.100000
2384.700253	726.400000
2386.236875	707.800000
2387.771567	739.000000
2389.304329	743.600000
2390.836804	719.800000
2392.367351	685.500000
2393.900896	722.000000
2395.429230	733.900000
2396.958921	724.900000
2398.488325	728.000000
2400.017445	732.900000
2401.546280	715.500000
2403.069909	735.900000
2404.598174	733.700000
2406.121237	761.100000
2407.648933	714.600000
2409.169790	720.300000
2410.695280	721.500000
2412.217209	773.800000
2413.740494	746.700000
2415.261857	755.500000
2416.781301	775.100000
2418.302100	774.600000
2419.820981	804.200000
2421.339579	764.700000
2422.856260	761.500000
2424.374295	797.000000
2425.892049	760.200000
2427.406252	792.200000
2428.920174	789.400000
2430.433816	795.600000
2431.948813	778.100000
2433.460261	768.200000
2434.973064	795.500000
2436.483953	799.700000
2437.994564	795.500000
2439.503263	786.000000
2441.014948	782.400000
2442.523090	791.800000
2444.030954	800.900000
2445.538540	808.000000
2447.042585	783.300000
2448.549615	791.600000
2450.054737	791.400000
2451.559582	794.300000
2453.062520	785.200000
2454.565182	805.400000
2456.067567	774.800000
2457.568047	777.800000
2459.069880	769.800000
2460.569808	791.900000
2462.069461	802.100000
2463.568839	766.600000
2465.066314	743.400000
2466.561887	779.000000
2468.060440	749.000000
2469.555465	764.000000
2471.051842	778.200000
2472.544693	772.700000
2474.038897	754.600000
2475.532827	761.500000
2477.023233	760.800000
2478.516617	764.400000
2480.008103	758.200000
2481.497692	770.100000
2482.987009	735.900000
2484.474430	759.400000
2485.964827	740.300000
2487.451706	786.000000
2488.939936	735.200000
2490.424649	760.600000
2491.909093	741.100000
2493.394887	742.100000
2494.878790	728.400000
2496.364043	745.600000
2497.844163	732.800000
2499.327256	740.300000
2500.808458	722.700000
2502.289391	714.400000
2503.768435	717.100000
2505.247210	723.300000
2506.725717	727.100000
2508.203956	749.700000
2509.681926	726.000000
2511.156391	720.400000
2512.633826	713.600000
2514.107757	751.100000
2515.583038	720.400000
2517.058052	737.200000
2518.529565	707.100000
2520.002429	744.500000
2521.473410	705.900000
2522.945741	739.300000
2524.412958	732.800000
2525.883142	723.100000
2527.351445	705.100000
2528.819483	721.700000
2530.287256	733.400000
2531.754764	742.300000
2533.222007	735.200000
2534.685758	754.400000
2536.150859	724.300000
2537.614083	737.600000
2539.078656	729.200000
2540.539741	738.000000
2542.002175	764.400000
2543.464346	756.100000
2544.923031	721.200000
2546.386287	762.700000
2547.844448	764.500000
2549.303957	763.600000
2550.758372	774.100000
2552.217358	750.900000
2553.674472	768.800000
2555.129715	764.400000
2556.584696	766.800000
2558.037809	782.400000
2559.492270	751.700000
2560.944861	782.100000
2562.397193	751.200000
2563.847658	770.200000
2565.301078	758.000000
2566.749416	764.800000
2568.200709	788.700000
2569.650137	792.600000
2571.096092	810.500000
2572.545002	816.100000
2573.990442	794.700000
2575.437229	840.900000
2576.882154	797.700000
2578.326820	838.100000
2579.772834	808.100000
2581.215382	843.800000
2582.659277	831.500000
2584.099707	839.200000
2585.541484	827.300000
2586.981402	838.500000
2588.422667	842.800000
2589.860470	837.000000
2591.301223	873.000000
2592.736914	871.700000
2594.175554	881.700000
2595.612336	877.900000
2597.047263	885.200000
2598.485137	885.400000
2599.917954	862.200000
2601.352118	880.400000
2602.784428	900.600000
2604.218084	897.200000
2605.649887	891.600000
2607.081436	906.200000
2608.512733	902.300000
2609.942177	950.800000
2611.371369	939.700000
2612.798711	976.300000
2614.227398	936.700000
2615.655834	975.300000
2617.080822	973.200000
2618.507157	1000.200000
2619.931643	1026.500000
2621.357475	1019.900000
2622.779863	1031.200000
2624.203597	1057.900000
2625.625484	1093.600000
2627.047122	1102.300000
2628.466914	1117.800000
2629.888052	1151.100000
2631.308940	1167.200000
2632.726390	1195.400000
2634.146779	1210.100000
2635.563731	1237.000000
2636.980434	1247.300000
2638.396889	1252.000000
2639.813096	1311.000000
2641.229055	1317.200000
2642.643173	1306.000000
2644.057043	1350.800000
2645.469075	1356.000000
2646.882450	1381.600000
2648.292396	1383.600000
2649.705278	1451.900000
2651.114731	1464.700000
2652.523938	1526.500000
2653.931309	1517.900000
2655.341614	1535.400000
2656.750084	1553.400000
2658.156718	1601.100000
2659.563107	1617.200000
2660.967662	1673.500000
2662.373561	1672.800000
2663.777627	1697.800000
2665.181448	1713.500000
2666.585025	1764.200000
2667.986771	1797.000000
2669.389860	1836.500000
2670.789531	1816.900000
2672.190546	1858.300000
2673.588145	1903.100000
2674.988674	1934.400000
2676.385787	1926.500000
2677.784244	1970.600000
2679.180874	1948.700000
2680.577261	1952.900000
2681.973406	1946.800000
2683.367725	1993.100000
2684.763387	1960.300000
2686.155640	1966.100000
2687.549235	1960.000000
2688.941006	1975.200000
2690.334120	1949.700000
2691.725410	1891.900000
2693.114877	1937.000000
2694.504104	1920.800000
2695.893092	1871.300000
2697.283421	1882.600000
2698.668767	1883.900000
2700.057036	1864.400000
2701.443485	1803.600000
2702.829695	1855.300000
2704.215666	1815.100000
2705.598239	1790.700000
2706.982154	1740.900000
2708.365831	1717.500000
2709.749269	1718.200000
2711.129313	1699.200000
2712.510697	1672.700000
2713.890267	1646.200000
2715.271177	1614.500000
2716.650273	1599.900000
2718.027555	1535.600000
2719.406178	1536.700000
2720.782988	1461.500000
2722.159561	1461.100000
2723.535899	1393.700000
2724.910426	1374.500000
2726.286293	1346.300000
2727.658773	1310.200000
2729.034169	1277.200000
2730.404605	1226.300000
2731.776382	1200.300000
2733.147924	1195.600000
2734.517658	1155.000000
2735.888733	1124.100000
2737.257999	1108.700000
2738.627032	1077.400000
2739.994259	1030.400000
2741.361252	1027.700000
2742.728013	946.700000
2744.094542	971.800000
2745.459265	923.600000
2746.823756	923.800000
2748.188016	906.700000
2749.552043	874.400000
2750.915839	878.700000
2752.276261	846.500000
2753.639593	824.900000
2754.997983	830.200000
2756.359283	814.300000
2757.717213	832.900000
2759.078051	795.400000
2760.437090	799.400000
2761.792760	797.800000
2763.151338	755.200000
2764.506549	764.200000
2765.861531	757.000000
2767.214717	749.000000
2768.570809	762.800000
2769.923536	782.200000
2771.276036	776.000000
2772.628307	765.000000
2773.981916	746.600000
2775.332165	746.800000
2776.680619	748.700000
2778.031979	745.400000
2779.379979	749.200000
2780.729317	724.000000
2782.076863	756.000000
2783.424183	734.000000
2784.771276	735.700000
2786.116578	730.900000
2787.461653	720.400000
2788.806503	692.700000
2790.151127	694.900000
2791.492399	723.800000
2792.835009	700.600000
2794.177393	690.500000
2795.519552	695.400000
2796.858362	682.300000
2798.200072	709.400000
2799.538434	688.100000
2800.878132	686.800000
2802.216046	661.100000
2803.552175	693.200000
2804.888080	692.700000
2806.225323	695.100000
2807.560782	679.300000
2808.896018	694.400000
2810.229471	683.800000
2811.564261	710.200000
2812.895711	696.500000
2814.230056	727.700000
2815.559503	702.200000
2816.890287	683.000000
2818.220849	663.700000
2819.549632	684.400000
2820.879751	674.500000
2822.208092	674.900000
2823.536212	671.100000
2824.862554	665.600000
2826.190233	651.000000
2827.514578	681.100000
2828.840260	640.600000
2830.164166	674.100000
2831.487853	676.600000
2832.812875	663.300000
2834.134567	634.400000
2835.456041	659.600000
2836.777296	663.400000
2838.098332	670.100000
2839.417595	619.800000
2840.738194	662.700000
2842.057022	624.000000
2843.375631	641.900000
2844.692469	665.300000
2846.009090	656.700000
2847.325494	642.300000
2848.640128	660.200000
2849.956098	633.200000
2851.268747	655.600000
2852.582731	645.200000
2853.896499	657.100000
2855.210050	675.200000
2856.521835	671.000000
2857.831853	660.300000
2859.143206	678.500000
2860.451244	661.200000
2861.760616	665.300000
2863.069774	653.600000
2864.378716	632.800000
2865.685894	679.200000
2866.991310	665.100000
2868.298060	631.300000
2869.603047	671.100000
2870.907821	653.200000
2872.210833	672.300000
2873.516726	631.500000
2874.817765	676.700000
2876.120138	659.500000
2877.420751	637.700000
2878.722698	653.200000
2880.024431	683.900000
2881.322861	642.700000
2882.622624	647.900000
2883.920630	664.900000
2885.218424	643.600000
2886.514462	632.700000
2887.811833	650.100000
2889.107448	639.300000
2890.402852	665.000000
2891.698045	628.400000
2892.989941	645.600000
2894.284713	630.400000
2895.576188	634.300000
2896.868996	649.600000
2898.161594	644.100000
2899.450898	633.800000
2900.741534	641.200000
2902.030419	620.100000
2903.320636	640.900000
2904.607562	633.500000
2905.895820	650.000000
2907.182329	660.800000
2908.468629	655.000000
2909.754722	643.700000
2911.039066	670.700000
2912.326281	659.700000
2913.608670	680.100000
2914.892391	644.700000
2916.174366	659.400000
2917.456133	689.400000
2918.736156	682.100000
2920.019048	651.000000
2921.300195	665.500000
2922.578060	685.900000
2923.858794	687.900000
2925.136247	672.300000
2926.413494	659.500000
2927.688999	678.600000
2928.967372	705.200000
2930.240931	673.500000
2931.517357	685.300000
2932.792042	669.000000
2934.064986	665.100000
2935.339262	661.800000
2936.611798	676.100000
2937.884129	668.000000
2939.153188	673.900000
2940.425112	664.800000
2941.695298	648.200000
2942.965280	644.500000
2944.235059	650.900000
2945.503102	633.800000
2946.769408	651.000000
2948.035513	629.100000
2949.302947	631.300000
2950.568647	617.300000
2951.834144	625.300000
2953.099439	607.300000
2954.361469	611.600000
2955.624829	637.800000
2956.887988	596.500000
2958.149415	573.700000
2959.412171	585.900000
2960.673195	608.700000
2961.932489	610.600000
2963.191583	607.800000
2964.450476	604.300000
2965.709169	581.200000
2966.967662	589.300000
2968.224426	591.000000
2969.480990	574.400000
2970.735827	605.100000
2971.991992	599.500000
2973.244903	573.700000
2974.499143	602.500000
2975.753184	598.700000
2977.005499	586.700000
2978.257615	611.400000
2979.508007	588.400000
2980.761254	585.500000
2982.009724	600.700000
2983.261049	567.400000
2984.509124	609.200000
2985.757003	577.200000
2987.004684	585.500000
2988.252168	575.900000
2989.497931	614.900000
2990.743498	590.600000
2991.990392	598.400000
2993.234042	576.100000
2994.479020	603.900000
2995.720754	582.400000
2996.965340	585.800000
2998.208207	571.900000
2999.447833	589.700000
3000.690309	590.000000
3001.929545	581.200000
3003.170109	592.900000
3004.408957	597.600000
3005.647609	581.400000
3006.884546	606.500000
3008.122811	569.300000
3009.359360	604.300000
3010.595716	570.300000
3011.831878	577.500000
3013.066326	602.000000
3014.300582	596.300000
3015.534644	590.400000
3016.766994	587.300000
3017.997632	588.000000
3019.231116	606.100000
3020.462888	575.900000
3021.692950	600.300000
3022.922819	620.300000
3024.150980	598.900000
3025.380466	615.100000
3026.608243	602.500000
3027.835829	593.500000
3029.064742	590.700000
3030.288912	596.900000
3031.515925	589.600000
3032.739714	573.100000
3033.964830	597.800000
3035.188239	587.200000
3036.411458	598.500000
3037.632972	545.300000
3038.857327	549.200000
3040.076947	567.400000
3041.297893	552.400000
3042.518650	573.000000
3043.737703	574.300000
3044.958081	554.000000
3046.175243	548.900000
3047.393731	535.500000
3048.610516	575.900000
3049.827114	581.500000
3051.043523	565.000000
3052.256720	524.900000
3053.472754	546.600000
3054.685576	555.900000
3055.901235	539.800000
3057.112171	531.900000
3058.324432	555.100000
3059.536507	527.700000
3060.748394	533.700000
3061.958585	541.900000
3063.168589	552.600000
3064.378407	549.600000
3065.586529	537.000000
3066.794466	548.000000
3068.000707	534.300000
3069.208273	517.500000
3070.414144	534.600000
3071.619831	551.700000
3072.825332	537.100000
3074.029140	528.500000
3075.234272	531.500000
3076.437711	548.900000
3077.639459	522.500000
3078.841022	499.300000
3080.042402	545.900000
3081.243598	545.800000
3082.443104	523.500000
3083.642427	504.200000
3084.843073	523.400000
3086.042029	536.600000
3087.237791	577.000000
3088.436382	541.500000
3089.631779	541.500000
3090.828499	534.000000
3092.022027	534.100000
3093.218383	541.300000
3094.413053	547.100000
3095.604532	544.400000
3096.800342	556.100000
3097.991458	530.900000
3099.183898	549.800000
3100.373150	530.700000
3101.565227	565.800000
3102.755621	528.500000
3103.942829	538.200000
3105.131360	523.500000
3106.321212	545.200000
3107.507881	517.200000
3108.694369	534.200000
3109.880679	541.800000
3111.068310	531.800000
3112.252759	504.400000
3113.435529	522.000000
3114.621121	519.400000
3115.805034	523.900000
3116.987268	519.500000
3118.169323	531.400000
3119.351200	512.900000
3120.532899	520.700000
3121.712921	548.600000
3122.891266	529.200000
3124.072431	511.700000
3125.250421	537.400000
3126.428235	534.500000
3127.605871	540.100000
3128.781832	529.200000
3129.957616	541.300000
3131.134722	521.600000
3132.310153	508.900000
3133.483911	507.700000
3134.655996	511.300000
3135.829403	552.300000
3137.002633	503.400000
3138.174192	533.700000
3139.347071	523.400000
3140.516783	510.500000
3141.687816	508.700000
3142.857179	527.400000
3144.024871	520.800000
3145.195379	502.900000
3146.361229	516.200000
3147.531387	518.500000
3148.696889	506.700000
3149.862216	513.700000
3151.027370	521.800000
3152.192351	537.600000
3153.358651	513.800000
3154.520299	523.500000
3155.683266	510.600000
3156.846061	498.400000
3158.008683	512.700000
3159.169640	481.100000
3160.330424	510.500000
3161.491036	502.100000
3162.649984	510.500000
3163.808761	495.700000
3164.967366	483.100000
3166.125798	496.200000
3167.284060	480.000000
3168.440659	481.300000
3169.595597	489.500000
3170.751854	491.700000
3171.906450	501.600000
3173.060876	506.400000
3174.213642	496.400000
3175.366237	502.600000
3176.518663	511.700000
3177.670919	497.800000
3178.823004	497.700000
3179.971944	486.600000
3181.123690	504.800000
3182.273778	493.100000
3183.422210	488.200000
3184.570472	476.000000
3185.718566	540.500000
3186.866491	485.500000
3188.012760	488.000000
3189.158861	500.700000
3190.303308	513.200000
3191.447587	503.200000
3192.591698	526.100000
3193.737126	494.300000
3194.879416	517.100000
3196.021539	518.200000
3197.163494	510.700000
3198.305282	502.800000
3199.446903	518.900000
3200.585389	534.300000
3201.725192	511.100000
3202.866313	510.500000
3204.004299	535.100000
3205.140636	496.800000
3206.276807	497.000000
3207.414295	503.500000
3208.550135	540.400000
3209.687292	512.500000
3210.819836	543.800000
3211.956662	512.600000
3213.088876	547.600000
3214.222407	538.100000
3215.355774	518.300000
3216.486013	518.300000
3217.619050	527.200000
3218.748961	524.000000
3219.880188	512.700000
3221.008291	521.400000
3222.139190	512.000000
3223.268445	530.400000
3224.396057	551.300000
3225.520546	555.700000
3226.649311	556.100000
3227.774954	519.100000
3228.900435	540.400000
3230.024274	520.200000
3231.150907	533.700000
3232.272943	544.100000
3233.396295	547.600000
3234.519485	500.600000
3235.642512	509.900000
3236.763901	517.900000
3237.885127	539.700000
3239.004716	511.600000
3240.124143	520.300000
3241.241932	528.000000
3242.362513	524.500000
3243.479981	498.200000
3244.597288	510.400000
3245.714435	480.900000
3246.829946	497.800000
3247.946771	491.600000
3249.060487	498.900000
3250.176992	520.600000
3251.291863	496.700000
3252.403625	474.700000
3253.515227	499.700000
3254.628145	479.600000
3255.740903	485.200000
3256.850555	462.000000
3257.961522	470.400000
3259.072330	463.000000
3260.181506	486.400000
3261.289052	451.200000
3262.397911	477.500000
3263.506613	456.600000
3264.612212	455.600000
3265.719125	438.400000
3266.824409	464.100000
3267.931007	443.600000
3269.034505	451.000000
3270.139318	449.500000
3271.243973	442.000000
3272.345529	442.300000
3273.446929	435.000000
3274.549643	449.100000
3275.652201	442.500000
3276.751662	456.300000
3277.853907	429.900000
3278.953056	423.200000
3280.050581	453.500000
3281.147950	444.800000
3282.248101	454.800000
3283.345160	406.100000
3284.442063	455.000000
3285.538811	429.500000
3286.631001	436.500000
3287.727439	420.300000
3288.822255	437.600000
3289.916917	445.600000
3291.009957	433.900000
3292.102842	405.100000
3293.194108	442.200000
3294.286685	421.700000
3295.377643	422.000000
3296.466981	444.800000
3297.556166	431.300000
3298.646664	442.000000
3299.734077	426.400000
3300.821337	409.000000
3301.909910	456.800000
3302.998331	427.200000
3304.082204	440.400000
3305.170319	424.600000
3306.255352	437.000000
3307.338770	434.100000
3308.423500	434.000000
3309.506614	415.400000
3310.591041	438.400000
3311.672389	423.800000
3312.755049	444.300000
3313.836095	415.400000
3314.916990	429.200000
3315.996271	431.600000
3317.075402	460.200000
3318.155845	436.100000
3319.233213	464.700000
3320.311893	441.700000
3321.388961	457.800000
3322.465880	426.900000
3323.541187	417.400000
3324.616345	431.600000
3325.692814	436.600000
3326.766213	454.500000
3327.839463	445.600000
3328.914023	444.900000
3329.986975	465.800000
3331.058318	445.000000
3332.130972	443.800000
3333.200560	435.100000
3334.271458	438.100000
3335.340749	452.100000
3336.411351	445.300000
3337.480346	427.500000
3338.547735	450.000000
3339.613519	425.800000
3340.683529	441.600000
3341.750476	425.600000
3342.814361	448.300000
3343.881014	411.800000
3344.946062	430.500000
3346.009507	454.700000
3347.072806	436.100000
3348.135958	425.700000
3349.198964	418.900000
3350.261824	410.200000
3351.323082	451.400000
3352.381283	435.000000
3353.443704	426.500000
3354.503070	411.500000
3355.562290	408.100000
3356.622820	423.200000
3357.678840	422.700000
3358.737624	421.200000
3359.791901	440.000000
3360.848942	442.100000
3361.904384	429.100000
3362.961136	410.800000
3364.016289	423.100000
3365.069845	420.300000
3366.121805	429.300000
3367.176526	460.700000
3368.228198	430.500000
3369.279727	428.500000
3370.332564	414.900000
3371.382354	435.300000
3372.433453	421.600000
3373.481506	427.600000
3374.532318	433.500000
3375.580086	415.200000
3376.627711	413.300000
3377.675193	421.200000
3378.721083	433.900000
3379.768281	425.600000
3380.812437	434.000000
3381.859351	433.000000
3382.904673	421.800000
3383.946954	421.500000
3384.989095	410.100000
3386.032543	430.100000
3387.075850	426.800000
3388.117568	432.100000
3389.159144	443.700000
3390.200579	419.100000
3391.240426	452.600000
3392.278684	440.500000
3393.318250	438.200000
3394.357676	432.500000
3395.395514	448.500000
3396.431765	422.800000
3397.467877	439.000000
3398.505296	416.100000
3399.539682	415.500000
3400.575375	428.000000
3401.610929	411.100000
3402.643452	435.600000
3403.678728	420.000000
3404.710973	411.400000
3405.743080	403.200000
3406.773603	419.000000
3407.805433	431.300000
3408.837125	414.600000
3409.865789	400.700000
3410.894316	442.700000
3411.924149	411.800000
3412.953845	414.200000
3413.980515	385.300000
3415.008492	418.900000
3416.033444	411.700000
3417.061146	391.000000
3418.085825	403.000000
3419.111810	392.300000
3420.136215	398.700000
3421.160484	395.900000
3422.183174	378.100000
3423.205728	413.900000
3424.229588	391.200000
3425.250428	394.200000
3426.271132	387.800000
3427.293143	381.600000
3428.312135	392.000000
3429.330991	367.100000
3430.351154	366.700000
3431.368300	395.700000
