-117.888313	-5.730000
-115.218713	5.060000
-112.552048	-1.850000
-109.886135	4.620000
-107.223154	0.910000
-104.558744	3.730000
-101.897264	1.350000
-99.234355	6.880000
-96.576552	3.840000
-93.917320	4.860000
-91.258836	0.890000
-88.603276	7.380000
-85.946288	-0.430000
-83.294398	3.610000
-80.641078	-0.280000
-77.990677	6.550000
-75.338847	2.700000
-72.692108	4.360000
-70.043940	-0.510000
-67.396514	-3.570000
-64.752002	-3.520000
-62.106062	4.130000
-59.465203	0.090000
-56.822915	6.820000
-54.183536	-1.190000
-51.542727	0.690000
-48.902659	-1.810000
-46.267663	2.000000
-43.631239	5.210000
-40.997717	2.170000
-38.362767	-1.830000
-35.732882	0.550000
-33.099405	-2.150000
-30.470990	5.400000
-27.843309	-0.870000
-25.214199	9.500000
-22.590146	-1.980000
-19.962504	3.880000
-17.339915	11.470000
-14.718058	15.980000
-12.096931	12.700000
-9.476534	45.730000
-6.859026	154.000000
-4.240089	492.900000
-1.624037	1059.520000
0.991286	1222.060000
3.605882	675.620000
6.217595	96.260000
8.830737	9.050000
11.438845	12.330000
14.050535	5.120000
16.657194	8.700000
19.265281	1.890000
21.872644	2.280000
24.474982	0.920000
27.080898	2.790000
29.681792	1.860000
32.284114	4.070000
34.881419	-0.480000
37.482299	1.090000
40.078164	3.730000
42.675458	1.720000
45.272032	-0.080000
47.863597	6.960000
50.456590	0.020000
53.046722	4.700000
55.638282	0.450000
58.226982	3.840000
60.817109	-1.440000
63.402237	6.940000
65.988793	-4.290000
68.574635	4.830000
71.157623	1.300000
73.742037	-2.430000
76.319323	2.560000
78.900175	3.540000
81.478178	1.760000
84.055471	3.200000
86.634190	3.480000
89.207927	4.550000
91.783092	-1.150000
94.355413	2.590000
96.927026	0.980000
99.495799	1.580000
102.065999	-1.790000
104.633361	7.350000
107.202148	-5.080000
109.768099	5.600000
112.331215	-0.770000
114.897887	3.620000
117.455338	1.380000
120.018474	6.970000
122.576650	3.270000
125.138381	7.530000
127.695155	7.240000
130.253356	19.100000
132.806603	22.870000
135.359153	35.760000
137.915253	52.430000
140.466405	61.040000
143.016860	74.460000
145.566617	84.650000
148.113555	88.990000
150.659798	96.130000
153.207466	98.490000
155.754438	98.150000
158.296475	93.320000
160.837818	95.050000
163.378468	102.140000
165.920544	96.970000
168.459808	92.280000
170.996264	94.780000
173.532028	91.560000
176.069218	97.520000
178.605717	94.350000
181.139410	94.270000
183.670299	93.050000
186.200501	90.970000
188.732127	94.220000
191.260952	89.060000
193.786978	87.670000
196.312318	93.270000
198.839083	92.260000
201.363052	93.360000
203.886336	84.810000
206.408935	90.590000
208.928741	93.520000
211.447864	98.620000
213.966304	84.170000
216.486168	88.420000
218.999031	95.230000
221.515425	98.110000
224.031137	94.910000
226.541959	96.000000
229.054206	91.070000
231.563671	94.500000
234.072457	96.870000
236.580564	94.490000
239.090096	97.810000
241.594747	91.980000
244.098722	98.670000
246.604121	101.490000
249.104645	97.320000
251.608693	98.610000
254.105769	99.760000
256.606369	104.750000
259.104197	99.340000
261.601352	100.650000
264.097834	95.820000
266.589453	100.810000
269.084592	105.360000
271.576964	105.040000
274.068666	95.310000
276.557605	100.200000
279.047968	98.470000
281.535568	102.750000
284.020409	94.920000
286.508765	102.470000
288.990181	99.790000
291.475111	100.400000
293.955196	103.710000
296.438793	101.830000
298.917547	99.760000
301.397725	106.580000
303.875150	102.540000
306.351912	97.500000
308.828011	100.670000
311.301361	115.510000
313.774049	110.050000
316.246076	122.830000
318.717442	125.390000
321.186063	142.870000
323.654026	135.390000
326.123410	132.140000
328.587972	111.620000
331.056038	111.600000
333.519284	108.730000
335.981872	109.800000
338.443804	102.700000
340.905079	114.720000
343.363620	103.380000
345.823583	110.140000
348.280813	107.580000
350.737389	112.360000
353.193311	104.520000
355.646503	110.890000
358.101118	106.750000
360.550931	108.020000
363.004240	106.670000
365.452751	105.010000
367.900610	108.690000
370.349892	106.740000
372.794380	109.460000
375.240290	108.600000
377.685550	107.300000
380.128092	105.490000
382.569986	107.670000
385.011233	110.330000
387.449764	105.310000
389.889717	108.480000
392.326956	106.780000
394.761483	108.330000
397.199498	107.540000
399.632736	105.500000
402.067395	105.920000
404.497282	106.840000
406.930654	108.420000
409.359256	108.510000
411.787216	102.590000
414.216598	115.920000
416.641214	111.840000
419.067252	107.160000
421.492649	110.850000
423.917406	109.390000
426.337405	105.250000
428.758825	106.810000
431.177548	107.740000
433.597692	106.310000
436.015141	103.110000
438.434010	110.370000
440.850186	102.720000
443.261614	112.770000
445.676520	107.290000
448.088735	106.740000
450.500316	109.640000
452.911263	109.880000
455.319524	104.550000
457.727152	104.360000
460.134148	104.620000
462.540513	114.070000
464.944195	101.250000
467.347247	102.600000
469.749669	99.070000
472.151461	98.050000
474.550576	98.010000
476.951110	99.250000
479.351015	107.090000
481.746197	104.340000
484.144846	107.350000
486.538775	109.600000
488.932078	100.360000
491.324755	105.530000
493.716807	100.390000
496.110277	102.340000
498.499035	95.080000
500.885127	90.220000
503.272639	86.050000
505.659528	81.430000
508.043753	78.270000
510.429396	77.580000
512.812378	78.140000
515.192699	79.780000
517.574439	71.330000
519.953520	75.200000
522.334020	70.700000
524.711862	68.680000
527.087049	65.470000
529.461618	68.180000
531.837605	71.480000
534.210940	65.590000
536.585692	67.660000
538.955759	68.150000
541.325210	65.820000
543.696079	59.980000
546.062268	62.630000
548.429875	63.580000
550.794836	63.050000
553.159184	61.670000
555.522919	59.770000
557.888072	67.630000
560.248553	60.670000
562.610452	72.190000
564.969710	62.630000
567.326331	65.890000
569.686396	66.150000
572.039770	66.940000
574.396589	57.960000
576.750773	60.950000
579.104349	59.570000
581.457316	63.700000
583.807651	59.360000
586.159404	67.980000
588.504480	59.080000
590.855020	59.330000
593.198886	60.130000
595.548214	64.860000
597.892893	57.280000
600.234948	59.940000
602.578420	54.510000
604.919269	61.160000
607.259516	55.410000
609.597142	57.200000
611.938203	54.880000
614.274626	55.900000
616.612466	56.580000
618.947689	56.080000
621.280296	48.300000
623.614319	50.670000
625.945728	52.870000
628.276539	58.380000
630.606753	50.150000
632.936368	54.240000
635.261360	48.690000
637.591794	56.510000
639.917607	51.420000
642.240812	55.030000
644.565434	47.430000
646.887450	59.140000
649.208872	55.110000
651.527692	54.690000
653.847927	49.070000
656.167569	57.360000
658.484610	53.750000
660.801059	59.070000
663.114910	48.340000
665.430177	54.870000
667.742847	50.740000
670.056932	55.280000
672.366417	55.560000
674.677318	51.190000
676.985626	50.970000
679.293346	54.800000
681.602480	44.940000
683.907022	49.830000
686.210978	52.290000
688.514348	50.860000
690.819132	48.540000
693.119330	46.060000
695.420942	50.080000
697.721970	48.340000
700.018415	41.880000
702.316276	48.380000
704.613553	50.770000
706.910247	50.850000
709.202365	43.740000
711.497894	47.620000
713.788849	45.700000
716.081219	50.920000
718.371014	48.710000
720.660228	47.020000
722.948863	44.210000
725.234925	53.690000
727.522402	48.490000
729.807307	53.400000
732.091635	50.670000
734.373394	48.440000
736.656567	48.690000
738.939163	51.700000
741.217203	50.410000
743.496658	47.910000
745.775536	49.460000
748.053840	53.540000
750.327594	47.860000
752.602761	53.300000
754.877355	48.010000
757.149390	55.830000
759.422838	47.620000
761.693728	53.950000
763.962062	50.250000
766.231809	50.700000
768.499002	44.110000
770.765624	54.760000
773.031676	49.490000
775.295177	53.660000
777.560091	48.250000
779.824435	58.730000
782.084250	50.460000
784.345477	51.730000
786.606137	50.090000
788.864251	54.790000
791.119820	52.890000
793.378780	53.920000
795.631241	52.300000
797.889068	52.450000
800.142377	51.470000
802.393146	50.380000
804.645327	51.470000
806.894969	53.190000
809.146024	43.200000
811.392567	56.120000
813.640522	50.860000
815.885943	53.640000
818.132775	50.900000
820.379046	48.310000
822.620812	51.070000
824.865962	52.030000
827.104639	45.350000
829.346698	49.560000
831.584259	45.120000
833.823232	44.840000
836.059678	45.460000
838.297535	50.230000
840.532867	49.860000
842.765676	58.730000
844.999896	40.450000
847.231593	49.020000
849.462736	46.810000
851.693324	49.300000
853.923358	40.220000
856.152838	46.600000
858.377836	47.460000
860.606209	53.530000
862.830102	51.230000
865.055407	51.620000
867.276236	45.940000
869.500437	44.950000
871.720165	49.550000
873.941303	48.270000
876.161891	47.920000
878.379970	49.830000
880.599458	50.110000
882.814480	47.450000
885.028955	45.040000
887.242881	54.330000
889.456261	43.900000
891.669093	48.310000
893.881379	44.060000
896.091162	46.100000
898.300400	48.100000
900.509093	48.370000
902.715287	43.380000
904.922890	49.050000
907.127995	45.920000
909.332557	47.650000
911.534624	37.810000
913.738100	43.480000
915.939082	48.710000
918.139522	44.300000
920.341371	47.870000
922.536829	46.530000
924.735646	51.150000
926.930024	50.220000
929.127760	46.460000
931.321060	52.370000
933.515769	47.210000
935.707992	49.820000
937.899676	47.210000
940.090823	53.510000
942.279487	51.950000
944.467615	49.880000
946.653262	47.550000
948.842261	53.950000
951.026837	49.240000
953.210878	52.510000
955.398269	55.790000
957.577356	53.070000
959.759794	52.160000
961.941698	58.040000
964.121127	58.040000
966.298084	53.970000
968.476449	56.490000
970.656221	58.560000
972.829644	56.130000
975.006413	55.770000
977.178775	59.350000
979.352545	63.400000
981.521911	64.630000
983.694621	69.140000
985.864866	59.260000
988.034582	65.140000
990.203769	56.150000
992.368559	64.010000
994.536690	63.080000
996.700427	65.240000
998.865570	56.700000
1001.028254	67.140000
1003.190413	59.200000
1005.350115	63.510000
1007.509292	69.870000
1009.669876	64.810000
1011.828006	60.270000
1013.985611	69.050000
1016.142693	61.750000
1018.299251	69.540000
1020.451430	64.160000
1022.605016	63.500000
1024.758080	62.990000
1026.908695	66.890000
1029.060717	70.060000
1031.208365	70.190000
1033.359345	73.160000
1035.505954	73.970000
1037.652044	69.670000
1039.797616	72.890000
1041.944593	70.480000
1044.085281	70.790000
1046.229299	68.930000
1048.370876	75.080000
1050.511937	74.140000
1052.654402	80.310000
1054.790588	76.170000
1056.930099	79.430000
1059.065256	70.820000
1061.203737	74.180000
1063.337864	74.060000
1065.471478	76.610000
1067.606497	73.470000
1069.737166	74.310000
1071.869240	74.030000
1073.998885	76.190000
1076.128018	72.420000
1078.256639	76.220000
1080.384749	64.710000
1082.510433	73.670000
1084.635607	68.720000
1086.762185	70.670000
1088.884425	68.490000
1091.008070	71.720000
1093.127380	64.400000
1095.251920	68.020000
1097.370214	66.590000
1099.489913	69.920000
1101.607193	70.690000
1103.723967	68.670000
1105.840234	64.950000
1107.954085	69.390000
1110.069341	71.230000
1112.180273	62.810000
1114.294518	64.210000
1116.404442	68.990000
1118.515770	62.200000
1120.626593	63.720000
1122.733100	64.750000
1124.842917	69.250000
1126.948419	62.020000
1129.055324	64.690000
1131.156014	67.000000
1133.261916	64.940000
1135.363509	63.680000
1137.466505	61.220000
1139.569000	63.630000
1141.665288	67.830000
1143.766784	63.290000
1145.863976	66.620000
1147.960671	58.670000
1150.056867	60.700000
1152.152566	57.790000
1154.247766	62.760000
1156.340570	60.940000
1158.434777	63.480000
1160.522792	54.280000
1162.616005	64.540000
1164.703030	65.670000
1166.793354	61.190000
1168.879391	63.380000
1170.968725	65.850000
1173.051878	62.660000
1175.136433	66.420000
1177.222390	59.510000
1179.304065	62.000000
1181.387142	61.590000
1183.467833	69.680000
1185.548032	64.050000
1187.627740	64.430000
1189.706957	57.230000
1191.783792	63.810000
1193.858246	57.020000
1195.935991	58.670000
1198.009467	56.430000
1200.084343	60.130000
1202.154952	56.320000
1204.226962	60.210000
1206.296597	61.440000
1208.367632	62.080000
1210.438179	57.290000
1212.504465	67.430000
1214.572152	66.080000
1216.637467	59.840000
1218.704182	64.510000
1220.766641	64.080000
1222.832385	57.780000
1224.893875	65.260000
1226.956766	64.750000
1229.017289	65.590000
1231.077328	57.270000
1233.136885	62.000000
1235.194076	61.310000
1237.250786	63.500000
1239.305132	59.510000
1241.362760	61.060000
1243.418025	60.540000
1245.469049	66.370000
1247.521473	59.970000
1249.573417	65.180000
1251.623003	58.510000
1253.672110	62.940000
1255.720739	60.420000
1257.768889	69.630000
1259.816560	62.840000
1261.860001	69.550000
1263.906718	68.200000
1265.951081	64.760000
1267.994968	65.420000
1270.036503	68.670000
1272.075689	62.850000
1274.118148	68.910000
1276.156384	68.250000
1278.196019	64.930000
1280.235179	64.840000
1282.270120	71.510000
1284.306460	66.830000
1286.340456	69.890000
1288.375849	69.860000
1290.407030	73.560000
1292.439608	69.130000
1294.471715	83.660000
1296.501481	76.260000
1298.532645	84.370000
1300.559601	82.440000
1302.587955	84.320000
1304.612104	81.540000
1306.639519	85.970000
1308.662731	89.810000
1310.687341	98.260000
1312.709617	91.990000
1314.733290	103.650000
1316.754630	95.370000
1318.775502	108.230000
1320.795907	107.880000
1322.812119	110.940000
1324.829728	118.850000
1326.845009	126.600000
1328.863549	120.460000
1330.877900	132.730000
1332.889925	134.190000
1334.905207	134.970000
1336.916304	132.600000
1338.928798	137.340000
1340.937109	138.700000
1342.948675	136.200000
1344.954203	131.180000
1346.962986	140.880000
1348.967591	137.270000
1350.975450	136.930000
1352.982847	121.990000
1354.984213	118.480000
1356.986975	115.860000
1358.989278	120.440000
1360.991121	108.610000
1362.992504	100.340000
1364.991574	96.790000
1366.990185	101.550000
1368.988338	88.180000
1370.986032	92.360000
1372.979564	90.780000
1374.974491	88.780000
1376.968962	84.690000
1378.962976	80.270000
1380.954683	79.250000
1382.945935	78.870000
1384.934881	76.850000
1386.925222	77.380000
1388.915108	76.700000
1390.902690	75.680000
1392.889819	76.630000
1394.874646	75.990000
1396.860868	74.590000
1398.844790	77.790000
1400.828259	75.350000
1402.811275	77.830000
1404.791994	74.690000
1406.774107	77.640000
1408.753924	71.070000
1410.733289	73.120000
1412.708516	76.160000
1414.686981	73.750000
1416.663153	73.390000
1418.638876	76.740000
1420.614149	71.270000
1422.587131	72.610000
1424.559665	69.490000
1426.531751	72.760000
1428.503390	66.960000
1430.470900	71.570000
1432.443484	63.810000
1434.408262	70.030000
1436.378113	68.290000
1438.343840	71.490000
1440.310959	74.110000
1442.275795	71.040000
1444.236511	68.500000
1446.202295	73.060000
1448.162124	73.120000
1450.123347	75.050000
1452.085962	70.940000
1454.044462	74.630000
1456.002519	69.100000
1457.960135	76.180000
1459.917308	73.750000
1461.872206	75.780000
1463.828497	80.740000
1465.782513	76.840000
1467.736088	71.790000
1469.687391	73.070000
1471.640087	77.970000
1473.590510	73.020000
1475.540495	71.570000
1477.490041	75.010000
1479.437318	77.140000
1481.382327	73.620000
1483.328729	75.740000
1485.274693	81.790000
1487.220220	75.230000
1489.163481	83.230000
1491.106307	76.380000
1493.046869	81.510000
1494.988822	74.380000
1496.928513	79.030000
1498.867770	83.150000
1500.806591	82.020000
1502.743153	81.180000
1504.681106	83.460000
1506.616800	89.840000
1508.552061	88.110000
1510.485066	88.390000
1512.417638	86.510000
1514.349778	93.590000
1516.281486	99.990000
1518.210940	92.320000
1520.141785	96.340000
1522.072198	95.760000
1523.998539	106.470000
1525.926271	106.890000
1527.851752	111.490000
1529.776804	115.570000
1531.701427	125.210000
1533.625621	133.230000
1535.547567	136.440000
1537.470904	140.330000
1539.391994	160.450000
1541.310840	175.060000
1543.231076	201.360000
1545.149069	210.630000
1547.066635	239.090000
1548.981959	277.080000
1550.898673	312.570000
1552.811332	364.690000
1554.727195	414.330000
1556.640818	467.720000
1558.552203	539.160000
1560.464978	576.510000
1562.373703	628.850000
1564.283817	666.810000
1566.193508	694.830000
1568.102776	698.070000
1570.009810	684.510000
1571.914611	640.540000
1573.820801	591.400000
1575.724759	519.060000
1577.628296	456.890000
1579.531413	391.600000
1581.432300	353.540000
1583.334576	292.500000
1585.234624	261.130000
1587.136059	233.740000
1589.033461	215.550000
1590.930444	196.600000
1592.827009	183.460000
1594.724962	168.540000
1596.617080	160.010000
1598.512391	153.670000
1600.407285	151.430000
1602.299957	144.840000
1604.192212	142.030000
1606.082248	127.790000
1607.971868	125.140000
1609.861073	124.540000
1611.749863	122.100000
1613.636435	112.750000
1615.524395	109.990000
1617.408338	98.710000
1619.293668	99.170000
1621.178585	93.460000
1623.061288	92.920000
1624.945378	85.950000
1626.825456	89.430000
1628.706922	77.400000
1630.586177	78.410000
1632.466818	78.810000
1634.341655	75.280000
1636.221473	69.350000
1638.097287	76.050000
1639.972690	70.990000
1641.849479	72.030000
1643.720472	73.490000
1645.594646	75.200000
1647.464821	71.100000
1649.338178	66.560000
1651.209331	62.650000
1653.078282	71.370000
1654.948618	63.330000
1656.814962	63.270000
1658.682691	60.150000
1660.548221	60.120000
1662.415137	66.150000
1664.278064	61.590000
1666.142376	62.940000
1668.004492	65.790000
1669.866203	59.960000
1671.729300	60.700000
1673.590201	52.960000
1675.448910	57.340000
1677.307215	50.560000
1679.166905	55.420000
1681.020827	57.650000
1682.877923	58.060000
1684.734616	54.380000
1686.587332	57.430000
1688.443220	49.090000
1690.295134	56.990000
1692.146647	49.570000
1693.997759	53.950000
1695.848471	47.530000
1697.698782	54.240000
1699.546908	54.280000
1701.396419	52.730000
1703.240181	52.880000
1705.088892	54.960000
1706.931857	46.960000
1708.777989	54.460000
1710.620158	50.830000
1712.465493	49.040000
1714.305087	45.590000
1716.146065	52.260000
1717.988426	45.960000
1719.826831	51.620000
1721.666619	47.330000
1723.504232	53.140000
1725.341449	47.260000
1727.176493	58.180000
1729.012920	42.050000
1730.847175	50.610000
1732.681035	48.080000
1734.514501	53.940000
1736.344022	46.540000
1738.176701	49.710000
1740.005436	49.010000
1741.837328	50.880000
1743.665278	46.820000
1745.492837	49.940000
1747.320003	43.930000
1749.146778	49.780000
1750.973161	44.490000
1752.795608	47.200000
1754.621210	47.190000
1756.442877	48.850000
1758.265926	43.100000
1760.086813	48.050000
1761.907312	45.970000
1763.729191	44.920000
1765.545372	46.560000
1767.364704	45.410000
1769.180109	43.270000
1770.998664	41.190000
1772.813294	48.800000
1774.627537	43.710000
1776.441394	42.610000
1778.254864	48.530000
1780.066181	42.150000
1781.878878	49.900000
1783.691190	45.390000
1785.499584	47.470000
1787.309358	46.790000
1789.115218	47.060000
1790.924223	47.230000
1792.729315	52.550000
1794.535788	41.130000
1796.341877	46.580000
1798.144055	41.960000
1799.949378	45.720000
1801.750792	42.240000
1803.553586	46.880000
1805.352474	45.950000
1807.152743	46.360000
1808.952630	46.970000
1810.750375	44.890000
1812.547740	46.850000
1814.344725	47.920000
1816.141329	46.440000
1817.935794	51.890000
1819.731638	46.800000
1821.521827	38.710000
1823.316913	46.300000
1825.106347	46.100000
1826.898917	38.770000
1828.689352	49.570000
1830.477653	44.500000
1832.269089	42.920000
1834.054879	40.570000
1835.842049	47.490000
1837.627087	49.730000
1839.415259	46.510000
1841.199545	44.060000
1842.981701	48.580000
1844.765237	42.390000
1846.546644	50.100000
1848.329430	44.270000
1850.108335	45.820000
1851.888620	43.990000
1853.666778	43.010000
1855.446315	43.050000
1857.223727	47.720000
1858.999015	46.620000
1860.775681	46.530000
1862.550225	50.150000
1864.326147	49.480000
1866.096448	45.300000
1867.869877	44.870000
1869.641186	43.980000
1871.412124	47.010000
1873.184440	45.660000
1874.951142	47.610000
1876.720970	43.030000
1878.486934	44.660000
1880.256021	41.950000
1882.021247	49.590000
1883.786105	44.820000
1885.552340	37.440000
1887.314716	42.490000
1889.076725	44.290000
1890.838366	44.310000
1892.599641	48.100000
1894.360548	41.610000
1896.121089	43.190000
1897.879520	40.010000
1899.637585	44.980000
1901.393543	41.470000
1903.150877	42.820000
1904.907846	41.990000
1906.662708	42.800000
1908.415466	42.840000
1910.167859	43.670000
1911.921629	44.210000
1913.673295	44.210000
1915.422859	42.380000
1917.173798	40.740000
1918.924375	45.520000
1920.671112	45.860000
1922.419226	46.880000
1924.165240	39.950000
1925.912629	41.640000
1927.657921	42.930000
1929.401115	43.170000
1931.145684	44.510000
1932.888158	42.940000
1934.630271	46.200000
1936.372024	43.010000
1938.113417	48.470000
1939.852717	44.320000
1941.591658	44.450000
1943.330240	43.530000
1945.066731	41.430000
1946.802864	43.645000
1948.540371	45.860000
1950.274056	43.310000
1952.009116	51.510000
1953.742087	42.530000
1955.474702	44.310000
1957.206961	39.390000
1958.938863	51.960000
1960.668679	47.120000
1962.396410	44.290000
1964.125516	42.360000
1965.854267	49.630000
1967.580934	42.360000
1969.307247	42.630000
1971.034933	43.830000
1972.757083	48.450000
1974.482334	46.020000
1976.203778	45.010000
1977.928323	44.280000
1979.650787	38.300000
1981.369449	44.920000
1983.091209	48.610000
1984.809167	48.090000
1986.528498	45.450000
1988.244030	36.100000
1989.964382	42.190000
1991.680936	47.410000
1993.393693	47.460000
1995.109546	41.240000
1996.823327	46.650000
1998.536758	42.330000
2000.248118	47.760000
2001.960850	46.060000
2003.669792	40.570000
2005.381826	47.770000
2007.088352	47.630000
2008.797969	39.460000
2010.505520	41.930000
2012.212722	42.130000
2013.917859	48.540000
2015.622650	39.310000
2017.328812	50.120000
2019.031192	41.410000
2020.734943	44.330000
2022.436632	43.270000
2024.137976	49.970000
2025.838974	39.550000
2027.537911	44.360000
2029.238220	42.700000
2030.934754	50.160000
2032.632659	42.770000
2034.328505	50.100000
2036.027437	42.870000
2037.720883	48.280000
2039.415700	43.630000
2041.110175	43.100000
2042.800881	40.670000
2044.494671	38.070000
2046.184694	40.270000
2047.876088	44.420000
2049.565429	50.200000
2051.256140	45.560000
2052.943088	42.940000
2054.629697	39.090000
2056.317675	48.470000
2058.001894	47.360000
2059.687484	45.390000
2061.372734	48.940000
2063.055935	39.960000
2064.740507	44.310000
2066.419616	42.690000
2068.103510	46.610000
2069.781943	40.070000
2071.463454	52.600000
2073.141213	41.330000
2074.818636	48.250000
2076.497428	38.810000
2078.174178	44.690000
2079.848886	39.530000
2081.524963	41.080000
2083.199000	42.550000
2084.872701	45.370000
2086.546067	40.050000
2088.217394	47.990000
2089.888387	43.220000
2091.559046	50.810000
2093.229371	44.230000
2094.899362	38.500000
2096.567317	34.140000
2098.234939	43.550000
2099.900526	41.620000
2101.567482	42.580000
2103.232405	44.610000
2104.896996	43.010000
2106.559555	45.180000
2108.223482	41.490000
2109.885378	44.100000
2111.546944	44.480000
2113.208178	39.510000
2114.867384	43.160000
2116.526259	42.700000
2118.184805	46.310000
2119.843020	36.240000
2121.497513	47.760000
2123.155070	39.770000
2124.812298	44.700000
2126.465804	38.270000
2128.120678	44.320000
2129.771833	43.640000
2131.426051	38.260000
2133.076552	40.130000
2134.728419	44.600000
2136.374878	42.760000
2138.026092	40.400000
2139.673592	44.780000
2141.322459	39.910000
2142.969307	44.260000
2144.615830	44.340000
2146.262027	39.230000
2147.904516	41.580000
2149.550063	40.140000
2151.191903	45.640000
2152.836800	38.020000
2154.477991	40.980000
2156.118860	42.120000
2157.759404	43.320000
2159.397936	48.780000
2161.037834	43.160000
2162.674032	46.830000
2164.311596	45.630000
2165.948838	43.420000
2167.584070	44.650000
2169.218981	43.330000
2170.853569	46.200000
2172.487837	42.780000
2174.118411	45.570000
2175.752037	42.980000
2177.381971	48.510000
2179.013270	43.860000
2180.642564	46.500000
2182.271539	39.240000
2183.900194	47.640000
2185.528530	44.600000
2187.154864	45.550000
2188.780879	40.700000
2190.404892	42.120000
2192.030271	44.020000
2193.653649	44.460000
2195.278392	42.640000
2196.899454	46.560000
2198.520199	40.250000
2200.142309	42.650000
2201.762421	45.320000
2203.380536	44.220000
2204.998336	42.360000
2206.615821	46.580000
2208.232990	41.810000
2209.849844	39.980000
2211.466382	41.240000
2213.080928	43.090000
2214.693481	41.830000
2216.307398	46.280000
2217.919324	42.910000
2219.532613	44.640000
2221.143912	37.880000
2222.753221	37.030000
2224.363894	46.120000
2225.972578	45.440000
2227.580949	39.930000
2229.187334	43.360000
2230.795082	45.660000
2232.400843	39.440000
2234.006293	43.190000
2235.609758	43.030000
2237.214586	40.940000
2238.817430	49.310000
2240.418291	42.810000
2242.020515	37.720000
2243.620757	42.510000
2245.222361	47.880000
2246.820312	47.680000
2248.419626	45.140000
2250.016960	40.950000
2251.613986	49.040000
2253.212374	43.720000
2254.807113	52.270000
2256.399875	40.320000
2257.994000	49.720000
2259.589486	47.680000
2261.181327	50.000000
2262.772862	41.200000
2264.365759	42.640000
2265.953346	42.100000
2267.545629	45.830000
2269.132606	39.590000
2270.722610	46.650000
2272.307310	40.980000
2273.896704	46.420000
2275.480796	38.840000
2277.066248	47.380000
2278.649732	40.540000
2280.236241	45.090000
2281.819117	39.880000
2283.401690	42.110000
2284.983959	42.450000
2286.562598	44.260000
2288.144262	42.360000
2289.722297	43.620000
2291.303355	46.140000
2292.880786	44.485000
2294.456254	42.830000
2296.034744	42.920000
2297.609610	42.520000
2299.184175	43.940000
2300.758440	43.600000
2302.332404	46.950000
2303.906067	37.530000
2305.479431	42.610000
2307.049176	41.130000
2308.618622	46.710000
2310.191086	36.290000
2311.758276	40.600000
2313.328484	36.340000
2314.895077	44.910000
2316.463030	40.940000
2318.029027	45.370000
2319.594727	42.960000
2321.160129	52.380000
2322.723578	43.870000
2324.288386	50.570000
2325.849586	51.160000
2327.413800	52.880000
2328.972752	54.070000
2330.534719	51.660000
2332.094734	42.940000
2333.654455	50.310000
2335.212226	43.620000
2336.769702	41.750000
2338.326884	42.230000
2339.882118	43.470000
2341.437059	41.100000
2342.991705	46.980000
2344.546058	43.700000
2346.100118	44.670000
2347.653883	43.550000
2349.205704	50.600000
2350.755583	45.020000
2352.308469	49.210000
2353.856112	41.310000
2355.406764	46.340000
2356.953824	44.400000
2358.502242	54.430000
2360.050369	46.960000
2361.594907	49.230000
2363.140803	47.440000
2364.684761	47.060000
2366.230076	43.920000
2367.771806	46.980000
2369.314893	46.360000
2370.856044	46.650000
2372.396906	42.120000
2373.937479	47.210000
2375.477763	44.750000
2377.017758	50.650000
2378.554175	41.930000
2380.093593	49.970000
2381.629433	49.790000
2383.166631	50.740000
2384.700253	45.350000
2386.236875	48.640000
2387.771567	51.130000
2389.304329	50.780000
2390.836804	50.750000
2392.367351	51.020000
2393.900896	47.780000
2395.429230	54.170000
2396.958921	48.990000
2398.488325	56.100000
2400.017445	47.590000
2401.546280	53.720000
2403.069909	48.780000
2404.598174	53.910000
2406.121237	52.200000
2407.648933	52.790000
2409.169790	55.280000
2410.695280	64.250000
2412.217209	55.940000
2413.740494	53.320000
2415.261857	54.480000
2416.781301	62.790000
2418.302100	55.720000
2419.820981	52.730000
2421.339579	57.570000
2422.856260	54.230000
2424.374295	55.130000
2425.892049	60.250000
2427.406252	61.260000
2428.920174	58.100000
2430.433816	59.010000
2431.948813	60.120000
2433.460261	58.580000
2434.973064	57.550000
2436.483953	60.620000
2437.994564	59.300000
2439.503263	59.200000
2441.014948	57.150000
2442.523090	60.930000
2444.030954	60.070000
2445.538540	55.010000
2447.042585	55.760000
2448.549615	52.330000
2450.054737	60.910000
2451.559582	58.280000
2453.062520	54.930000
2454.565182	53.320000
2456.067567	58.210000
2457.568047	56.080000
2459.069880	61.020000
2460.569808	51.450000
2462.069461	61.470000
2463.568839	55.380000
2465.066314	51.620000
2466.561887	58.500000
2468.060440	56.240000
2469.555465	50.420000
2471.051842	57.880000
2472.544693	53.150000
2474.038897	56.350000
2475.532827	49.790000
2477.023233	50.370000
2478.516617	52.400000
2480.008103	57.090000
2481.497692	52.940000
2482.987009	57.380000
2484.474430	54.520000
2485.964827	53.220000
2487.451706	50.330000
2488.939936	56.430000
2490.424649	50.850000
2491.909093	52.320000
2493.394887	45.020000
2494.878790	45.070000
2496.364043	47.580000
2497.844163	52.470000
2499.327256	42.230000
2500.808458	50.200000
2502.289391	48.060000
2503.768435	52.400000
2505.247210	45.190000
2506.725717	52.270000
2508.203956	47.510000
2509.681926	47.900000
2511.156391	50.910000
2512.633826	50.580000
2514.107757	50.250000
2515.583038	55.020000
2517.058052	51.370000
2518.529565	55.260000
2520.002429	50.270000
2521.473410	54.370000
2522.945741	53.830000
2524.412958	54.230000
2525.883142	48.110000
2527.351445	52.960000
2528.819483	57.260000
2530.287256	48.690000
2531.754764	46.060000
2533.222007	55.420000
2534.685758	56.770000
2536.150859	56.730000
2537.614083	52.750000
2539.078656	55.270000
2540.539741	52.170000
2542.002175	59.510000
2543.464346	59.360000
2544.923031	58.430000
2546.386287	53.150000
2547.844448	62.190000
2549.303957	57.530000
2550.758372	50.670000
2552.217358	54.410000
2553.674472	55.960000
2555.129715	57.850000
2556.584696	57.200000
2558.037809	52.880000
2559.492270	57.970000
2560.944861	51.470000
2562.397193	56.860000
2563.847658	54.940000
2565.301078	59.480000
2566.749416	58.780000
2568.200709	65.390000
2569.650137	58.530000
2571.096092	63.360000
2572.545002	59.760000
2573.990442	61.280000
2575.437229	59.690000
2576.882154	61.200000
2578.326820	61.160000
2579.772834	67.770000
2581.215382	66.460000
2582.659277	60.060000
2584.099707	67.180000
2585.541484	71.630000
2586.981402	67.620000
2588.422667	66.370000
2589.860470	70.360000
2591.301223	74.800000
2592.736914	67.070000
2594.175554	69.560000
2595.612336	67.830000
2597.047263	76.210000
2598.485137	71.380000
2599.917954	82.050000
2601.352118	72.310000
2602.784428	79.660000
2604.218084	75.510000
2605.649887	79.530000
2607.081436	77.510000
2608.512733	80.220000
2609.942177	82.380000
2611.371369	89.280000
2612.798711	84.920000
2614.227398	91.000000
2615.655834	85.930000
2617.080822	98.910000
2618.507157	94.440000
2619.931643	103.830000
2621.357475	97.310000
2622.779863	105.120000
2624.203597	103.220000
2625.625484	107.420000
2627.047122	107.770000
2628.466914	106.340000
2629.888052	109.300000
2631.308940	112.560000
2632.726390	105.280000
2634.146779	125.220000
2635.563731	118.060000
2636.980434	121.900000
2638.396889	125.310000
2639.813096	125.870000
2641.229055	126.430000
2642.643173	137.450000
2644.057043	138.600000
2645.469075	132.020000
2646.882450	143.210000
2648.292396	146.070000
2649.705278	149.400000
2651.114731	151.880000
2652.523938	152.420000
2653.931309	159.540000
2655.341614	154.670000
2656.750084	165.810000
2658.156718	164.970000
2659.563107	166.140000
2660.967662	176.160000
2662.373561	179.730000
2663.777627	181.420000
2665.181448	182.880000
2666.585025	185.140000
2667.986771	187.740000
2669.389860	194.770000
2670.789531	199.970000
2672.190546	196.710000
2673.588145	204.760000
2674.988674	198.870000
2676.385787	203.230000
2677.784244	199.100000
2679.180874	202.930000
2680.577261	202.700000
2681.973406	205.230000
2683.367725	205.590000
2684.763387	204.140000
2686.155640	197.870000
2687.549235	207.390000
2688.941006	206.270000
2690.334120	207.610000
2691.725410	198.710000
2693.114877	206.860000
2694.504104	199.260000
2695.893092	199.080000
2697.283421	197.310000
2698.668767	197.420000
2700.057036	190.410000
2701.443485	191.210000
2702.829695	185.010000
2704.215666	185.410000
2705.598239	182.500000
2706.982154	176.240000
2708.365831	167.700000
2709.749269	169.420000
2711.129313	157.630000
2712.510697	164.990000
2713.890267	151.300000
2715.271177	151.780000
2716.650273	144.520000
2718.027555	141.120000
2719.406178	131.510000
2720.782988	127.340000
2722.159561	118.100000
2723.535899	120.050000
2724.910426	108.310000
2726.286293	114.290000
2727.658773	103.350000
2729.034169	104.760000
2730.404605	99.210000
2731.776382	98.000000
2733.147924	90.950000
2734.517658	88.960000
2735.888733	87.450000
2737.257999	94.870000
2738.627032	75.350000
2739.994259	82.100000
2741.361252	76.730000
2742.728013	72.590000
2744.094542	76.060000
2745.459265	77.190000
2746.823756	69.350000
2748.188016	70.440000
2749.552043	66.050000
2750.915839	73.120000
2752.276261	60.420000
2753.639593	68.780000
2754.997983	65.230000
2756.359283	67.790000
2757.717213	62.100000
2759.078051	60.170000
2760.437090	56.720000
2761.792760	59.370000
2763.151338	58.930000
2764.506549	64.790000
2765.861531	61.390000
2767.214717	63.000000
2768.570809	55.090000
2769.923536	60.730000
2771.276036	58.000000
2772.628307	62.780000
2773.981916	56.160000
2775.332165	60.200000
2776.680619	52.080000
2778.031979	57.400000
2779.379979	50.920000
2780.729317	56.250000
2782.076863	56.640000
2783.424183	52.870000
2784.771276	55.930000
2786.116578	52.570000
2787.461653	55.980000
2788.806503	56.000000
2790.151127	55.010000
2791.492399	54.530000
2792.835009	50.140000
2794.177393	51.930000
2795.519552	48.060000
2796.858362	53.230000
2798.200072	55.580000
2799.538434	54.060000
2800.878132	55.220000
2802.216046	55.630000
2803.552175	46.410000
2804.888080	52.980000
2806.225323	53.020000
2807.560782	54.320000
2808.896018	51.320000
2810.229471	52.770000
2811.564261	49.180000
2812.895711	52.310000
2814.230056	52.180000
2815.559503	54.250000
2816.890287	51.730000
2818.220849	49.050000
2819.549632	48.720000
2820.879751	48.890000
2822.208092	42.860000
2823.536212	48.960000
2824.862554	43.930000
2826.190233	51.030000
2827.514578	45.370000
2828.840260	48.180000
2830.164166	50.230000
2831.487853	49.990000
2832.812875	49.610000
2834.134567	49.020000
2835.456041	46.190000
2836.777296	49.270000
2838.098332	42.280000
2839.417595	45.910000
2840.738194	44.020000
2842.057022	46.350000
2843.375631	41.910000
2844.692469	51.970000
2846.009090	45.860000
2847.325494	51.190000
2848.640128	44.650000
2849.956098	50.960000
2851.268747	48.270000
2852.582731	51.780000
2853.896499	46.200000
2855.210050	52.870000
2856.521835	45.990000
2857.831853	49.690000
2859.143206	48.740000
2860.451244	50.440000
2861.760616	46.410000
2863.069774	49.930000
2864.378716	49.160000
2865.685894	50.800000
2866.991310	45.780000
2868.298060	51.680000
2869.603047	46.150000
2870.907821	41.370000
2872.210833	43.020000
2873.516726	49.490000
2874.817765	41.850000
2876.120138	43.320000
2877.420751	48.480000
2878.722698	52.920000
2880.024431	40.960000
2881.322861	45.790000
2882.622624	45.400000
2883.920630	51.640000
2885.218424	44.090000
2886.514462	51.170000
2887.811833	49.110000
2889.107448	48.990000
2890.402852	45.220000
2891.698045	47.370000
2892.989941	45.500000
2894.284713	46.070000
2895.576188	50.130000
2896.868996	44.080000
2898.161594	41.650000
2899.450898	47.610000
2900.741534	46.260000
2902.030419	40.600000
2903.320636	44.200000
2904.607562	46.000000
2905.895820	45.290000
2907.182329	47.630000
2908.468629	46.620000
2909.754722	50.210000
2911.039066	41.840000
2912.326281	48.280000
2913.608670	41.600000
2914.892391	51.650000
2916.174366	44.010000
2917.456133	53.740000
2918.736156	51.830000
2920.019048	48.420000
2921.300195	47.770000
2922.578060	49.170000
2923.858794	42.500000
2925.136247	45.260000
2926.413494	42.460000
2927.688999	44.920000
2928.967372	43.700000
2930.240931	47.030000
2931.517357	35.930000
2932.792042	45.740000
2934.064986	45.730000
2935.339262	42.810000
2936.611798	43.500000
2937.884129	43.440000
2939.153188	48.610000
2940.425112	44.280000
2941.695298	36.130000
2942.965280	45.590000
2944.235059	44.170000
2945.503102	41.080000
2946.769408	37.300000
2948.035513	42.250000
2949.302947	38.550000
2950.568647	44.600000
2951.834144	40.000000
2953.099439	42.310000
2954.361469	45.830000
2955.624829	48.520000
2956.887988	43.220000
2958.149415	40.150000
2959.412171	39.550000
2960.673195	40.120000
2961.932489	38.500000
2963.191583	43.920000
2964.450476	38.160000
2965.709169	37.650000
2966.967662	38.220000
2968.224426	39.220000
2969.480990	37.190000
2970.735827	44.680000
2971.991992	39.370000
2973.244903	40.870000
2974.499143	37.690000
2975.753184	40.260000
2977.005499	38.230000
2978.257615	40.260000
2979.508007	35.210000
2980.761254	41.060000
2982.009724	42.070000
2983.261049	41.440000
2984.509124	35.430000
2985.757003	42.580000
2987.004684	41.010000
2988.252168	40.700000
2989.497931	42.510000
2990.743498	40.930000
2991.990392	38.320000
2993.234042	40.070000
2994.479020	40.780000
2995.720754	41.920000
2996.965340	41.260000
2998.208207	45.520000
2999.447833	39.710000
3000.690309	37.240000
3001.929545	40.810000
3003.170109	40.530000
3004.408957	38.740000
3005.647609	45.590000
3006.884546	39.410000
3008.122811	39.410000
3009.359360	36.930000
3010.595716	42.330000
3011.831878	37.990000
3013.066326	40.930000
3014.300582	37.710000
3015.534644	44.890000
3016.766994	36.850000
3017.997632	41.260000
3019.231116	39.420000
3020.462888	42.420000
3021.692950	39.090000
3022.922819	38.760000
3024.150980	37.570000
3025.380466	39.040000
3026.608243	37.450000
3027.835829	39.380000
3029.064742	37.810000
3030.288912	41.280000
3031.515925	41.980000
3032.739714	36.000000
3033.964830	37.220000
3035.188239	39.670000
3036.411458	39.820000
3037.632972	37.200000
3038.857327	36.220000
3040.076947	38.640000
3041.297893	34.860000
3042.518650	42.280000
3043.737703	30.860000
3044.958081	40.170000
3046.175243	35.790000
3047.393731	40.590000
3048.610516	38.090000
3049.827114	36.620000
3051.043523	34.470000
3052.256720	40.030000
3053.472754	39.070000
3054.685576	36.610000
3055.901235	38.150000
3057.112171	41.210000
3058.324432	36.940000
3059.536507	32.090000
3060.748394	33.460000
3061.958585	35.010000
3063.168589	36.620000
3064.378407	37.400000
3065.586529	36.050000
3066.794466	36.160000
3068.000707	34.480000
3069.208273	34.400000
3070.414144	34.685000
3071.619831	34.970000
3072.825332	30.870000
3074.029140	41.930000
3075.234272	33.840000
3076.437711	36.030000
3077.639459	31.100000
3078.841022	35.800000
3080.042402	27.050000
3081.243598	40.820000
3082.443104	31.580000
3083.642427	44.440000
3084.843073	33.470000
3086.042029	36.720000
3087.237791	28.750000
3088.436382	42.750000
3089.631779	31.930000
3090.828499	42.820000
3092.022027	33.840000
3093.218383	40.080000
3094.413053	39.880000
3095.604532	38.870000
3096.800342	36.140000
3097.991458	34.610000
3099.183898	39.490000
3100.373150	37.010000
3101.565227	36.270000
3102.755621	37.460000
3103.942829	30.030000
3105.131360	38.420000
3106.321212	34.400000
3107.507881	35.540000
3108.694369	32.060000
3109.880679	39.270000
3111.068310	39.090000
3112.252759	36.860000
3113.435529	37.090000
3114.621121	38.120000
3115.805034	34.690000
3116.987268	42.170000
3118.169323	31.930000
3119.351200	37.730000
3120.532899	29.740000
3121.712921	42.210000
3122.891266	35.520000
3124.072431	36.270000
3125.250421	36.500000
3126.428235	30.890000
3127.605871	28.100000
3128.781832	35.250000
3129.957616	34.140000
3131.134722	34.350000
3132.310153	34.680000
3133.483911	38.110000
3134.655996	36.260000
3135.829403	36.950000
3137.002633	36.590000
3138.174192	41.740000
3139.347071	29.800000
3140.516783	36.930000
3141.687816	31.210000
3142.857179	38.300000
3144.024871	30.010000
3145.195379	40.260000
3146.361229	39.070000
3147.531387	39.900000
3148.696889	39.930000
3149.862216	49.450000
3151.027370	33.730000
3152.192351	34.410000
3153.358651	35.190000
3154.520299	37.330000
3155.683266	35.190000
3156.846061	38.210000
3158.008683	33.990000
3159.169640	40.830000
3160.330424	37.230000
3161.491036	35.110000
3162.649984	31.100000
3163.808761	38.740000
3164.967366	33.690000
3166.125798	38.180000
3167.284060	32.610000
3168.440659	35.060000
3169.595597	33.740000
3170.751854	32.310000
3171.906450	31.050000
3173.060876	36.570000
3174.213642	35.750000
3175.366237	40.880000
3176.518663	34.010000
3177.670919	33.640000
3178.823004	31.240000
3179.971944	39.440000
3181.123690	31.960000
3182.273778	34.580000
3183.422210	34.720000
3184.570472	39.960000
3185.718566	38.320000
3186.866491	30.740000
3188.012760	31.990000
3189.158861	39.210000
3190.303308	31.900000
3191.447587	38.940000
3192.591698	35.950000
3193.737126	39.870000
3194.879416	41.520000
3196.021539	41.000000
3197.163494	34.810000
3198.305282	43.570000
3199.446903	34.580000
3200.585389	39.910000
3201.725192	44.660000
3202.866313	39.310000
3204.004299	39.500000
3205.140636	42.190000
3206.276807	38.220000
3207.414295	39.200000
3208.550135	37.720000
3209.687292	41.540000
3210.819836	41.080000
3211.956662	45.660000
3213.088876	37.770000
3214.222407	44.610000
3215.355774	40.100000
3216.486013	41.850000
3217.619050	36.900000
3218.748961	45.810000
3219.880188	40.980000
3221.008291	42.510000
3222.139190	38.640000
3223.268445	45.370000
3224.396057	36.460000
3225.520546	44.760000
3226.649311	37.230000
3227.774954	38.610000
3228.900435	37.770000
3230.024274	40.730000
3231.150907	37.110000
3232.272943	37.700000
3233.396295	32.430000
3234.519485	36.600000
3235.642512	29.420000
3236.763901	34.300000
3237.885127	31.690000
3239.004716	36.830000
3240.124143	40.420000
3241.241932	32.240000
3242.362513	27.230000
3243.479981	34.790000
3244.597288	35.790000
3245.714435	31.890000
3246.829946	35.030000
3247.946771	40.750000
3249.060487	30.070000
3250.176992	37.220000
3251.291863	30.320000
3252.403625	35.670000
3253.515227	29.490000
3254.628145	29.980000
3255.740903	30.920000
3256.850555	34.010000
3257.961522	33.320000
3259.072330	33.290000
3260.181506	28.580000
3261.289052	43.510000
3262.397911	28.110000
3263.506613	32.590000
3264.612212	31.480000
3265.719125	36.650000
3266.824409	32.720000
3267.931007	30.910000
3269.034505	32.330000
3270.139318	32.180000
3271.243973	35.440000
3272.345529	34.380000
3273.446929	27.900000
3274.549643	28.010000
3275.652201	28.030000
3276.751662	31.860000
3277.853907	26.810000
3278.953056	32.680000
3280.050581	27.030000
3281.147950	34.080000
3282.248101	29.280000
3283.345160	34.470000
3284.442063	33.930000
3285.538811	33.090000
3286.631001	34.380000
3287.727439	36.250000
3288.822255	27.770000
3289.916917	31.800000
3291.009957	25.790000
3292.102842	35.990000
3293.194108	30.420000
3294.286685	27.940000
3295.377643	31.830000
3296.466981	34.930000
3297.556166	31.480000
3298.646664	33.690000
3299.734077	33.130000
3300.821337	28.520000
3301.909910	30.860000
3302.998331	33.370000
3304.082204	31.070000
3305.170319	29.410000
3306.255352	29.340000
3307.338770	31.060000
3308.423500	34.070000
3309.506614	29.350000
3310.591041	27.070000
3311.672389	33.200000
3312.755049	33.060000
3313.836095	31.740000
3314.916990	28.380000
3315.996271	32.260000
3317.075402	26.860000
3318.155845	30.030000
3319.233213	23.560000
3320.311893	33.030000
3321.388961	30.200000
3322.465880	30.920000
3323.541187	32.280000
3324.616345	30.040000
3325.692814	32.950000
3326.766213	27.060000
3327.839463	26.750000
3328.914023	25.870000
3329.986975	30.010000
3331.058318	28.890000
3332.130972	25.180000
3333.200560	34.550000
3334.271458	29.870000
3335.340749	33.610000
3336.411351	28.210000
3337.480346	34.130000
3338.547735	24.900000
3339.613519	28.600000
3340.683529	29.520000
3341.750476	36.650000
3342.814361	30.660000
3343.881014	30.190000
3344.946062	26.670000
3346.009507	38.000000
3347.072806	30.950000
3348.135958	32.520000
3349.198964	29.350000
3350.261824	31.580000
3351.323082	23.550000
3352.381283	30.880000
3353.443704	24.310000
3354.503070	30.280000
3355.562290	23.190000
3356.622820	29.380000
3357.678840	32.820000
3358.737624	35.950000
3359.791901	29.280000
3360.848942	29.460000
3361.904384	28.410000
3362.961136	32.350000
3364.016289	21.650000
3365.069845	28.250000
3366.121805	24.560000
3367.176526	31.870000
3368.228198	30.000000
3369.279727	34.940000
3370.332564	25.540000
3371.382354	30.370000
3372.433453	24.170000
3373.481506	30.510000
3374.532318	31.230000
3375.580086	33.850000
3376.627711	22.830000
3377.675193	26.610000
3378.721083	29.330000
3379.768281	29.910000
3380.812437	30.300000
3381.859351	30.860000
3382.904673	24.520000
3383.946954	32.860000
3384.989095	25.520000
3386.032543	29.970000
3387.075850	34.470000
3388.117568	33.820000
3389.159144	28.770000
3390.200579	26.740000
3391.240426	26.370000
3392.278684	29.340000
3393.318250	27.410000
3394.357676	29.250000
3395.395514	33.210000
3396.431765	33.530000
3397.467877	29.140000
3398.505296	30.180000
3399.539682	24.040000
3400.575375	27.700000
3401.610929	24.020000
3402.643452	32.720000
3403.678728	27.430000
3404.710973	26.610000
3405.743080	26.010000
3406.773603	31.920000
3407.805433	24.200000
3408.837125	26.550000
3409.865789	28.110000
3410.894316	28.340000
3411.924149	28.880000
3412.953845	29.850000
3413.980515	25.310000
3415.008492	29.090000
3416.033444	27.190000
3417.061146	29.960000
3418.085825	27.210000
3419.111810	28.660000
3420.136215	24.050000
3421.160484	26.250000
3422.183174	18.930000
3423.205728	32.300000
3424.229588	20.180000
3425.250428	27.640000
3426.271132	22.010000
3427.293143	25.550000
3428.312135	25.270000
3429.330991	24.710000
3430.351154	22.030000
3431.368300	28.660000
