-117.753856	55.000000
-115.084255	45.000000
-112.417590	-24.000000
-109.751678	-46.000000
-107.088697	82.000000
-104.424286	61.000000
-101.762806	39.000000
-99.099897	-84.000000
-96.442095	91.000000
-93.782862	-27.000000
-91.124378	78.000000
-88.468819	-29.000000
-85.811831	58.000000
-83.159940	3.000000
-80.506620	-17.000000
-77.856220	64.000000
-75.204390	24.000000
-72.557651	8.000000
-69.909482	32.000000
-67.262057	63.000000
-64.617545	22.000000
-61.971604	-70.000000
-59.330746	28.000000
-56.688457	34.000000
-54.049078	95.000000
-51.408270	-4.000000
-48.768201	55.000000
-46.133206	16.000000
-43.496781	31.000000
-40.863260	139.000000
-38.228309	40.000000
-35.598425	85.000000
-32.964947	70.000000
-30.336532	-1.000000
-27.708851	165.000000
-25.079742	140.000000
-22.455689	130.000000
-19.828047	55.000000
-17.205458	299.000000
-14.583600	406.000000
-11.962473	700.000000
-9.342077	1834.000000
-6.724568	5844.000000
-4.105631	17217.000000
-1.489580	40913.000000
1.125743	43561.000000
3.740339	21363.000000
6.352053	2423.000000
8.965194	427.000000
11.573302	230.000000
14.184992	181.000000
16.791651	77.000000
19.399738	24.000000
22.007101	107.000000
24.609439	131.000000
27.215355	70.000000
29.816250	50.000000
32.418572	63.000000
35.015876	53.000000
37.616756	-11.000000
40.212622	53.000000
42.809915	-3.000000
45.406489	21.000000
47.998054	-80.000000
50.591047	50.000000
53.181179	52.000000
55.772739	133.000000
58.361439	48.000000
60.951567	126.000000
63.536695	-79.000000
66.123251	76.000000
68.709092	88.000000
71.292080	66.000000
73.876495	-59.000000
76.453780	82.000000
79.034632	59.000000
81.612635	80.000000
84.189928	107.000000
86.768647	119.000000
89.342385	39.000000
91.917549	-27.000000
94.489870	18.000000
97.061484	120.000000
99.630257	57.000000
102.200457	62.000000
104.767818	-104.000000
107.336606	79.000000
109.902556	24.000000
112.465672	99.000000
115.032345	35.000000
117.589795	86.000000
120.152931	77.000000
122.711108	208.000000
125.272839	187.000000
127.829613	429.000000
130.387813	392.000000
132.941061	718.000000
135.493610	852.000000
138.049711	1249.000000
140.600863	1630.000000
143.151317	1810.000000
145.701075	2112.000000
148.248013	2424.000000
150.794255	2496.000000
153.341924	2459.000000
155.888896	2507.000000
158.430932	2104.000000
160.972275	2239.000000
163.512926	2350.000000
166.055001	2241.000000
168.594266	2313.000000
171.130721	2365.000000
173.666486	2472.000000
176.203676	2269.000000
178.740174	2297.000000
181.273868	2290.000000
183.804757	2266.000000
186.334958	2237.000000
188.866584	2157.000000
191.395410	2036.000000
193.921436	2199.000000
196.446776	2071.000000
198.973541	2218.000000
201.497510	2260.000000
204.020793	2440.000000
206.543392	2249.000000
209.063198	2385.000000
211.582321	2100.000000
214.100761	2370.000000
216.620625	2361.000000
219.133488	2303.000000
221.649882	2292.000000
224.165595	2232.000000
226.676417	2234.000000
229.188664	2015.000000
231.698128	2363.000000
234.206914	2390.000000
236.715022	2325.000000
239.224554	2283.000000
241.729205	2443.000000
244.233180	2409.000000
246.738579	2253.000000
249.239103	2400.000000
251.743150	2399.000000
254.240227	2516.000000
256.740826	2462.000000
259.238654	2339.000000
261.735809	2526.000000
264.232291	2483.000000
266.723911	2383.000000
269.219049	2505.000000
271.711422	2321.000000
274.203124	2613.000000
276.692063	2523.000000
279.182425	2635.000000
281.670026	2416.000000
284.154867	2557.000000
286.643222	2720.000000
289.124639	2596.000000
291.609569	2585.000000
294.089653	2676.000000
296.573250	2534.000000
299.052005	2848.000000
301.532182	2743.000000
304.009608	2619.000000
306.486370	2527.000000
308.962468	2755.000000
311.435818	2607.000000
313.908507	2944.000000
316.380534	3151.000000
318.851899	3547.000000
321.320521	3465.000000
323.788483	3449.000000
326.257868	3295.000000
328.722430	3044.000000
331.190495	3005.000000
333.653741	3048.000000
336.116330	2920.000000
338.578261	2630.000000
341.039536	2722.000000
343.498077	2878.000000
345.958040	3081.000000
348.415271	2834.000000
350.871847	2893.000000
353.327768	2871.000000
355.780961	2694.000000
358.235576	2775.000000
360.685389	2684.000000
363.138698	2786.000000
365.587208	2741.000000
368.035068	2771.000000
370.484349	2847.000000
372.928837	2762.000000
375.374747	2886.000000
377.820008	2730.000000
380.262550	2751.000000
382.704444	2743.000000
385.145690	2825.000000
387.584221	2729.000000
390.024174	2545.000000
392.461413	2785.000000
394.895940	2931.000000
397.333955	2750.000000
399.767193	2740.000000
402.201853	2668.000000
404.631740	2668.000000
407.065112	2988.000000
409.493713	2793.000000
411.921674	2718.000000
414.351055	2694.000000
416.775672	2664.000000
419.201709	2959.000000
421.627107	2797.000000
424.051864	2878.000000
426.471862	2681.000000
428.893282	2856.000000
431.312005	2991.000000
433.732149	2848.000000
436.149598	2839.000000
438.568467	2910.000000
440.984643	2672.000000
443.396072	2949.000000
445.810977	2922.000000
448.223192	2801.000000
450.634773	2629.000000
453.045720	2792.000000
455.453981	2827.000000
457.861610	2929.000000
460.268606	2638.000000
462.674970	2674.000000
465.078653	2508.000000
467.481705	2667.000000
469.884127	2997.000000
472.285919	2686.000000
474.685033	2689.000000
477.085567	2721.000000
479.485472	2584.000000
481.880654	2656.000000
484.279303	2595.000000
486.673232	2704.000000
489.066535	2793.000000
491.459212	2380.000000
493.851264	2532.000000
496.244735	2493.000000
498.633493	2340.000000
501.019585	2116.000000
503.407097	2234.000000
505.793985	1807.000000
508.178210	1946.000000
510.563854	1919.000000
512.946835	1878.000000
515.327156	1752.000000
517.708896	1943.000000
520.087977	1532.000000
522.468477	1581.000000
524.846319	1705.000000
527.221506	1812.000000
529.596075	1689.000000
531.972063	1592.000000
534.345397	1432.000000
536.720150	1484.000000
539.090216	1571.000000
541.459667	1415.000000
543.830537	1494.000000
546.196725	1598.000000
548.564332	1379.000000
550.929293	1498.000000
553.293641	1353.000000
555.657377	1519.000000
558.022530	1428.000000
560.383011	1486.000000
562.744909	1510.000000
565.104168	1475.000000
567.460788	1477.000000
569.820854	1366.000000
572.174228	1255.000000
574.531047	1355.000000
576.885231	1249.000000
579.238806	1408.000000
581.591773	1209.000000
583.942109	1171.000000
586.293861	1337.000000
588.638937	1403.000000
590.989477	1248.000000
593.333344	1237.000000
595.682672	1419.000000
598.027351	1411.000000
600.369406	1279.000000
602.712878	1336.000000
605.053727	1274.000000
607.393973	1204.000000
609.731599	1289.000000
612.072660	1235.000000
614.409084	1164.000000
616.746924	1261.000000
619.082146	1082.000000
621.414753	1202.000000
623.748777	1235.000000
626.080186	1242.000000
628.410997	1168.000000
630.741210	1217.000000
633.070826	1095.000000
635.395818	1148.000000
637.726252	1146.000000
640.052064	1024.000000
642.375270	1062.000000
644.699892	1180.000000
647.021908	1079.000000
649.343330	1197.000000
651.662149	1199.000000
653.982384	1091.000000
656.302026	1272.000000
658.619067	1109.000000
660.935517	940.000000
663.249368	1127.000000
665.564634	1043.000000
667.877304	994.000000
670.191389	1072.000000
672.500875	980.000000
674.811775	1177.000000
677.120083	1092.000000
679.427803	969.000000
681.736938	988.000000
684.041480	1164.000000
686.345436	1094.000000
688.648805	850.000000
690.953589	933.000000
693.253787	851.000000
695.555400	812.000000
697.856427	852.000000
700.152873	1089.000000
702.450733	986.000000
704.748011	1096.000000
707.044704	1168.000000
709.336822	1004.000000
711.632351	782.000000
713.923307	925.000000
716.215677	885.000000
718.505471	974.000000
720.794686	934.000000
723.083320	839.000000
725.369383	982.000000
727.656859	984.000000
729.941765	1006.000000
732.226092	977.000000
734.507852	1061.000000
736.791025	1053.000000
739.073621	1131.000000
741.351661	1043.000000
743.631115	896.000000
745.909994	986.000000
748.188297	1028.000000
750.462051	978.000000
752.737219	1207.000000
755.011813	1238.000000
757.283848	1012.000000
759.557296	1134.000000
761.828186	1047.000000
764.096519	1023.000000
766.366267	900.000000
768.633459	1092.000000
770.900081	994.000000
773.166134	962.000000
775.429635	1145.000000
777.694548	1160.000000
779.958893	1156.000000
782.218707	981.000000
784.479935	1334.000000
786.740595	1121.000000
788.998708	1219.000000
791.254277	1050.000000
793.513237	1140.000000
795.765698	1147.000000
798.023526	1122.000000
800.276835	1038.000000
802.527603	986.000000
804.779784	1294.000000
807.029427	1095.000000
809.280481	1121.000000
811.527024	1040.000000
813.774980	1085.000000
816.020400	1175.000000
818.267233	1191.000000
820.513503	1140.000000
822.755270	1094.000000
825.000419	1218.000000
827.239096	1118.000000
829.481156	1017.000000
831.718717	1046.000000
833.957689	1097.000000
836.194135	1043.000000
838.431993	1017.000000
840.667325	1074.000000
842.900133	972.000000
845.134353	1126.000000
847.366051	921.000000
849.597194	892.000000
851.827782	924.000000
854.057816	1052.000000
856.287295	898.000000
858.512294	949.000000
860.740666	923.000000
862.964560	884.000000
865.189864	1071.000000
867.410693	1085.000000
869.634894	844.000000
871.854622	1077.000000
874.075761	728.000000
876.296349	1034.000000
878.514428	1022.000000
880.733916	1010.000000
882.948938	1026.000000
885.163412	940.000000
887.377339	872.000000
889.590718	959.000000
891.803551	1090.000000
894.015836	939.000000
896.225620	970.000000
898.434858	908.000000
900.643550	971.000000
902.849744	1247.000000
905.057347	1001.000000
907.262453	915.000000
909.467015	904.000000
911.669082	1036.000000
913.872558	899.000000
916.073540	908.000000
918.273980	827.000000
920.475829	994.000000
922.671287	1008.000000
924.870103	1020.000000
927.064482	990.000000
929.262218	960.000000
931.455518	985.000000
933.650226	954.000000
935.842449	893.000000
938.034134	919.000000
940.225281	1157.000000
942.413945	1073.000000
944.602072	1120.000000
946.787719	1188.000000
948.976718	1145.000000
951.161294	1139.000000
953.345335	1212.000000
955.532726	1074.000000
957.711814	1210.000000
959.894251	1183.000000
962.076155	1171.000000
964.255585	1330.000000
966.432542	1092.000000
968.610907	1161.000000
970.790678	1257.000000
972.964101	1389.000000
975.140870	1297.000000
977.313233	1300.000000
979.487003	1476.000000
981.656369	1412.000000
983.829079	1274.000000
985.999323	1360.000000
988.169039	1366.000000
990.338226	1428.000000
992.503016	1450.000000
994.671148	1469.000000
996.834884	1345.000000
999.000028	1629.000000
1001.162712	1489.000000
1003.324871	1609.000000
1005.484572	1576.000000
1007.643750	1561.000000
1009.804334	1382.000000
1011.962463	1672.000000
1014.120068	1722.000000
1016.277150	1546.000000
1018.433709	1606.000000
1020.585888	1527.000000
1022.739474	1533.000000
1024.892537	1603.000000
1027.043153	1572.000000
1029.195174	1587.000000
1031.342822	1757.000000
1033.493802	1700.000000
1035.640412	1783.000000
1037.786502	1688.000000
1039.932074	1489.000000
1042.079050	1693.000000
1044.219739	1812.000000
1046.363756	1741.000000
1048.505334	1865.000000
1050.646394	1918.000000
1052.788859	1836.000000
1054.925045	1804.000000
1057.064557	1926.000000
1059.199713	1960.000000
1061.338194	1826.000000
1063.472322	1870.000000
1065.605936	2019.000000
1067.740954	1915.000000
1069.871623	1728.000000
1072.003698	1967.000000
1074.133342	1830.000000
1076.262475	1940.000000
1078.391097	1805.000000
1080.519207	1846.000000
1082.644891	1743.000000
1084.770065	1767.000000
1086.896642	1644.000000
1089.018883	1708.000000
1091.142528	1641.000000
1093.261838	1466.000000
1095.386377	1515.000000
1097.504672	1506.000000
1099.624370	1436.000000
1101.741650	1489.000000
1103.858424	1537.000000
1105.974691	1618.000000
1108.088543	1559.000000
1110.203798	1488.000000
1112.314731	1476.000000
1114.428975	1523.000000
1116.538900	1457.000000
1118.650227	1504.000000
1120.761051	1492.000000
1122.867558	1502.000000
1124.977374	1223.000000
1127.082876	1348.000000
1129.189782	1464.000000
1131.290471	1340.000000
1133.396373	1379.000000
1135.497966	1427.000000
1137.600962	1453.000000
1139.703457	1358.000000
1141.799746	1360.000000
1143.901241	1523.000000
1145.998434	1387.000000
1148.095128	1374.000000
1150.191325	1436.000000
1152.287023	1342.000000
1154.382224	1423.000000
1156.475028	1401.000000
1158.569234	1437.000000
1160.657249	1398.000000
1162.750462	1368.000000
1164.837487	1270.000000
1166.927812	1202.000000
1169.013848	1285.000000
1171.103182	1498.000000
1173.186335	1264.000000
1175.270891	1349.000000
1177.356847	1401.000000
1179.438522	1256.000000
1181.521599	1325.000000
1183.602290	1120.000000
1185.682490	1341.000000
1187.762198	1406.000000
1189.841414	1486.000000
1191.918249	1194.000000
1193.992703	1376.000000
1196.070449	1266.000000
1198.143924	1229.000000
1200.218801	1242.000000
1202.289410	1279.000000
1204.361420	1354.000000
1206.431054	1375.000000
1208.502089	1284.000000
1210.572636	1295.000000
1212.638922	1255.000000
1214.706609	1255.000000
1216.771924	1205.000000
1218.838639	1348.000000
1220.901098	1223.000000
1222.966843	1257.000000
1225.028333	1315.000000
1227.091223	1084.000000
1229.151746	1280.000000
1231.211786	1315.000000
1233.271342	1394.000000
1235.328534	1094.000000
1237.385243	1278.000000
1239.439590	1260.000000
1241.497217	1183.000000
1243.552482	1281.000000
1245.603506	1193.000000
1247.655930	1339.000000
1249.707875	1186.000000
1251.757461	1327.000000
1253.806568	1078.000000
1255.855196	1243.000000
1257.903346	1411.000000
1259.951018	1305.000000
1261.994459	1323.000000
1264.041175	1397.000000
1266.085539	1401.000000
1268.129425	1328.000000
1270.170961	1304.000000
1272.210147	1365.000000
1274.252605	1520.000000
1276.290842	1372.000000
1278.330476	1405.000000
1280.369636	1304.000000
1282.404578	1332.000000
1284.440918	1256.000000
1286.474913	1568.000000
1288.510307	1477.000000
1290.541487	1326.000000
1292.574066	1508.000000
1294.606172	1442.000000
1296.635938	1520.000000
1298.667102	1716.000000
1300.694058	1599.000000
1302.722412	1643.000000
1304.746562	1741.000000
1306.773977	1875.000000
1308.797189	2028.000000
1310.821799	1883.000000
1312.844074	1851.000000
1314.867747	2064.000000
1316.889087	2066.000000
1318.909960	2099.000000
1320.930365	2298.000000
1322.946576	2267.000000
1324.964186	2342.000000
1326.979467	2467.000000
1328.998007	2721.000000
1331.012357	2593.000000
1333.024382	2735.000000
1335.039665	2721.000000
1337.050762	2652.000000
1339.063255	2814.000000
1341.071566	3040.000000
1343.083133	2893.000000
1345.088661	2699.000000
1347.097443	2740.000000
1349.102049	2563.000000
1351.109908	2633.000000
1353.117304	2623.000000
1355.118670	2503.000000
1357.121433	2424.000000
1359.123736	2493.000000
1361.125578	2237.000000
1363.126962	2001.000000
1365.126031	1918.000000
1367.124642	1884.000000
1369.122795	1919.000000
1371.120490	1754.000000
1373.114021	1614.000000
1375.108949	1570.000000
1377.103420	1684.000000
1379.097434	1565.000000
1381.089141	1539.000000
1383.080392	1524.000000
1385.069338	1583.000000
1387.059679	1474.000000
1389.049565	1427.000000
1391.037148	1299.000000
1393.024277	1416.000000
1395.009104	1397.000000
1396.995326	1289.000000
1398.979247	1411.000000
1400.962716	1325.000000
1402.945733	1287.000000
1404.926452	1282.000000
1406.908565	1220.000000
1408.888381	1309.000000
1410.867747	1204.000000
1412.842974	1288.000000
1414.821439	1371.000000
1416.797611	1182.000000
1418.773333	1252.000000
1420.748606	1340.000000
1422.721588	1314.000000
1424.694123	1279.000000
1426.666209	1353.000000
1428.637847	1328.000000
1430.605358	1244.000000
1432.577942	1125.000000
1434.542720	1503.000000
1436.512571	1416.000000
1438.478297	1479.000000
1440.445417	1474.000000
1442.410253	1324.000000
1444.370969	1504.000000
1446.336753	1279.000000
1448.296582	1283.000000
1450.257804	1408.000000
1452.220419	1428.000000
1454.178919	1423.000000
1456.136977	1384.000000
1458.094592	1517.000000
1460.051766	1358.000000
1462.006664	1391.000000
1463.962954	1453.000000
1465.916970	1481.000000
1467.870546	1393.000000
1469.821849	1424.000000
1471.774544	1570.000000
1473.724968	1526.000000
1475.674953	1450.000000
1477.624498	1474.000000
1479.571775	1580.000000
1481.516785	1653.000000
1483.463187	1527.000000
1485.409151	1647.000000
1487.354677	1639.000000
1489.297939	1584.000000
1491.240764	1629.000000
1493.181326	1489.000000
1495.123279	1753.000000
1497.062971	1683.000000
1499.002227	1660.000000
1500.941049	1792.000000
1502.877611	1877.000000
1504.815563	1750.000000
1506.751258	1962.000000
1508.686519	2012.000000
1510.619523	1934.000000
1512.552095	1960.000000
1514.484235	1841.000000
1516.415943	2050.000000
1518.345398	2250.000000
1520.276242	2209.000000
1522.206656	2382.000000
1524.132997	2340.000000
1526.060728	2399.000000
1527.986209	2694.000000
1529.911261	2886.000000
1531.835884	3154.000000
1533.760078	3284.000000
1535.682025	3447.000000
1537.605361	3871.000000
1539.526452	4133.000000
1541.445298	4565.000000
1543.365534	5252.000000
1545.283526	6114.000000
1547.201092	6883.000000
1549.116416	8338.000000
1551.033130	9704.000000
1552.945789	11224.000000
1554.861652	13237.000000
1556.775276	15495.000000
1558.686661	17793.000000
1560.599435	19628.000000
1562.508160	21083.000000
1564.418275	21936.000000
1566.327966	21221.000000
1568.237233	20222.000000
1570.144267	17373.000000
1572.049068	15452.000000
1573.955258	13524.000000
1575.859216	11554.000000
1577.762754	9662.000000
1579.665870	8615.000000
1581.566758	7424.000000
1583.469034	6526.000000
1585.369081	5710.000000
1587.270517	4997.000000
1589.167918	4931.000000
1591.064902	4260.000000
1592.961467	3873.000000
1594.859419	3911.000000
1596.751537	3786.000000
1598.646849	3613.000000
1600.541742	3486.000000
1602.434414	3449.000000
1604.326670	3323.000000
1606.216706	3279.000000
1608.106326	2934.000000
1609.995531	2763.000000
1611.884320	2366.000000
1613.770893	2475.000000
1615.658852	2249.000000
1617.542796	2137.000000
1619.428126	2001.000000
1621.313043	1809.000000
1623.195746	1867.000000
1625.079835	1890.000000
1626.959914	1808.000000
1628.841379	1771.000000
1630.720634	1696.000000
1632.601275	1728.000000
1634.476112	1587.000000
1636.355931	1644.000000
1638.231744	1687.000000
1640.107148	1518.000000
1641.983937	1400.000000
1643.854929	1485.000000
1645.729103	1497.000000
1647.599279	1455.000000
1649.472635	1506.000000
1651.343788	1490.000000
1653.212739	1344.000000
1655.083076	1471.000000
1656.949419	1377.000000
1658.817149	1533.000000
1660.682679	1397.000000
1662.549594	1424.000000
1664.412521	1265.000000
1666.276833	1591.000000
1668.138950	1320.000000
1670.000661	1316.000000
1671.863757	1323.000000
1673.724659	1270.000000
1675.583367	1137.000000
1677.441672	1176.000000
1679.301362	1254.000000
1681.155285	1281.000000
1683.012380	1115.000000
1684.869073	1216.000000
1686.721790	1258.000000
1688.577678	1201.000000
1690.429592	1314.000000
1692.281105	1259.000000
1694.132217	1218.000000
1695.982928	1363.000000
1697.833239	1248.000000
1699.681366	1167.000000
1701.530876	1065.000000
1703.374638	1271.000000
1705.223350	1087.000000
1707.066315	1286.000000
1708.912446	1107.000000
1710.754616	1167.000000
1712.599950	1225.000000
1714.439544	1300.000000
1716.280522	1120.000000
1718.122883	1257.000000
1719.961288	1237.000000
1721.801076	1288.000000
1723.638689	1030.000000
1725.475906	1234.000000
1727.310950	1278.000000
1729.147377	1252.000000
1730.981632	1211.000000
1732.815493	1271.000000
1734.648959	1102.000000
1736.478479	1127.000000
1738.311158	1038.000000
1740.139893	1123.000000
1741.971786	1133.000000
1743.799736	1241.000000
1745.627294	1121.000000
1747.454461	1205.000000
1749.281235	1135.000000
1751.107619	1162.000000
1752.930066	1264.000000
1754.755667	1225.000000
1756.577334	1050.000000
1758.400383	1146.000000
1760.221271	1100.000000
1762.041769	1060.000000
1763.863649	1110.000000
1765.679829	1127.000000
1767.499161	1119.000000
1769.314566	1170.000000
1771.133122	1082.000000
1772.947752	1179.000000
1774.761995	943.000000
1776.575852	1224.000000
1778.389322	1164.000000
1780.200638	1155.000000
1782.013336	1147.000000
1783.825647	1225.000000
1785.634041	1067.000000
1787.443816	1090.000000
1789.249675	1025.000000
1791.058681	1093.000000
1792.863773	1160.000000
1794.670245	1204.000000
1796.476334	1075.000000
1798.278513	1060.000000
1800.083835	1152.000000
1801.885249	1016.000000
1803.688043	1071.000000
1805.486932	1117.000000
1807.287200	1024.000000
1809.087088	1154.000000
1810.884833	1168.000000
1812.682198	1044.000000
1814.479182	1130.000000
1816.275786	992.000000
1818.070251	1106.000000
1819.866096	1142.000000
1821.656285	1136.000000
1823.451371	1043.000000
1825.240804	1163.000000
1827.033375	1087.000000
1828.823810	1135.000000
1830.612110	1184.000000
1832.403546	975.000000
1834.189336	1237.000000
1835.976506	1089.000000
1837.761544	1096.000000
1839.549716	1087.000000
1841.334002	1197.000000
1843.116159	1016.000000
1844.899694	1235.000000
1846.681102	915.000000
1848.463887	1075.000000
1850.242793	972.000000
1852.023077	1214.000000
1853.801236	1031.000000
1855.580772	1110.000000
1857.358184	1099.000000
1859.133472	1170.000000
1860.910139	963.000000
1862.684683	1043.000000
1864.460604	1124.000000
1866.230906	1221.000000
1868.004335	1065.000000
1869.775644	1175.000000
1871.546582	1023.000000
1873.318897	1186.000000
1875.085600	1036.000000
1876.855427	1079.000000
1878.621391	1131.000000
1880.390479	1218.000000
1882.155705	1127.000000
1883.920563	942.000000
1885.686797	1201.000000
1887.449173	1025.000000
1889.211182	1134.000000
1890.972824	973.000000
1892.734098	1091.000000
1894.495006	1110.000000
1896.255546	1176.000000
1898.013977	1207.000000
1899.772043	990.000000
1901.528001	966.000000
1903.285335	1023.000000
1905.042303	1108.000000
1906.797166	889.000000
1908.549923	1017.000000
1910.302317	945.000000
1912.056087	1031.000000
1913.807753	1074.000000
1915.557316	1032.000000
1917.308256	1016.000000
1919.058832	1054.000000
1920.805570	1005.000000
1922.553683	991.000000
1924.299697	1016.000000
1926.047087	1008.000000
1927.792378	991.000000
1929.535572	1096.000000
1931.280142	1077.000000
1933.022615	1050.000000
1934.764728	872.000000
1936.506482	1034.000000
1938.247875	1083.000000
1939.987175	1070.000000
1941.726116	1083.000000
1943.464698	1144.000000
1945.201188	1154.000000
1946.937321	1211.000000
1948.674828	1268.000000
1950.408514	1022.000000
1952.143574	1074.000000
1953.876545	1299.000000
1955.609160	1062.000000
1957.341418	1036.000000
1959.073320	1004.000000
1960.803136	1093.000000
1962.530868	1153.000000
1964.259973	1171.000000
1965.988724	1171.000000
1967.715391	1026.000000
1969.441704	1020.000000
1971.169390	897.000000
1972.891540	1069.000000
1974.616792	1163.000000
1976.338236	930.000000
1978.062780	1034.000000
1979.785245	1136.000000
1981.503906	1023.000000
1983.225666	941.000000
1984.943624	1103.000000
1986.662956	917.000000
1988.378487	1088.000000
1990.098840	1153.000000
1991.815393	1157.000000
1993.528151	1145.000000
1995.244004	1148.000000
1996.957785	1098.000000
1998.671215	1053.000000
2000.382575	1052.000000
2002.095308	1069.000000
2003.804249	1131.000000
2005.516284	1141.000000
2007.222809	1054.000000
2008.932427	1050.000000
2010.639977	1074.000000
2012.347180	1061.000000
2014.052317	1110.000000
2015.757107	1179.000000
2017.463269	906.000000
2019.165649	1127.000000
2020.869401	1164.000000
2022.571090	1097.000000
2024.272433	1039.000000
2025.973431	1081.000000
2027.672369	1179.000000
2029.372678	988.000000
2031.069211	866.000000
2032.767116	1103.000000
2034.462963	938.000000
2036.161895	1074.000000
2037.855341	1041.000000
2039.550158	965.000000
2041.244632	1017.000000
2042.935338	919.000000
2044.629128	1010.000000
2046.319151	1085.000000
2048.010545	858.000000
2049.699886	1021.000000
2051.390597	1011.000000
2053.077546	1095.000000
2054.764154	1042.000000
2056.452133	1099.000000
2058.136352	922.000000
2059.821941	1153.000000
2061.507191	1069.000000
2063.190393	935.000000
2064.874965	985.000000
2066.554073	1111.000000
2068.237967	998.000000
2069.916401	1046.000000
2071.597912	1053.000000
2073.275671	1094.000000
2074.953094	1073.000000
2076.631886	1053.000000
2078.308635	1038.000000
2079.983343	1030.000000
2081.659420	1070.000000
2083.333457	960.000000
2085.007158	1064.000000
2086.680524	1005.000000
2088.351852	975.000000
2090.022845	1155.000000
2091.693504	954.000000
2093.363829	912.000000
2095.033819	1236.000000
2096.701774	965.000000
2098.369396	1075.000000
2100.034984	1091.000000
2101.701940	1049.000000
2103.366863	1030.000000
2105.031453	908.000000
2106.694012	1015.000000
2108.357940	1087.000000
2110.019836	1066.000000
2111.681401	1112.000000
2113.342636	1092.000000
2115.001841	897.000000
2116.660717	1065.000000
2118.319262	946.000000
2119.977478	1154.000000
2121.631971	993.000000
2123.289528	1077.000000
2124.946755	1026.000000
2126.600262	1029.000000
2128.255136	918.000000
2129.906291	1059.000000
2131.560509	1046.000000
2133.211009	1061.000000
2134.862877	828.000000
2136.509336	929.000000
2138.160549	865.000000
2139.808049	1037.000000
2141.456917	1002.000000
2143.103765	870.000000
2144.750287	1078.000000
2146.396485	1056.000000
2148.038973	1010.000000
2149.684520	943.000000
2151.326360	982.000000
2152.971257	911.000000
2154.612449	997.000000
2156.253317	1017.000000
2157.893862	1071.000000
2159.532394	1033.000000
2161.172292	965.000000
2162.808490	1066.000000
2164.446054	1022.000000
2166.083296	1259.000000
2167.718528	1034.000000
2169.353438	1045.000000
2170.988027	1162.000000
2172.622295	1037.000000
2174.252869	1047.000000
2175.886494	1143.000000
2177.516428	1098.000000
2179.147727	1051.000000
2180.777022	1058.000000
2182.405996	1108.000000
2184.034652	1047.000000
2185.662988	855.000000
2187.289321	991.000000
2188.915336	999.000000
2190.539350	979.000000
2192.164729	1085.000000
2193.788107	1155.000000
2195.412850	1086.000000
2197.033911	1039.000000
2198.654657	973.000000
2200.276766	982.000000
2201.896878	948.000000
2203.514994	969.000000
2205.132794	977.000000
2206.750278	1072.000000
2208.367447	1089.000000
2209.984301	953.000000
2211.600840	1007.000000
2213.215385	882.000000
2214.827938	1072.000000
2216.441856	948.000000
2218.053781	1158.000000
2219.667071	1181.000000
2221.278369	999.000000
2222.887679	1022.000000
2224.498351	1046.000000
2226.107035	1073.000000
2227.715407	1006.000000
2229.321791	975.000000
2230.929539	1095.000000
2232.535300	1059.000000
2234.140750	1050.000000
2235.744216	1067.000000
2237.349044	1087.000000
2238.951888	1077.000000
2240.552749	1125.000000
2242.154973	1013.000000
2243.755214	1092.000000
2245.356819	965.000000
2246.954770	1057.000000
2248.554084	1194.000000
2250.151418	923.000000
2251.748444	978.000000
2253.346831	1146.000000
2254.941570	900.000000
2256.534333	961.000000
2258.128457	837.000000
2259.723943	1037.000000
2261.315785	987.000000
2262.907320	908.000000
2264.500216	1024.000000
2266.087803	1152.000000
2267.680087	1060.000000
2269.267063	1083.000000
2270.857068	1091.000000
2272.441768	988.000000
2274.031162	1048.000000
2275.615253	922.000000
2277.200706	1071.000000
2278.784190	1021.000000
2280.370699	1033.000000
2281.953575	874.000000
2283.536147	989.000000
2285.118417	1024.000000
2286.697056	902.000000
2288.278719	1090.000000
2289.856755	1006.000000
2291.437813	993.000000
2293.015244	1028.000000
2294.590712	1063.000000
2296.169202	931.000000
2297.744067	1049.000000
2299.318632	1132.000000
2300.892897	997.000000
2302.466861	1013.000000
2304.040525	997.000000
2305.613888	822.000000
2307.183633	968.000000
2308.753079	894.000000
2310.325544	1055.000000
2311.892734	962.000000
2313.462941	947.000000
2315.029534	814.000000
2316.597487	951.000000
2318.163485	1017.000000
2319.729185	1055.000000
2321.294587	1045.000000
2322.858036	959.000000
2324.422844	1097.000000
2325.984043	1109.000000
2327.548257	1325.000000
2329.107210	1495.000000
2330.669176	1075.000000
2332.229192	1229.000000
2333.788912	1102.000000
2335.346683	1104.000000
2336.904160	1137.000000
2338.461341	1211.000000
2340.016576	990.000000
2341.571516	1201.000000
2343.126163	1050.000000
2344.680516	1111.000000
2346.234575	1003.000000
2347.788341	947.000000
2349.340162	1148.000000
2350.890040	1063.000000
2352.442926	1147.000000
2353.990570	1187.000000
2355.541221	1065.000000
2357.088282	1174.000000
2358.636700	1153.000000
2360.184826	962.000000
2361.729365	1151.000000
2363.275261	1150.000000
2364.819218	1089.000000
2366.364533	1154.000000
2367.906263	1064.000000
2369.449351	1085.000000
2370.990502	1119.000000
2372.531364	1219.000000
2374.071937	997.000000
2375.612221	1156.000000
2377.152216	1168.000000
2378.688632	1079.000000
2380.228050	1167.000000
2381.763891	1219.000000
2383.301088	1154.000000
2384.834711	1192.000000
2386.371333	1143.000000
2387.906024	1157.000000
2389.438786	1083.000000
2390.971262	1149.000000
2392.501809	1195.000000
2394.035354	1111.000000
2395.563688	1144.000000
2397.093378	1305.000000
2398.622783	1310.000000
2400.151903	1403.000000
2401.680737	1337.000000
2403.204367	1290.000000
2404.732632	1436.000000
2406.255694	1405.000000
2407.783391	1251.000000
2409.304247	1557.000000
2410.829737	1502.000000
2412.351667	1390.000000
2413.874951	1514.000000
2415.396315	1429.000000
2416.915759	1296.000000
2418.436558	1455.000000
2419.955438	1393.000000
2421.474036	1389.000000
2422.990717	1416.000000
2424.508753	1470.000000
2426.026507	1571.000000
2427.540709	1540.000000
2429.054631	1172.000000
2430.568274	1548.000000
2432.083270	1400.000000
2433.594718	1577.000000
2435.107521	1479.000000
2436.618411	1512.000000
2438.129021	1490.000000
2439.637720	1500.000000
2441.149406	1426.000000
2442.657548	1595.000000
2444.165411	1302.000000
2445.672997	1691.000000
2447.177043	1342.000000
2448.684073	1505.000000
2450.189195	1513.000000
2451.694040	1335.000000
2453.196978	1395.000000
2454.699639	1531.000000
2456.202024	1382.000000
2457.702504	1431.000000
2459.204337	1415.000000
2460.704266	1470.000000
2462.203919	1303.000000
2463.703297	1389.000000
2465.200772	1293.000000
2466.696345	1203.000000
2468.194898	1274.000000
2469.689923	1380.000000
2471.186300	1362.000000
2472.679151	1345.000000
2474.173354	1165.000000
2475.667284	1351.000000
2477.157691	1379.000000
2478.651075	1343.000000
2480.142560	1156.000000
2481.632149	1237.000000
2483.121467	1241.000000
2484.608888	1155.000000
2486.099285	1383.000000
2487.586163	1398.000000
2489.074393	1204.000000
2490.559107	1156.000000
2492.043550	1145.000000
2493.529345	1222.000000
2495.013247	1361.000000
2496.498501	1188.000000
2497.978621	1254.000000
2499.461713	1178.000000
2500.942915	1282.000000
2502.423848	1203.000000
2503.902892	1212.000000
2505.381668	1265.000000
2506.860175	1276.000000
2508.338413	1319.000000
2509.816383	1141.000000
2511.290849	1412.000000
2512.768283	1242.000000
2514.242214	1296.000000
2515.717496	1213.000000
2517.192510	1361.000000
2518.664023	1317.000000
2520.136887	1373.000000
2521.607868	1182.000000
2523.080198	1291.000000
2524.547416	1310.000000
2526.017600	1166.000000
2527.485902	1258.000000
2528.953940	1443.000000
2530.421713	1485.000000
2531.889221	1309.000000
2533.356464	1401.000000
2534.820216	1299.000000
2536.285317	1415.000000
2537.748541	1425.000000
2539.213114	1230.000000
2540.674198	1397.000000
2542.136633	1269.000000
2543.598804	1336.000000
2545.057488	1316.000000
2546.520745	1293.000000
2547.978905	1316.000000
2549.438414	1565.000000
2550.892830	1328.000000
2552.351816	1246.000000
2553.808929	1314.000000
2555.264172	1474.000000
2556.719154	1390.000000
2558.172266	1514.000000
2559.626727	1484.000000
2561.079319	1495.000000
2562.531651	1468.000000
2563.982115	1521.000000
2565.435535	1357.000000
2566.883873	1454.000000
2568.335167	1353.000000
2569.784594	1512.000000
2571.230550	1484.000000
2572.679460	1736.000000
2574.124899	1629.000000
2575.571687	1612.000000
2577.016611	1620.000000
2578.461278	1736.000000
2579.907292	1701.000000
2581.349839	1535.000000
2582.793734	1508.000000
2584.234164	1854.000000
2585.675942	1586.000000
2587.115860	1686.000000
2588.557125	1883.000000
2589.994928	1756.000000
2591.435681	1785.000000
2592.871371	1663.000000
2594.310011	1821.000000
2595.746794	1867.000000
2597.181720	1955.000000
2598.619595	1840.000000
2600.052412	2079.000000
2601.486576	1983.000000
2602.918885	2069.000000
2604.352541	2065.000000
2605.784344	2002.000000
2607.215894	2046.000000
2608.647190	2145.000000
2610.076635	2113.000000
2611.505827	2264.000000
2612.933168	2253.000000
2614.361856	2325.000000
2615.790291	2557.000000
2617.215280	2560.000000
2618.641614	2394.000000
2620.066100	2536.000000
2621.491932	2740.000000
2622.914320	2774.000000
2624.338054	2932.000000
2625.759942	2856.000000
2627.181579	2968.000000
2628.601371	3073.000000
2630.022509	2853.000000
2631.443397	2979.000000
2632.860847	3222.000000
2634.281236	3254.000000
2635.698188	3338.000000
2637.114892	3384.000000
2638.531347	3363.000000
2639.947554	3637.000000
2641.363512	3749.000000
2642.777630	3499.000000
2644.191501	3724.000000
2645.603532	3797.000000
2647.016908	4023.000000
2648.426854	3956.000000
2649.839736	4183.000000
2651.249189	4196.000000
2652.658396	4376.000000
2654.065767	4317.000000
2655.476072	4596.000000
2656.884541	4457.000000
2658.291175	4674.000000
2659.697564	4566.000000
2661.102119	4887.000000
2662.508018	4782.000000
2663.912084	4889.000000
2665.315906	5094.000000
2666.719483	4939.000000
2668.121228	5211.000000
2669.524317	5207.000000
2670.923989	5180.000000
2672.325004	5335.000000
2673.722602	5197.000000
2675.123131	5293.000000
2676.520245	5125.000000
2677.918702	5348.000000
2679.315331	5545.000000
2680.711719	5354.000000
2682.107864	5086.000000
2683.502183	5320.000000
2684.897845	5219.000000
2686.290097	5202.000000
2687.683693	5386.000000
2689.075464	5109.000000
2690.468577	5233.000000
2691.859867	5144.000000
2693.249334	5049.000000
2694.638562	4841.000000
2696.027549	4796.000000
2697.417879	4911.000000
2698.803224	4861.000000
2700.191494	4883.000000
2701.577943	4606.000000
2702.964153	4750.000000
2704.350124	4523.000000
2705.732697	4423.000000
2707.116611	3977.000000
2708.500288	4065.000000
2709.883727	3905.000000
2711.263770	3991.000000
2712.645155	3725.000000
2714.024724	3597.000000
2715.405635	3588.000000
2716.784731	3390.000000
2718.162012	3225.000000
2719.540635	3088.000000
2720.917445	3084.000000
2722.294019	2908.000000
2723.670357	2639.000000
2725.044883	2790.000000
2726.420750	2517.000000
2727.793230	2710.000000
2729.168627	2443.000000
2730.539062	2501.000000
2731.910839	2404.000000
2733.282382	2111.000000
2734.652116	2269.000000
2736.023190	2227.000000
2737.392457	2120.000000
2738.761490	1910.000000
2740.128716	1799.000000
2741.495710	1934.000000
2742.862471	1881.000000
2744.228999	1836.000000
2745.593723	1702.000000
2746.958214	1753.000000
2748.322473	1673.000000
2749.686501	1740.000000
2751.050296	1629.000000
2752.410718	1477.000000
2753.774051	1532.000000
2755.132441	1624.000000
2756.493741	1540.000000
2757.851670	1507.000000
2759.212509	1510.000000
2760.571547	1474.000000
2761.927217	1459.000000
2763.285796	1508.000000
2764.641007	1491.000000
2765.995989	1481.000000
2767.349174	1386.000000
2768.705266	1399.000000
2770.057994	1171.000000
2771.410493	1424.000000
2772.762764	1256.000000
2774.116374	1459.000000
2775.466622	1381.000000
2776.815077	1346.000000
2778.166436	1338.000000
2779.514436	1454.000000
2780.863775	1355.000000
2782.211321	1424.000000
2783.558640	1263.000000
2784.905733	1287.000000
2786.251035	1288.000000
2787.596111	1261.000000
2788.940961	1221.000000
2790.285585	1286.000000
2791.626856	1211.000000
2792.969466	1364.000000
2794.311851	1108.000000
2795.654010	1242.000000
2796.992820	1261.000000
2798.334530	1160.000000
2799.672891	1131.000000
2801.012590	1180.000000
2802.350503	1190.000000
2803.686632	1292.000000
2805.022538	1348.000000
2806.359780	1188.000000
2807.695239	1160.000000
2809.030475	1107.000000
2810.363929	1200.000000
2811.698719	1184.000000
2813.030168	1116.000000
2814.364513	1178.000000
2815.693960	1197.000000
2817.024744	1284.000000
2818.355306	1265.000000
2819.684089	1118.000000
2821.014209	1133.000000
2822.342549	1225.000000
2823.670669	1107.000000
2824.997012	915.000000
2826.324690	1062.000000
2827.649036	1164.000000
2828.974717	1192.000000
2830.298624	951.000000
2831.622310	1053.000000
2832.947332	1091.000000
2834.269025	1057.000000
2835.590498	996.000000
2836.911753	1107.000000
2838.232789	1065.000000
2839.552053	1077.000000
2840.872652	1058.000000
2842.191479	1018.000000
2843.510088	1070.000000
2844.826927	1064.000000
2846.143548	980.000000
2847.459951	1052.000000
2848.774586	1057.000000
2850.090555	1206.000000
2851.403204	1060.000000
2852.717189	1146.000000
2854.030957	1136.000000
2855.344508	1082.000000
2856.656292	1095.000000
2857.966311	1026.000000
2859.277664	1051.000000
2860.585701	1016.000000
2861.895074	1045.000000
2863.204231	1161.000000
2864.513173	1137.000000
2865.820352	1093.000000
2867.125767	1054.000000
2868.432517	1044.000000
2869.737504	999.000000
2871.042278	1030.000000
2872.345290	1031.000000
2873.651184	987.000000
2874.952223	1070.000000
2876.254595	1041.000000
2877.555208	991.000000
2878.857155	1017.000000
2880.158889	1106.000000
2881.457319	1082.000000
2882.757082	908.000000
2884.055088	973.000000
2885.352882	1103.000000
2886.648919	953.000000
2887.946290	1031.000000
2889.241905	942.000000
2890.537310	977.000000
2891.832503	953.000000
2893.124398	927.000000
2894.419170	1031.000000
2895.710646	1031.000000
2897.003454	1132.000000
2898.296052	924.000000
2899.585355	995.000000
2900.875991	969.000000
2902.164877	1055.000000
2903.455094	930.000000
2904.742020	1067.000000
2906.030278	1008.000000
2907.316787	1042.000000
2908.603087	1101.000000
2909.889179	988.000000
2911.173523	1013.000000
2912.460739	1036.000000
2913.743128	1007.000000
2915.026849	1038.000000
2916.308823	984.000000
2917.590591	1012.000000
2918.870613	842.000000
2920.153505	1001.000000
2921.434652	1087.000000
2922.712517	1121.000000
2923.993251	982.000000
2925.270704	1086.000000
2926.547952	1067.000000
2927.823457	1021.000000
2929.101830	1059.000000
2930.375388	964.000000
2931.651814	999.000000
2932.926499	1053.000000
2934.199444	1069.000000
2935.473719	901.000000
2936.746255	924.000000
2938.018587	869.000000
2939.287646	745.000000
2940.559570	820.000000
2941.829756	989.000000
2943.099738	1066.000000
2944.369517	1098.000000
2945.637559	926.000000
2946.903866	1078.000000
2948.169970	952.000000
2949.437405	989.000000
2950.703104	926.000000
2951.968601	873.000000
2953.233896	984.000000
2954.495927	922.000000
2955.759287	974.000000
2957.022446	959.000000
2958.283872	1070.000000
2959.546628	968.000000
2960.807653	903.000000
2962.066947	1039.000000
2963.326040	925.000000
2964.584933	1013.000000
2965.843626	1047.000000
2967.102119	998.000000
2968.358883	853.000000
2969.615448	812.000000
2970.870284	898.000000
2972.126450	1030.000000
2973.379360	858.000000
2974.633600	1014.000000
2975.887641	947.000000
2977.139956	949.000000
2978.392073	981.000000
2979.642465	951.000000
2980.895712	904.000000
2982.144182	1044.000000
2983.395506	902.000000
2984.643582	1029.000000
2985.891460	975.000000
2987.139141	974.000000
2988.386626	905.000000
2989.632389	747.000000
2990.877955	942.000000
2992.124850	998.000000
2993.368499	771.000000
2994.613477	927.000000
2995.855212	873.000000
2997.099798	1045.000000
2998.342665	833.000000
2999.582290	945.000000
3000.824767	777.000000
3002.064003	796.000000
3003.304567	730.000000
3004.543414	873.000000
3005.782067	938.000000
3007.019004	972.000000
3008.257268	904.000000
3009.493818	995.000000
3010.730174	808.000000
3011.966336	927.000000
3013.200784	874.000000
3014.435039	882.000000
3015.669101	829.000000
3016.901451	970.000000
3018.132089	863.000000
3019.365573	967.000000
3020.597346	895.000000
3021.827407	1023.000000
3023.057277	914.000000
3024.285437	976.000000
3025.514924	923.000000
3026.742701	1022.000000
3027.970287	831.000000
3029.199199	953.000000
3030.423369	834.000000
3031.650382	914.000000
3032.874172	891.000000
3034.099287	876.000000
3035.322696	868.000000
3036.545916	827.000000
3037.767430	923.000000
3038.991785	901.000000
3040.211405	832.000000
3041.432351	876.000000
3042.653107	757.000000
3043.872160	944.000000
3045.092539	894.000000
3046.309701	910.000000
3047.528188	888.000000
3048.744974	920.000000
3049.961571	880.000000
3051.177981	863.000000
3052.391177	721.000000
3053.607211	932.000000
3054.820033	892.000000
3056.035692	966.000000
3057.246628	853.000000
3058.458890	809.000000
3059.670964	807.000000
3060.882852	750.000000
3062.093042	899.000000
3063.303047	904.000000
3064.512865	812.000000
3065.720987	891.000000
3066.928923	898.000000
3068.135165	891.000000
3069.342731	711.000000
3070.548602	710.000000
3071.754288	709.000000
3072.959790	889.000000
3074.163598	721.000000
3075.368730	828.000000
3076.572169	879.000000
3077.773916	825.000000
3078.975480	834.000000
3080.176860	824.000000
3081.378056	790.000000
3082.577562	863.000000
3083.776884	766.000000
3084.977530	931.000000
3086.176487	880.000000
3087.372248	971.000000
3088.570839	939.000000
3089.766236	835.000000
3090.962957	737.000000
3092.156485	820.000000
3093.352841	809.000000
3094.547510	801.000000
3095.738989	893.000000
3096.934799	910.000000
3098.125916	783.000000
3099.318356	884.000000
3100.507607	846.000000
3101.699685	837.000000
3102.890079	881.000000
3104.077286	874.000000
3105.265817	873.000000
3106.455670	929.000000
3107.642338	898.000000
3108.828827	859.000000
3110.015136	985.000000
3111.202768	927.000000
3112.387217	922.000000
3113.569986	819.000000
3114.755579	761.000000
3115.939491	857.000000
3117.121725	887.000000
3118.303781	899.000000
3119.485658	847.000000
3120.667357	860.000000
3121.847379	840.000000
3123.025723	817.000000
3124.206889	767.000000
3125.384879	867.000000
3126.562692	769.000000
3127.740328	742.000000
3128.916289	688.000000
3130.092074	804.000000
3131.269179	853.000000
3132.444611	926.000000
3133.618369	745.000000
3134.790454	798.000000
3135.963860	799.000000
3137.137091	871.000000
3138.308649	888.000000
3139.481529	930.000000
3140.651241	711.000000
3141.822274	885.000000
3142.991636	909.000000
3144.159329	818.000000
3145.329837	757.000000
3146.495686	839.000000
3147.665845	898.000000
3148.831346	948.000000
3149.996674	926.000000
3151.161828	853.000000
3152.326809	859.000000
3153.493109	777.000000
3154.654756	766.000000
3155.817724	877.000000
3156.980518	820.000000
3158.143140	850.000000
3159.304097	718.000000
3160.464881	875.000000
3161.625494	674.000000
3162.784442	912.000000
3163.943218	823.000000
3165.101823	807.000000
3166.260256	799.000000
3167.418517	795.000000
3168.575116	870.000000
3169.730054	841.000000
3170.886311	853.000000
3172.040908	894.000000
3173.195333	825.000000
3174.348099	845.000000
3175.500695	808.000000
3176.653121	801.000000
3177.805376	740.000000
3178.957462	837.000000
3180.106401	778.000000
3181.258147	890.000000
3182.408236	704.000000
3183.556667	790.000000
3184.704930	922.000000
3185.853024	953.000000
3187.000948	823.000000
3188.147218	992.000000
3189.293319	1013.000000
3190.437766	971.000000
3191.582044	920.000000
3192.726155	1042.000000
3193.871584	1044.000000
3195.013874	898.000000
3196.155996	957.000000
3197.297952	952.000000
3198.439740	1089.000000
3199.581361	988.000000
3200.719846	803.000000
3201.859650	990.000000
3203.000770	984.000000
3204.138756	1019.000000
3205.275093	1014.000000
3206.411264	1116.000000
3207.548753	1028.000000
3208.684593	1110.000000
3209.821749	999.000000
3210.954294	907.000000
3212.091119	1010.000000
3213.223333	1016.000000
3214.356865	905.000000
3215.490231	878.000000
3216.620470	867.000000
3217.753508	865.000000
3218.883418	762.000000
3220.014646	812.000000
3221.142748	786.000000
3222.273648	1014.000000
3223.402903	912.000000
3224.530514	831.000000
3225.655004	840.000000
3226.783769	933.000000
3227.909412	867.000000
3229.034892	796.000000
3230.158731	785.000000
3231.285365	882.000000
3232.407400	842.000000
3233.530752	912.000000
3234.653942	772.000000
3235.776970	825.000000
3236.898358	799.000000
3238.019585	907.000000
3239.139173	779.000000
3240.258600	734.000000
3241.376390	684.000000
3242.496971	778.000000
3243.614439	677.000000
3244.731746	827.000000
3245.848892	686.000000
3246.964403	804.000000
3248.081229	747.000000
3249.194944	819.000000
3250.311450	965.000000
3251.426320	727.000000
3252.538082	835.000000
3253.649685	802.000000
3254.762603	727.000000
3255.875361	781.000000
3256.985013	699.000000
3258.095980	791.000000
3259.206788	765.000000
3260.315964	893.000000
3261.423509	710.000000
3262.532369	773.000000
3263.641070	677.000000
3264.746669	755.000000
3265.853583	606.000000
3266.958867	543.000000
3268.065465	738.000000
3269.168963	725.000000
3270.273775	691.000000
3271.378430	747.000000
3272.479987	677.000000
3273.581387	603.000000
3274.684101	724.000000
3275.786658	818.000000
3276.886120	721.000000
3277.988364	667.000000
3279.087514	643.000000
3280.185038	738.000000
3281.282407	672.000000
3282.382559	818.000000
3283.479617	689.000000
3284.576521	622.000000
3285.673269	756.000000
3286.765458	828.000000
3287.861897	789.000000
3288.956713	659.000000
3290.051374	718.000000
3291.144414	788.000000
3292.237300	708.000000
3293.328565	769.000000
3294.421143	807.000000
3295.512101	827.000000
3296.601439	621.000000
3297.690624	752.000000
3298.781121	646.000000
3299.868534	705.000000
3300.955795	703.000000
3302.044368	657.000000
3303.132788	600.000000
3304.216661	711.000000
3305.304776	730.000000
3306.389810	785.000000
3307.473228	654.000000
3308.557958	718.000000
3309.641072	749.000000
3310.725498	821.000000
3311.806846	762.000000
3312.889506	605.000000
3313.970552	589.000000
3315.051447	719.000000
3316.130729	726.000000
3317.209860	673.000000
3318.290303	788.000000
3319.367671	761.000000
3320.446351	753.000000
3321.523419	817.000000
3322.600337	720.000000
3323.675645	722.000000
3324.750803	758.000000
3325.827272	729.000000
3326.900670	728.000000
3327.973920	716.000000
3329.048481	674.000000
3330.121432	823.000000
3331.192776	760.000000
3332.265430	744.000000
3333.335017	729.000000
3334.405915	701.000000
3335.475206	565.000000
3336.545808	676.000000
3337.614803	749.000000
3338.682192	695.000000
3339.747976	594.000000
3340.817986	668.000000
3341.884933	718.000000
3342.948818	553.000000
3344.015471	649.000000
3345.080520	783.000000
3346.143965	496.000000
3347.207263	777.000000
3348.270416	762.000000
3349.333422	695.000000
3350.396281	737.000000
3351.457539	794.000000
3352.515740	710.000000
3353.578162	749.000000
3354.637527	601.000000
3355.696748	756.000000
3356.757277	649.000000
3357.813297	591.000000
3358.872082	598.000000
3359.926359	797.000000
3360.983400	683.000000
3362.038842	858.000000
3363.095593	645.000000
3364.150747	741.000000
3365.204303	756.000000
3366.256262	769.000000
3367.310983	710.000000
3368.362656	703.000000
3369.414184	632.000000
3370.467022	646.000000
3371.516812	704.000000
3372.567911	709.000000
3373.615963	683.000000
3374.666776	870.000000
3375.714543	792.000000
3376.762168	778.000000
3377.809651	736.000000
3378.855540	550.000000
3379.902739	671.000000
3380.946894	834.000000
3381.993808	721.000000
3383.039130	776.000000
3384.081412	669.000000
3385.123552	778.000000
3386.167001	673.000000
3387.210308	798.000000
3388.252025	631.000000
3389.293601	628.000000
3390.335037	678.000000
3391.374884	793.000000
3392.413142	624.000000
3393.452708	866.000000
3394.492134	766.000000
3395.529972	687.000000
3396.566223	708.000000
3397.602334	698.000000
3398.639753	676.000000
3399.674139	721.000000
3400.709833	677.000000
3401.745387	676.000000
3402.777909	810.000000
3403.813185	704.000000
3404.845430	678.000000
3405.877537	765.000000
3406.908060	662.000000
3407.939891	663.000000
3408.971583	716.000000
3410.000247	607.000000
3411.028774	724.000000
3412.058607	741.000000
3413.088303	611.000000
3414.114972	640.000000
3415.142949	667.000000
3416.167901	710.000000
3417.195603	698.000000
3418.220282	773.000000
3419.246267	639.000000
3420.270673	724.000000
3421.294941	710.000000
3422.317631	715.000000
3423.340186	730.000000
3424.364045	660.000000
3425.384885	634.000000
3426.405590	693.000000
3427.427600	687.000000
3428.446592	517.000000
3429.465449	699.000000
3430.485612	687.000000
3431.502757	640.000000
