-118.702670	4.026374
-116.033069	3.389011
-113.366404	2.700500
-110.700491	1.976224
-108.037511	1.231568
-105.373100	0.481918
-102.711620	-0.257343
-100.048711	-5.339860
-97.390908	-1.612587
-94.731676	-1.454545
-92.073192	-2.910490
-89.417633	-2.234965
-86.760644	-0.661538
-84.108754	-5.423776
-81.455434	-7.420979
-78.805033	-5.882517
-76.153204	-1.339860
-73.506465	1.043357
-70.858296	8.345455
-68.210870	10.379021
-65.566359	13.448951
-62.920418	12.320280
-60.279559	10.362238
-57.637271	6.692308
-54.997892	7.262937
-52.357084	2.025175
-49.717015	2.015385
-47.082020	1.497902
-44.445595	3.541259
-41.812073	8.590210
-39.177123	15.325874
-36.547239	14.770629
-33.913761	15.939860
-31.285346	10.811189
-28.657665	9.593007
-26.028555	2.643357
-23.404503	-23.076923
-20.776860	-131.675524
-18.154272	-308.959441
-15.532414	-413.397203
-12.911287	242.253147
-10.290891	1472.917483
-7.673382	2551.569231
-5.054445	3309.721678
-2.438394	3744.648951
0.176930	3849.689510
2.791525	3643.446154
5.403239	3112.995804
8.016381	2283.924476
10.624489	1208.186014
13.236178	130.783217
15.842837	-556.883916
18.450925	-412.393007
21.058287	-57.412587
23.660625	12.331469
26.266542	9.089510
28.867436	2.903497
31.469758	-2.383217
34.067062	-0.794406
36.667943	-4.167832
39.263808	-3.502098
41.861101	-7.373427
44.457675	-3.282517
47.049240	0.370629
49.642234	6.099301
52.232366	8.616783
54.823925	3.272727
57.412626	3.114685
60.002753	4.152448
62.587881	3.579021
65.174437	5.558042
67.760278	2.710490
70.343266	4.134266
72.927681	1.920280
75.504967	3.339860
78.085818	5.548252
80.663822	9.755245
83.241114	14.158042
85.819834	9.393007
88.393571	11.927273
90.968735	15.923077
93.541056	15.058741
96.112670	15.440559
98.681443	12.586014
101.251643	15.632168
103.819004	10.576224
106.387792	7.285315
108.953743	6.367832
111.516859	10.709091
114.083531	12.116084
116.640981	17.703497
119.204117	24.151049
121.762294	37.682517
124.324025	53.306294
126.880799	76.029371
129.438999	118.783217
131.992247	181.379021
134.544797	261.714685
137.100897	354.330070
139.652049	455.429371
142.202504	560.583217
144.752261	652.036364
147.299199	730.668531
149.845442	786.441958
152.393110	826.109091
154.940082	844.317483
157.482118	842.788811
160.023462	841.047552
162.564112	838.562238
165.106187	833.973427
167.645452	830.630769
170.181907	826.493706
172.717672	823.391608
175.254862	816.509091
177.791361	811.658741
180.325054	805.981818
182.855943	798.907692
185.386144	790.772028
187.917771	779.370629
190.446596	778.808392
192.972622	782.151049
195.497962	782.443357
198.024727	786.236364
200.548696	782.521678
203.071979	782.648951
205.594578	783.130070
208.114384	783.166434
210.633507	782.523077
213.151947	785.751049
215.671812	791.443357
218.184674	807.400000
220.701068	829.202797
223.216781	851.700699
225.727603	864.900699
228.239850	879.186014
230.749314	883.300699
233.258100	889.055944
235.766208	891.165035
238.275740	886.767832
240.780391	881.271329
243.284366	877.609790
245.789765	875.823776
248.290289	877.398601
250.794336	874.123077
253.291413	875.349650
255.792012	875.591608
258.289840	876.675524
260.786995	871.023776
263.283478	872.222378
265.775097	875.439161
268.270236	873.896503
270.762608	874.144056
273.254310	880.079720
275.743249	887.987413
278.233611	892.391608
280.721212	901.110490
283.206053	916.517483
285.694409	930.381818
288.175825	940.644755
290.660755	957.619580
293.140839	980.846154
295.624436	1002.765035
298.103191	1014.920280
300.583368	1019.048951
303.060794	1017.386014
305.537556	1006.187413
308.013654	994.278322
310.487004	989.215385
312.959693	979.657343
315.431720	968.472727
317.903085	956.737063
320.371707	948.639161
322.839669	942.349650
325.309054	933.752448
327.773616	923.798601
330.241682	904.855944
332.704927	889.405594
335.167516	868.511888
337.629448	860.225175
340.090723	849.544056
342.549263	839.956643
345.009226	830.963636
347.466457	815.829371
349.923033	803.537063
352.378955	794.181818
354.832147	786.509091
357.286762	779.230769
359.736575	768.205594
362.189884	756.020979
364.638394	744.158042
367.086254	736.303497
369.535536	720.542657
371.980023	712.973427
374.425933	702.384615
376.871194	696.374825
379.313736	693.075524
381.755630	688.037762
384.196876	678.152448
386.635408	672.372028
389.075360	665.469930
391.512599	660.088112
393.947127	660.620979
396.385141	659.839161
398.818380	653.425175
401.253039	655.683916
403.682926	650.756643
406.116298	653.475524
408.544900	656.255944
410.972860	655.254545
413.402241	646.839161
415.826858	643.699301
418.252895	640.055944
420.678293	640.039161
423.103050	636.349650
425.523048	634.102098
427.944468	626.166434
430.363192	622.620979
432.783335	608.679720
435.200784	603.370629
437.619654	594.559441
440.035829	581.481119
442.447258	562.834965
444.862163	552.559441
447.274378	540.423776
449.685960	527.451748
452.096907	512.023776
454.505167	504.162238
456.912796	494.015385
459.319792	487.250350
461.726157	478.869930
464.129839	476.875524
466.532891	477.046154
468.935313	482.086713
471.337105	482.542657
473.736219	492.027972
476.136753	496.156643
478.536658	503.262937
480.931841	513.619580
483.330489	532.931469
485.724418	545.286713
488.117721	563.841958
490.510399	584.211189
492.902451	607.825175
495.295921	648.640559
497.684679	720.400000
500.070771	860.236364
502.458283	1167.925874
504.845172	1733.583217
507.229396	2554.588811
509.615040	3526.766434
511.998022	4492.303497
514.378342	5319.260140
516.760083	5890.082517
519.139164	6135.903497
521.519663	6034.335664
523.897506	5605.542657
526.272692	4923.250350
528.647261	4114.118881
531.023249	3365.450350
533.396584	2784.703497
535.771336	2377.177622
538.141402	2104.665734
540.510854	1906.826573
542.881723	1760.542657
545.247911	1634.404196
547.615518	1527.208392
549.980479	1444.362238
552.344828	1363.120280
554.708563	1296.331469
557.073716	1241.562238
559.434197	1204.193007
561.796095	1153.823776
564.155354	1110.893706
566.511974	1079.735664
568.872040	1047.878322
571.225414	1018.460140
573.582233	992.054545
575.936417	962.986014
578.289992	945.369231
580.642960	918.500699
582.993295	899.418182
585.345048	883.795804
587.690124	869.030769
590.040663	844.965035
592.384530	826.629371
594.733858	806.823776
597.078537	794.549650
599.420592	784.990210
601.764064	780.426573
604.104913	786.602797
606.445159	811.386014
608.782785	835.774825
611.123846	864.205594
613.460270	882.397203
615.798110	892.145455
618.133333	888.293706
620.465939	878.437762
622.799963	854.356643
625.131372	831.283916
627.462183	800.980420
629.792396	780.251748
632.122012	764.483916
634.447004	755.758042
636.777438	742.137063
639.103251	736.051748
641.426456	726.297902
643.751078	723.085315
646.073094	725.089510
648.394516	724.583217
650.713335	720.851748
653.033571	722.344056
655.353212	719.103497
657.670254	721.095105
659.986703	714.211189
662.300554	710.254545
664.615821	702.044755
666.928491	698.876923
669.242576	690.086713
671.552061	688.398601
673.862962	682.769231
676.171270	674.335664
678.478989	661.114685
680.788124	648.781818
683.092666	630.723077
685.396622	621.370629
687.699991	608.804196
690.004776	606.029371
692.304973	596.337063
694.606586	589.885315
696.907613	583.106294
699.204059	583.423776
701.501920	579.384615
703.799197	584.678322
706.095891	579.928671
708.388009	581.700699
710.683538	577.202797
712.974493	577.721678
715.266863	571.625175
717.556657	576.137063
719.845872	573.142657
722.134507	573.117483
724.420569	574.489510
726.708045	576.159441
728.992951	576.323077
731.277279	579.419580
733.559038	573.700699
735.842211	568.647552
738.124807	559.313287
740.402847	552.928671
742.682301	542.593007
744.961180	537.358042
747.239484	528.367832
749.513237	528.862937
751.788405	530.706294
754.062999	532.330070
756.335034	529.739860
758.608482	528.559441
760.879372	522.539860
763.147706	522.344056
765.417453	526.244755
767.684645	529.390210
769.951268	527.137063
772.217320	522.558042
774.480821	523.055944
776.745734	529.643357
779.010079	531.861538
781.269893	534.479720
783.531121	531.464336
785.791781	532.095105
788.049895	528.882517
790.305464	535.896503
792.564423	541.739860
794.816884	546.816783
797.074712	543.132867
799.328021	538.963636
801.578790	538.376224
803.830971	530.868531
806.080613	522.886713
808.331667	519.548252
810.578210	507.939860
812.826166	499.429371
815.071586	495.241958
817.318419	498.360839
819.564689	495.118881
821.806456	499.135664
824.051605	494.593007
826.290283	494.948252
828.532342	496.893706
830.769903	497.264336
833.008876	497.083916
835.245322	498.194406
837.483179	497.120280
839.718511	503.000000
841.951320	506.457343
844.185539	511.704895
846.417237	508.630769
848.648380	512.672727
850.878968	503.938462
853.109002	501.324476
855.338481	501.001399
857.563480	496.956643
859.791852	489.626573
862.015746	487.493706
864.241051	482.363636
866.461880	480.644755
868.686081	475.165035
870.905809	479.753846
873.126947	477.419580
875.347535	480.718881
877.565614	478.629371
879.785102	483.297902
882.000124	486.025175
884.214598	483.882517
886.428525	481.588811
888.641904	477.034965
890.854737	470.488112
893.067022	469.216783
895.276806	469.802797
897.486044	477.991608
899.694737	478.620979
901.900930	486.405594
904.108533	490.671329
906.313639	498.413986
908.518201	500.155245
910.720268	503.689510
912.923744	505.855944
915.124726	509.851748
917.325166	517.132867
919.527015	525.633566
921.722473	545.800000
923.921289	580.331469
926.115668	621.366434
928.313404	676.658741
930.506704	737.735664
932.701413	805.924476
934.893635	861.973427
937.085320	920.587413
939.276467	965.269930
941.465131	999.141259
943.653259	1011.893706
945.838905	1017.872727
948.027905	1015.794406
950.212480	1011.053147
952.396521	1006.983217
954.583913	1009.974825
956.763000	1014.755245
958.945438	1023.404196
961.127342	1028.665734
963.306771	1034.591608
965.483728	1048.379021
967.662093	1062.583217
969.841865	1066.886713
972.015288	1077.662937
974.192057	1072.923077
976.364419	1066.948252
978.538189	1045.730070
980.707555	1018.972028
982.880265	976.317483
985.050510	928.406993
987.220225	872.938462
989.389412	816.009790
991.554202	768.188811
993.722334	722.426573
995.886070	682.760839
998.051214	660.409790
1000.213898	637.033566
1002.376057	620.910490
1004.535759	602.923077
1006.694936	590.051748
1008.855520	573.078322
1011.013649	562.437762
1013.171255	548.240559
1015.328337	535.293706
1017.484895	517.160839
1019.637074	507.829371
1021.790660	498.735664
1023.943724	493.362238
1026.094339	481.895105
1028.246360	479.033566
1030.394009	472.721678
1032.544989	465.250350
1034.691598	457.218182
1036.837688	454.039161
1038.983260	446.843357
1041.130237	443.093706
1043.270925	437.650350
1045.414942	440.763636
1047.556520	437.565035
1049.697580	440.166434
1051.840046	441.183217
1053.976231	447.661538
1056.115743	444.829371
1058.250899	445.953846
1060.389380	445.795804
1062.523508	446.962238
1064.657122	445.384615
1066.792140	445.303497
1068.922810	439.434965
1071.054884	436.262937
1073.184528	430.704895
1075.313661	431.064336
1077.442283	428.806993
1079.570393	425.251748
1081.696077	420.616783
1083.821251	419.876923
1085.947829	422.103497
1088.070069	420.913287
1090.193714	422.653147
1092.313024	425.109091
1094.437563	425.437762
1096.555858	431.265734
1098.675556	437.078322
1100.792837	441.937063
1102.909610	445.676923
1105.025877	443.313287
1107.139729	442.132867
1109.254984	441.766434
1111.365917	436.173427
1113.480162	429.720280
1115.590086	423.181818
1117.701413	417.815385
1119.812237	412.152448
1121.918744	412.784615
1124.028560	409.160839
1126.134062	407.265734
1128.240968	405.047552
1130.341658	402.647552
1132.447560	399.700699
1134.549153	397.325874
1136.652148	394.965035
1138.754644	393.469930
1140.850932	391.681119
1142.952427	390.044755
1145.049620	387.198601
1147.146314	390.012587
1149.242511	389.212587
1151.338209	391.801399
1153.433410	394.149650
1155.526214	400.209790
1157.620420	395.144056
1159.708435	396.099301
1161.801648	395.959441
1163.888674	391.233566
1165.978998	388.206993
1168.065034	386.685315
1170.154368	382.731469
1172.237521	384.276923
1174.322077	382.060140
1176.408034	385.316084
1178.489709	388.206993
1180.572785	390.046154
1182.653476	385.272727
1184.733676	386.082517
1186.813384	384.314685
1188.892601	385.135664
1190.969435	384.367832
1193.043889	387.240559
1195.121635	385.297902
1197.195110	389.537063
1199.269987	386.023776
1201.340596	388.541259
1203.412606	382.546853
1205.482240	379.739860
1207.553275	377.692308
1209.623822	374.545455
1211.690109	374.559441
1213.757796	375.131469
1215.823110	372.243357
1217.889825	376.981818
1219.952284	377.594406
1222.018029	383.323077
1224.079519	385.525874
1226.142410	388.455944
1228.202932	385.935664
1230.262972	390.451748
1232.322528	390.941259
1234.379720	387.009790
1236.436429	386.152448
1238.490776	383.600000
1240.548403	379.257343
1242.603668	382.517483
1244.654693	381.388811
1246.707117	383.976224
1248.759061	382.765035
1250.808647	380.457343
1252.857754	383.197203
1254.906382	387.604196
1256.954532	388.725874
1259.002204	388.328671
1261.045645	389.360839
1263.092362	390.125874
1265.136725	387.846154
1267.180611	392.058741
1269.222147	393.958042
1271.261333	395.116084
1273.303792	390.600000
1275.342028	395.311888
1277.381663	400.562238
1279.420822	400.581818
1281.455764	398.404196
1283.492104	395.511888
1285.526100	388.878322
1287.561493	388.233566
1289.592673	383.997203
1291.625252	381.918881
1293.657359	383.244755
1295.687125	382.685315
1297.718288	380.668531
1299.745244	385.658741
1301.773599	384.208392
1303.797748	377.313287
1305.825163	375.349650
1307.848375	371.386014
1309.872985	367.023776
1311.895260	367.979021
1313.918933	366.082517
1315.940273	369.297902
1317.961146	371.516084
1319.981551	371.703497
1321.997763	377.450350
1324.015372	383.302098
1326.030653	386.861538
1328.049193	387.439161
1330.063543	392.462937
1332.075568	397.006993
1334.090851	398.654545
1336.101948	402.847552
1338.114441	402.674126
1340.122752	408.517483
1342.134319	404.664336
1344.139847	404.159441
1346.148630	403.102098
1348.153235	399.576224
1350.161094	393.211189
1352.168491	389.269930
1354.169857	383.317483
1356.172619	381.879720
1358.174922	379.489510
1360.176765	382.366434
1362.178148	376.864336
1364.177217	378.348252
1366.175828	367.678322
1368.173981	359.724476
1370.171676	354.158042
1372.165208	350.593007
1374.160135	345.458741
1376.154606	344.696503
1378.148620	336.895105
1380.140327	338.146853
1382.131578	341.276923
1384.120524	344.632168
1386.110865	340.511888
1388.100752	341.409790
1390.088334	338.717483
1392.075463	340.352448
1394.060290	347.081119
1396.046512	347.264336
1398.030433	346.260140
1400.013902	347.955245
1401.996919	346.553846
1403.977638	348.769231
1405.959751	348.711888
1407.939567	346.394406
1409.918933	340.569231
1411.894160	341.917483
1413.872625	344.636364
1415.848797	343.060140
1417.824519	341.872727
1419.799792	337.735664
1421.772775	333.545455
1423.745309	335.026573
1425.717395	334.346853
1427.689034	333.023776
1429.656544	332.606993
1431.629128	334.586014
1433.593906	334.855944
1435.563757	338.570629
1437.529483	340.788811
1439.496603	341.900699
1441.461439	341.830769
1443.422155	348.264336
1445.387939	349.338462
1447.347768	354.346853
1449.308991	354.786014
1451.271605	355.006993
1453.230105	355.974825
1455.188163	361.104895
1457.145779	362.951049
1459.102952	365.386014
1461.057850	365.148252
1463.014141	365.955245
1464.968157	365.088112
1466.921732	371.260140
1468.873035	368.626573
1470.825730	369.142657
1472.776154	363.920280
1474.726139	357.346853
1476.675685	350.848951
1478.622962	351.292308
1480.567971	348.993007
1482.514373	344.664336
1484.460337	337.639161
1486.405864	336.490909
1488.349125	333.618182
1490.291950	334.202797
1492.232512	334.998601
1494.174466	333.959441
1496.114157	332.320280
1498.053413	330.590210
1499.992235	332.496503
1501.928797	335.190210
1503.866750	333.826573
1505.802444	331.801399
1507.737705	331.879720
1509.670709	332.123077
1511.603281	331.041958
1513.535421	334.535664
1515.467129	332.381818
1517.396584	332.233566
1519.327429	332.527273
1521.257842	335.397203
1523.184183	337.110490
1525.111914	337.580420
1527.037396	336.563636
1528.962448	340.854545
1530.887070	341.632168
1532.811264	345.285315
1534.733211	347.804196
1536.656548	353.958042
1538.577638	349.587413
1540.496484	355.834965
1542.416720	358.121678
1544.334712	363.029371
1546.252278	360.767832
1548.167603	369.483916
1550.084317	373.991608
1551.996975	387.281119
1553.912838	393.398601
1555.826462	401.439161
1557.737847	412.813986
1559.650622	425.457343
1561.559347	435.495105
1563.469461	453.468531
1565.379152	472.240559
1567.288420	499.679720
1569.195453	533.956643
1571.100254	587.369231
1573.006444	637.490909
1574.910403	702.184615
1576.813940	776.072727
1578.717057	859.500699
1580.617944	939.861538
1582.520220	1003.001399
1584.420267	1036.704895
1586.321703	1028.857343
1588.219104	986.215385
1590.116088	916.033566
1592.012653	822.563636
1593.910605	723.195804
1595.802723	616.215385
1597.698035	532.440559
1599.592928	469.537063
1601.485601	434.327273
1603.377856	406.862937
1605.267892	400.962238
1607.157512	392.544056
1609.046717	386.766434
1610.935506	381.994406
1612.822079	377.257343
1614.710039	376.579021
1616.593982	378.004196
1618.479312	374.830769
1620.364229	372.661538
1622.246932	363.502098
1624.131022	363.342657
1626.011100	348.660140
1627.892566	346.011189
1629.771820	336.471329
1631.652462	329.633566
1633.527299	322.006993
1635.407117	322.110490
1637.282930	321.355245
1639.158334	322.162238
1641.035123	316.910490
1642.906115	319.969231
1644.780290	319.875524
1646.650465	324.149650
1648.523821	318.626573
1650.394974	317.956643
1652.263925	310.267133
1654.134262	304.970629
1656.000606	300.211189
1657.868335	300.197203
1659.733865	295.230769
1661.600781	292.107692
1663.463707	289.530070
1665.328020	293.367832
1667.190136	292.433566
1669.051847	293.731469
1670.914943	293.432168
1672.775845	295.977622
1674.634554	293.865734
1676.492859	296.366434
1678.352548	297.530070
1680.206471	296.675524
1682.063567	292.930070
1683.920259	293.190210
1685.772976	291.798601
1687.628864	289.969231
1689.480778	286.023776
1691.332291	282.629371
1693.183403	281.243357
1695.034114	281.188811
1696.884425	273.520280
1698.732552	271.278322
1700.582063	268.762238
1702.425824	270.402797
1704.274536	270.897902
1706.117501	273.818182
1707.963632	270.618182
1709.805802	274.111888
1711.651137	270.907692
1713.490730	272.542657
1715.331709	272.865734
1717.174070	271.759441
1719.012474	265.620979
1720.852262	263.134266
1722.689875	262.657343
1724.527093	265.836364
1726.362137	262.041958
1728.198564	263.335664
1730.032818	262.692308
1731.866679	261.916084
1733.700145	260.206993
1735.529665	263.411189
1737.362345	265.381818
1739.191079	268.681119
1741.022972	263.675524
1742.850922	265.755245
1744.678480	260.401399
1746.505647	258.420979
1748.332422	256.577622
1750.158805	260.665734
1751.981252	261.289510
1753.806854	258.707692
1755.628520	258.528671
1757.451569	263.864336
1759.272457	267.930070
1761.092955	268.458741
1762.914835	266.404196
1764.731015	269.563636
1766.550347	264.539860
1768.365752	267.556643
1770.184308	271.081119
1771.998938	274.302098
1773.813181	276.548252
1775.627038	272.495105
1777.440508	271.623776
1779.251824	276.703497
1781.064522	275.216783
1782.876834	272.023776
1784.685227	272.088112
1786.495002	271.777622
1788.300861	271.612587
1790.109867	272.479720
1791.914959	272.993007
1793.721432	271.092308
1795.527520	266.328671
1797.329699	266.188811
1799.135021	265.749650
1800.936435	266.813986
1802.739230	266.216783
1804.538118	267.767832
1806.338387	270.966434
1808.138274	275.174825
1809.936019	274.204196
1811.733384	274.509091
1813.530368	273.015385
1815.326972	272.944056
1817.121437	268.595804
1818.917282	271.853147
1820.707471	267.609790
1822.502557	269.104895
1824.291990	269.939860
1826.084561	277.279720
1827.874996	276.840559
1829.663296	280.553846
1831.454732	278.069930
1833.240523	279.236364
1835.027692	277.380420
1836.812731	282.037762
1838.600902	282.728671
1840.385188	289.464336
1842.167345	288.454545
1843.950881	287.548252
1845.732288	285.219580
1847.515073	288.289510
1849.293979	280.753846
1851.074263	282.018182
1852.852422	275.595804
1854.631958	272.272727
1856.409370	270.216783
1858.184659	273.839161
1859.961325	277.408392
1861.735869	281.871329
1863.511790	280.314685
1865.282092	282.998601
1867.055521	283.311888
1868.826830	287.937063
1870.597768	290.903497
1872.370084	294.879720
1874.136786	292.268531
1875.906613	292.048951
1877.672577	289.566434
1879.441665	284.475524
1881.206891	281.741259
1882.971749	279.048951
1884.737983	275.255944
1886.500359	270.290909
1888.262368	263.013986
1890.024010	264.516084
1891.785284	265.100699
1893.546192	266.193007
1895.306732	262.107692
1897.065164	264.120280
1898.823229	257.951049
1900.579187	255.100699
1902.336521	255.027972
1904.093490	254.317483
1905.848352	249.539860
1907.601109	249.048951
1909.353503	249.654545
1911.107273	255.604196
1912.858939	255.160839
1914.608502	254.960839
1916.359442	252.959441
1918.110018	252.327273
1919.856756	248.314685
1921.604869	249.295105
1923.350883	250.457343
1925.098273	252.776224
1926.843564	252.752448
1928.586758	254.166434
1930.331328	255.826573
1932.073801	257.995804
1933.815914	249.486713
1935.557668	247.542657
1937.299061	249.586014
1939.038361	252.067133
1940.777302	250.981818
1942.515884	253.588811
1944.252375	257.976224
1945.988507	257.906294
1947.726015	258.854545
1949.459700	255.532867
1951.194760	253.584615
1952.927731	250.411189
1954.660346	243.703497
1956.392604	243.742657
1958.124506	241.517483
1959.854323	244.668531
1961.582054	241.949650
1963.311160	243.731469
1965.039910	246.432168
1966.766577	246.606993
1968.492890	250.061538
1970.220577	250.339860
1971.942727	253.019580
1973.667978	258.393007
1975.389422	257.787413
1977.113966	258.169231
1978.836431	252.206993
1980.555092	255.118881
1982.276852	253.258741
1983.994811	247.316084
1985.714142	244.604196
1987.429674	246.418182
1989.150026	246.373427
1990.866580	251.159441
1992.579337	254.451748
1994.295190	254.110490
1996.008971	254.517483
1997.722402	254.044755
1999.433762	250.655944
2001.146494	249.724476
2002.855435	246.570629
2004.567470	240.198601
2006.273995	239.002797
2007.983613	242.232168
2009.691163	241.076923
2011.398366	245.013986
2013.103503	247.102098
2014.808293	249.146853
2016.514456	251.479720
2018.216835	252.142657
2019.920587	253.241958
2021.622276	254.311888
2023.323619	249.844755
2025.024618	247.374825
2026.723555	243.984615
2028.423864	241.394406
2030.120397	238.110490
2031.818302	239.552448
2033.514149	236.942657
2035.213081	234.558042
2036.906527	226.032168
2038.601344	223.145455
2040.295818	219.777622
2041.986525	223.033566
2043.680314	220.040559
2045.370338	224.179021
2047.061731	225.262937
2048.751072	230.204196
2050.441784	231.738462
2052.128732	236.562238
2053.815340	232.970629
2055.503319	234.461538
2057.187538	228.787413
2058.873127	229.794406
2060.558377	227.535664
2062.241579	229.047552
2063.926151	225.481119
2065.605259	230.897902
2067.289154	228.823776
2068.967587	234.130070
2070.649098	232.072727
2072.326857	233.658741
2074.004280	233.504895
2075.683072	236.241958
2077.359821	234.532867
2079.034529	235.552448
2080.710607	234.622378
2082.384643	234.991608
2084.058345	232.544056
2085.731711	236.893706
2087.403038	236.190210
2089.074031	240.239161
2090.744690	234.882517
2092.415015	238.862937
2094.085006	241.474126
2095.752960	246.353846
2097.420582	245.548252
2099.086170	245.770629
2100.753126	246.054545
2102.418049	248.450350
2104.082640	245.120280
2105.745199	248.959441
2107.409126	249.237762
2109.071022	247.002797
2110.732587	244.142657
2112.393822	246.365035
2114.053027	244.033566
2115.711903	243.958042
2117.370448	238.325874
2119.028664	234.730070
2120.683157	230.511888
2122.340714	232.976224
2123.997941	230.405594
2125.651448	230.307692
2127.306322	225.668531
2128.957477	221.618182
2130.611695	217.669930
2132.262195	215.952448
2133.914063	214.742657
2135.560522	217.365035
2137.211735	220.932867
2138.859236	222.216783
2140.508103	226.134266
2142.154951	233.170629
2143.801474	235.806993
2145.447671	236.827972
2147.090159	236.440559
2148.735706	238.959441
2150.377546	235.359441
2152.022443	238.853147
2153.663635	239.209790
2155.304503	240.755245
2156.945048	241.195804
2158.583580	241.903497
2160.223478	241.377622
2161.859676	244.875524
2163.497240	244.965035
2165.134482	242.558042
2166.769714	239.139860
2168.404624	240.655944
2170.039213	233.397203
2171.673481	229.986014
2173.304055	226.797203
2174.937681	231.451748
2176.567614	231.816783
2178.198914	234.450350
2179.828208	230.307692
2181.457183	234.514685
2183.085838	231.850350
2184.714174	233.619580
2186.340507	233.746853
2187.966522	236.373427
2189.590536	233.163636
2191.215915	232.562238
2192.839293	234.313287
2194.464036	240.858741
2196.085098	240.078322
2197.705843	240.200000
2199.327952	237.924476
2200.948064	241.409790
2202.566180	240.321678
2204.183980	239.895105
2205.801464	234.518881
2207.418634	237.372028
2209.035487	235.790210
2210.652026	238.776224
2212.266571	238.372028
2213.879125	239.627972
2215.493042	239.576224
2217.104968	242.309091
2218.718257	241.818182
2220.329555	241.820979
2221.938865	238.945455
2223.549537	238.811189
2225.158221	233.148252
2226.766593	234.250350
2228.372978	232.296503
2229.980725	232.352448
2231.586487	227.008392
2233.191937	224.552448
2234.795402	220.152448
2236.400230	225.739860
2238.003074	223.773427
2239.603935	228.384615
2241.206159	231.423776
2242.806401	236.510490
2244.408005	230.598601
2246.005956	231.208392
2247.605270	229.972028
2249.202604	228.514685
2250.799630	224.121678
2252.398017	225.405594
2253.992757	220.418182
2255.585519	231.413986
2257.179644	234.318881
2258.775130	244.081119
2260.366971	244.162238
2261.958506	249.265734
2263.551402	247.000000
2265.138990	249.497902
2266.731273	248.127273
2268.318249	244.874126
2269.908254	240.671329
2271.492954	238.969231
2273.082348	232.344056
2274.666439	235.868531
2276.251892	232.233566
2277.835376	235.948252
2279.421885	230.170629
2281.004761	231.921678
2282.587334	226.941259
2284.169603	223.446154
2285.748242	217.215385
2287.329906	210.890909
2288.907941	207.397203
2290.488999	205.689510
2292.066430	200.046154
2293.641898	204.099301
2295.220388	204.737063
2296.795254	213.246154
2298.369819	213.581818
2299.944083	216.874126
2301.518047	214.372028
2303.091711	209.569231
2304.665075	206.248951
2306.234820	204.875524
2307.804266	203.258741
2309.376730	201.362238
2310.943920	196.037762
2312.514127	203.872727
2314.080721	201.623776
2315.648673	207.296503
2317.214671	205.166434
2318.780371	209.255944
2320.345773	212.088112
2321.909222	215.369231
2323.474030	220.801399
2325.035229	229.172028
2326.599443	230.190210
2328.158396	228.563636
2329.720362	223.486713
2331.280378	221.704895
2332.840098	216.819580
2334.397870	218.015385
2335.955346	212.826573
2337.512528	214.939860
2339.067762	214.923077
2340.622702	218.412587
2342.177349	220.521678
2343.731702	226.900699
2345.285761	223.888112
2346.839527	221.805594
2348.391348	217.521678
2349.941226	217.983217
2351.494113	216.797203
2353.041756	218.258741
2354.592407	214.860140
2356.139468	212.337063
2357.687886	210.293706
2359.236013	210.230769
2360.780551	208.332867
2362.326447	213.952448
2363.870404	210.453147
2365.415719	206.902098
2366.957449	205.169231
2368.500537	207.062937
2370.041688	203.576224
2371.582550	208.391608
2373.123123	206.095105
2374.663407	207.482517
2376.203402	205.454545
2377.739818	206.111888
2379.279236	203.236364
2380.815077	208.517483
2382.352275	206.082517
2383.885897	205.781818
2385.422519	203.594406
2386.957211	203.576224
2388.489972	202.741259
2390.022448	206.530070
2391.552995	205.837762
2393.086540	207.569231
2394.614874	204.539860
2396.144564	206.486713
2397.673969	201.384615
2399.203089	205.601399
2400.731923	201.716084
2402.255553	201.160839
2403.783818	201.883916
2405.306880	199.988811
2406.834577	200.325874
2408.355434	203.078322
2409.880923	202.846154
2411.402853	209.116084
2412.926137	210.401399
2414.447501	216.215385
2415.966945	215.102098
2417.487744	216.246154
2419.006624	212.667133
2420.525223	215.709091
2422.041903	219.430769
2423.559939	216.577622
2425.077693	216.215385
2426.591895	220.609790
2428.105818	219.980420
2429.619460	222.813986
2431.134456	223.400000
2432.645905	228.541259
2434.158707	227.795804
2435.669597	230.632168
2437.180208	227.425175
2438.688907	230.608392
2440.200592	233.032168
2441.708734	235.932867
2443.216598	239.121678
2444.724183	243.993007
2446.228229	243.422378
2447.735259	243.637762
2449.240381	243.193007
2450.745226	245.128671
2452.248164	242.212587
2453.750825	240.469930
2455.253211	234.355245
2456.753690	238.579021
2458.255524	232.826573
2459.755452	231.486713
2461.255105	230.942657
2462.754483	226.206993
2464.251958	221.211189
2465.747531	216.116084
2467.246084	210.365035
2468.741109	208.605594
2470.237486	206.432168
2471.730337	208.205594
2473.224541	210.275524
2474.718471	218.650350
2476.208877	217.471329
2477.702261	222.770629
2479.193747	224.853147
2480.683336	226.292308
2482.172653	228.320280
2483.660074	234.990210
2485.150471	234.268531
2486.637350	233.058741
2488.125580	228.455944
2489.610293	226.153846
2491.094736	223.434965
2492.580531	223.296503
2494.064434	215.229371
2495.549687	209.296503
2497.029807	201.365035
2498.512899	201.372028
2499.994102	201.588811
2501.475035	207.391608
2502.954078	205.391608
2504.432854	204.951049
2505.911361	201.634965
2507.389599	206.411189
2508.867570	205.454545
2510.342035	206.142657
2511.819470	205.499301
2513.293400	206.678322
2514.768682	204.253147
2516.243696	203.381818
2517.715209	201.890909
2519.188073	206.791608
2520.659054	205.987413
2522.131385	205.029371
2523.598602	198.254545
2525.068786	196.697902
2526.537089	188.500699
2528.005126	184.846154
2529.472899	181.065734
2530.940407	178.956643
2532.407651	174.248951
2533.871402	171.844755
2535.336503	173.654545
2536.799727	177.935664
2538.264300	176.116084
2539.725385	179.145455
2541.187819	176.264336
2542.649990	178.969231
2544.108674	181.441958
2545.571931	183.556643
2547.030091	182.279720
2548.489601	186.822378
2549.944016	190.344056
2551.403002	198.815385
2552.860116	196.573427
2554.315358	195.779021
2555.770340	195.788811
2557.223452	196.850350
2558.677913	190.197203
2560.130505	190.267133
2561.582837	189.524476
2563.033301	190.506294
2564.486722	190.436364
2565.935060	194.141259
2567.386353	196.033566
2568.835780	201.574825
2570.281736	198.521678
2571.730646	200.520280
2573.176085	204.050350
2574.622873	202.674126
2576.067797	200.896503
2577.512464	198.643357
2578.958478	199.812587
2580.401025	204.043357
2581.844920	204.953846
2583.285350	205.243357
2584.727128	204.404196
2586.167046	205.233566
2587.608311	204.932867
2589.046114	204.657343
2590.486867	207.353846
2591.922558	205.420979
2593.361197	202.546853
2594.797980	200.823776
2596.232907	204.565035
2597.670781	205.626573
2599.103598	205.050350
2600.537762	206.567832
2601.970071	205.086713
2603.403728	207.068531
2604.835530	207.260140
2606.267080	208.334266
2607.698376	208.869930
2609.127821	205.720280
2610.557013	205.864336
2611.984354	208.461538
2613.413042	210.496503
2614.841477	213.693706
2616.266466	214.023776
2617.692800	220.534266
2619.117287	225.411189
2620.543118	230.888112
2621.965507	231.120280
2623.389240	237.131469
2624.811128	240.665734
2626.232765	246.935664
2627.652558	254.846154
2629.073696	259.020979
2630.494584	263.696503
2631.912033	271.479720
2633.332422	278.770629
2634.749374	289.802797
2636.166078	300.430769
2637.582533	308.565035
2638.998740	317.226573
2640.414699	332.594406
2641.828817	345.531469
2643.242687	365.146853
2644.654718	382.142657
2646.068094	399.227972
2647.478040	416.397203
2648.890922	439.190210
2650.300375	459.875524
2651.709582	482.302098
2653.116953	505.043357
2654.527258	529.829371
2655.935727	556.956643
2657.342362	589.300699
2658.748750	618.440559
2660.153306	655.837762
2661.559205	688.692308
2662.963270	725.634965
2664.367092	758.478322
2665.770669	792.934266
2667.172415	818.468531
2668.575504	844.211189
2669.975175	862.317483
2671.376190	882.437762
2672.773789	891.177622
2674.174317	897.344056
2675.571431	893.186014
2676.969888	884.586014
2678.366517	862.896503
2679.762905	840.490909
2681.159050	807.611189
2682.553369	777.395804
2683.949031	742.788811
2685.341284	709.394406
2686.734879	667.755245
2688.126650	635.820979
2689.519764	597.569231
2690.911053	568.993007
2692.300521	534.676923
2693.689748	506.674126
2695.078735	475.718881
2696.469065	447.078322
2697.854411	421.942657
2699.242680	403.475524
2700.629129	383.521678
2702.015339	370.455944
2703.401310	350.128671
2704.783883	342.262937
2706.167798	329.885315
2707.551474	326.462937
2708.934913	314.569231
2710.314956	310.406993
2711.696341	302.047552
2713.075910	289.660140
2714.456821	279.191608
2715.835917	269.279720
2717.213199	259.116084
2718.591822	257.088112
2719.968631	248.763636
2721.345205	247.055944
2722.721543	244.339860
2724.096069	242.671329
2725.471936	236.783217
2726.844416	234.639161
2728.219813	229.888112
2729.590249	220.897902
2730.962025	216.609790
2732.333568	215.251748
2733.703302	214.355245
2735.074376	213.524476
2736.443643	211.092308
2737.812676	208.616783
2739.179903	211.840559
2740.546896	212.594406
2741.913657	212.397203
2743.280185	209.549650
2744.644909	207.918881
2746.009400	204.765035
2747.373659	204.044755
2748.737687	202.472727
2750.101482	199.756643
2751.461905	194.040559
2752.825237	189.790210
2754.183627	182.492308
2755.544927	185.683916
2756.902857	187.963636
2758.263695	188.376224
2759.622733	187.781818
2760.978403	193.832168
2762.336982	195.212587
2763.692193	194.675524
2765.047175	197.695105
2766.400360	194.351049
2767.756452	192.650350
2769.109180	190.267133
2770.461679	183.818182
2771.813951	186.176224
2773.167560	188.450350
2774.517808	184.388811
2775.866263	183.095105
2777.217622	181.000000
2778.565622	175.244755
2779.914961	171.264336
2781.262507	174.345455
2782.609827	169.377622
2783.956919	170.802797
2785.302221	171.952448
2786.647297	167.216783
2787.992147	168.545455
2789.336771	168.069930
2790.678043	163.553846
2792.020652	168.400000
2793.363037	166.439161
2794.705196	168.951049
2796.044006	171.394406
2797.385716	178.612587
2798.724077	174.584615
2800.063776	174.141259
2801.401689	172.248951
2802.737818	173.232168
2804.073724	170.770629
2805.410967	171.984615
2806.746425	171.359441
2808.081661	177.216783
2809.415115	175.823776
2810.749905	175.946853
2812.081354	173.398601
2813.415699	174.265734
2814.745146	167.057343
2816.075930	164.658741
2817.406492	160.944056
2818.735275	164.900699
2820.065395	158.951049
2821.393736	168.064336
2822.721855	163.478322
2824.048198	166.093706
2825.375876	167.434965
2826.700222	167.188811
2828.025904	167.495105
2829.349810	165.860140
2830.673496	165.693706
2831.998518	164.048951
2833.320211	158.499301
2834.641685	155.509091
2835.962939	154.475524
2837.283975	160.504895
2838.603239	152.836364
2839.923838	156.137063
2841.242665	155.923077
2842.561274	156.590210
2843.878113	156.241958
2845.194734	154.323077
2846.511138	158.310490
2847.825772	157.393007
2849.141741	155.239161
2850.454391	153.324476
2851.768375	153.429371
2853.082143	152.345455
2854.395694	150.479720
2855.707479	151.027972
2857.017497	150.476923
2858.328850	156.039161
2859.636888	153.233566
2860.946260	159.314685
2862.255417	160.674126
2863.564359	160.875524
2864.871538	161.384615
2866.176953	163.283916
2867.483703	161.742657
2868.788691	165.451748
2870.093464	167.956643
2871.396477	168.573427
2872.702370	167.121678
2874.003409	163.860140
2875.305781	161.243357
2876.606395	157.201399
2877.908341	147.434965
2879.210075	140.739860
2880.508505	137.383217
2881.808268	142.535664
2883.106274	142.588811
2884.404068	144.269930
2885.700105	147.400000
2886.997476	149.302098
2888.293092	149.409790
2889.588496	153.268531
2890.883689	154.862937
2892.175585	151.552448
2893.470356	152.303497
2894.761832	154.892308
2896.054640	155.212587
2897.347238	155.034965
2898.636541	153.594406
2899.927178	152.019580
2901.216063	148.804196
2902.506280	146.941259
2903.793206	144.763636
2905.081464	147.036364
2906.367973	144.088112
2907.654273	145.840559
2908.940365	147.103497
2910.224709	150.166434
2911.511925	146.306294
2912.794314	145.969231
2914.078035	151.472727
2915.360009	157.255944
2916.641777	155.283916
2917.921799	159.216783
2919.204691	158.376224
2920.485838	159.281119
2921.763703	158.695105
2923.044437	155.951049
2924.321890	151.988811
2925.599138	151.469930
2926.874643	146.921678
2928.153016	144.765035
2929.426575	146.984615
2930.703001	151.279720
2931.977685	145.839161
2933.250630	148.159441
2934.524906	145.953846
2935.797441	143.930070
2937.069773	143.623776
2938.338832	138.184615
2939.610756	134.022378
2940.880942	132.927273
2942.150924	129.117483
2943.420703	126.504895
2944.688746	125.797203
2945.955052	129.106294
2947.221156	125.790210
2948.488591	128.240559
2949.754290	129.325874
2951.019788	133.225175
2952.285083	134.180420
2953.547113	137.166434
2954.810473	135.506294
2956.073632	136.804196
2957.335058	136.760839
2958.597815	137.225175
2959.858839	136.958042
2961.118133	134.565035
2962.377226	132.351049
2963.636120	133.111888
2964.894812	133.325874
2966.153305	135.394406
2967.410069	135.847552
2968.666634	141.208392
2969.921470	138.204196
2971.177636	140.779021
2972.430547	138.275524
2973.684786	138.537063
2974.938827	136.777622
2976.191142	131.565035
2977.443259	128.637762
2978.693651	126.274126
2979.946898	121.325874
2981.195368	119.518881
2982.446693	120.825175
2983.694768	122.047552
2984.942646	121.895105
2986.190328	124.166434
2987.437812	125.928671
2988.683575	133.555245
2989.929141	138.780420
2991.176036	139.208392
2992.419686	137.615385
2993.664663	145.362238
2994.906398	142.516084
2996.150984	140.369231
2997.393851	141.239161
2998.633477	140.648951
2999.875953	139.787413
3001.115189	142.002797
3002.355753	142.548252
3003.594600	143.991608
3004.833253	139.265734
3006.070190	135.236364
3007.308455	131.820979
3008.545004	133.510490
3009.781360	131.489510
3011.017522	132.436364
3012.251970	133.465734
3013.486225	136.283916
3014.720287	135.851748
3015.952637	141.948252
3017.183275	142.282517
3018.416759	139.965035
3019.648532	135.269930
3020.878593	132.025175
3022.108463	128.111888
3023.336623	127.061538
3024.566110	125.623776
3025.793887	124.860140
3027.021473	123.730070
3028.250385	125.544056
3029.474555	124.345455
3030.701568	128.114685
3031.925358	128.218182
3033.150473	130.078322
3034.373883	132.840559
3035.597102	133.861538
3036.818616	131.916084
3038.042971	133.404196
3039.262591	128.426573
3040.483537	132.430769
3041.704293	129.433566
3042.923347	129.878322
3044.143725	127.158042
3045.360887	126.695105
3046.579374	124.321678
3047.796160	128.134266
3049.012757	127.099301
3050.229167	125.481119
3051.442363	125.191608
3052.658397	126.779021
3053.871219	124.893706
3055.086878	129.956643
3056.297814	124.793007
3057.510076	125.355245
3058.722150	125.047552
3059.934038	129.749650
3061.144229	127.180420
3062.354233	129.518182
3063.564051	128.977622
3064.772173	132.122378
3065.980110	131.584615
3067.186351	130.459441
3068.393917	130.911888
3069.599788	129.265035
3070.805474	122.426573
3072.010976	122.624476
3073.214784	120.679720
3074.419916	120.548951
3075.623355	114.839161
3076.825102	115.646853
3078.026666	117.895105
3079.228046	115.089510
3080.429242	110.994406
3081.628748	111.758042
3082.828071	109.730070
3084.028717	108.634965
3085.227673	105.083916
3086.423434	106.489510
3087.622025	103.163636
3088.817422	101.779021
3090.014143	102.759441
3091.207671	108.166434
3092.404027	109.288112
3093.598696	114.166434
3094.790175	114.948252
3095.985986	118.787413
3097.177102	119.311888
3098.369542	121.426573
3099.558793	115.276923
3100.750871	119.321678
3101.941265	113.352448
3103.128473	109.802797
3104.317003	113.250350
3105.506856	114.034965
3106.693524	111.313287
3107.880013	116.855944
3109.066323	116.174825
3110.253954	121.640559
3111.438403	122.812587
3112.621173	124.714685
3113.806765	123.276923
3114.990678	127.920280
3116.172911	123.538462
3117.354967	123.537063
3118.536844	123.060140
3119.718543	116.234965
3120.898565	108.604196
3122.076910	108.998601
3123.258075	111.090909
3124.436065	112.690909
3125.613878	109.937063
3126.791514	112.448951
3127.967475	113.194406
3129.143260	117.462937
3130.320365	116.721678
3131.495797	119.689510
3132.669555	117.749650
3133.841640	114.394406
3135.015046	110.960839
3136.188277	112.752448
3137.359836	112.352448
3138.532715	113.362238
3139.702427	110.370629
3140.873460	111.924476
3142.042822	113.465734
3143.210515	116.738462
3144.381023	112.953846
3145.546872	117.118881
3146.717031	113.834965
3147.882532	116.013986
3149.047860	113.774825
3150.213014	115.186014
3151.377995	113.806993
3152.544295	116.944056
3153.705942	113.609790
3154.868910	117.279720
3156.031705	116.394406
3157.194326	115.110490
3158.355283	110.620979
3159.516068	107.437762
3160.676680	101.986014
3161.835628	101.260140
3162.994405	98.770629
3164.153009	104.904895
3165.311442	107.482517
3166.469703	114.601399
3167.626303	117.657343
3168.781241	125.411189
3169.937498	125.853147
3171.092094	126.551049
3172.246520	122.669930
3173.399285	115.373427
3174.551881	107.890909
3175.704307	104.055944
3176.856562	102.848951
3178.008648	108.413986
3179.157587	105.367832
3180.309333	103.993007
3181.459422	104.453147
3182.607853	108.935664
3183.756116	110.215385
3184.904210	110.022378
3186.052135	105.648951
3187.198404	103.206993
3188.344505	97.907692
3189.488952	98.969231
3190.633230	98.808392
3191.777341	102.569231
3192.922770	96.739860
3194.065060	98.236364
3195.207182	97.496503
3196.349138	100.306294
3197.490926	100.669930
3198.632547	104.320280
3199.771033	105.302098
3200.910836	106.608392
3202.051956	106.861538
3203.189943	108.528671
3204.326279	107.419580
3205.462451	109.787413
3206.599939	107.665734
3207.735779	109.634965
3208.872936	105.927273
3210.005480	105.524476
3211.142305	100.944056
3212.274520	104.748252
3213.408051	101.911888
3214.541417	100.551049
3215.671657	96.648951
3216.804694	94.773427
3217.934605	94.390210
3219.065832	97.671329
3220.193934	99.241958
3221.324834	104.836364
3222.454089	104.457343
3223.581701	107.579021
3224.706190	107.383217
3225.834955	110.632168
3226.960598	109.323077
3228.086078	110.348252
3229.209917	104.482517
3230.336551	109.882517
3231.458587	109.183217
3232.581939	112.422378
3233.705128	113.246154
3234.828156	113.097902
3235.949544	108.832168
3237.070771	114.158042
3238.190359	112.279720
3239.309786	112.507692
3240.427576	113.471329
3241.548157	112.363636
3242.665625	110.951049
3243.782932	116.311888
3244.900079	113.650350
3246.015589	117.509091
3247.132415	114.759441
3248.246130	112.700699
3249.362636	111.462937
3250.477506	114.079720
3251.589268	109.793007
3252.700871	113.398601
3253.813789	111.409790
3254.926547	110.953846
3256.036199	106.318881
3257.147166	102.882517
3258.257974	99.272727
3259.367150	103.148252
3260.474695	98.553846
3261.583555	100.304895
3262.692256	98.931469
3263.797855	99.809790
3264.904769	96.581818
3266.010053	100.013986
3267.116651	99.241958
3268.220149	98.281119
3269.324961	92.186014
3270.429616	92.586014
3271.531173	93.612587
3272.632573	102.398601
3273.735287	100.615385
3274.837845	98.458741
3275.937306	96.528671
3277.039551	98.173427
3278.138700	95.130070
3279.236224	92.676923
3280.333594	88.026573
3281.433745	84.448951
3282.530804	79.606993
3283.627707	80.474126
3284.724455	79.854545
3285.816644	84.405594
3286.913083	86.016783
3288.007899	88.139860
3289.102560	96.255944
3290.195600	104.413986
3291.288486	107.271329
3292.379751	108.482517
3293.472329	104.302098
3294.563287	106.303497
3295.652625	102.513287
3296.741810	101.395804
3297.832307	96.584615
3298.919721	92.155245
3300.006981	90.131469
3301.095554	89.504895
3302.183974	89.805594
3303.267848	92.869930
3304.355963	90.100699
3305.440996	87.780420
3306.524414	83.806993
3307.609144	86.682517
3308.692258	84.039161
3309.776684	85.218182
3310.858033	84.730070
3311.940693	83.904895
3313.021738	82.193007
3314.102633	84.293706
3315.181915	84.833566
3316.261046	86.732867
3317.341489	84.510490
3318.418857	87.166434
3319.497537	85.931469
3320.574605	86.083916
3321.651523	86.794406
3322.726831	95.683916
3323.801989	95.570629
3324.878458	98.355245
3325.951857	93.769231
3327.025106	94.688112
3328.099667	91.895105
3329.172619	91.446154
3330.243962	84.437762
3331.316616	82.786014
3332.386203	79.057343
3333.457101	77.075524
3334.526393	76.826573
3335.596994	81.667133
3336.665989	80.769231
3337.733379	88.148252
3338.799163	91.260140
3339.869173	97.787413
3340.936120	99.460140
3342.000005	104.254545
3343.066657	98.475524
3344.131706	102.107692
3345.195151	98.289510
3346.258450	96.062937
3347.321602	90.380420
3348.384608	88.039161
3349.447468	84.391608
3350.508725	83.643357
3351.566926	77.650350
3352.629348	77.671329
3353.688714	73.510490
3354.747934	74.667133
3355.808463	75.405594
3356.864484	78.450350
3357.923268	78.050350
3358.977545	86.394406
3360.034586	88.570629
3361.090028	94.697902
3362.146780	94.055944
3363.201933	95.493706
3364.255489	93.760839
3365.307448	95.341259
3366.362170	89.869930
3367.413842	94.893706
3368.465370	95.496503
3369.518208	94.387413
3370.567998	93.482517
3371.619097	95.911888
3372.667149	93.485315
3373.717962	94.572028
3374.765729	88.518881
3375.813354	87.002797
3376.860837	80.120280
3377.906727	75.671329
3378.953925	74.633566
3379.998080	81.558042
3381.044995	82.338462
3382.090317	85.212587
3383.132598	86.669930
3384.174738	91.226573
3385.218187	89.366434
3386.261494	88.346853
3387.303211	82.988811
3388.344788	78.633566
3389.386223	69.801399
3390.426070	68.576224
3391.464328	64.506294
3392.503894	69.158042
3393.543320	67.737063
3394.581158	69.369231
3395.617409	72.716084
3396.653520	79.953846
3397.690939	78.776224
3398.725325	83.075524
3399.761019	83.211189
3400.796573	83.974825
3401.829095	77.548252
3402.864371	78.201399
3403.896617	76.299301
3404.928723	78.195804
3405.959247	75.303497
3406.991077	77.861538
3408.022769	78.538462
3409.051433	85.813986
3410.079960	82.426573
3411.109793	88.335664
3412.139489	83.458741
3413.166159	86.037762
3414.194135	79.686713
3415.219087	80.053147
3416.246790	79.833566
3417.271468	79.928671
3418.297453	80.446154
3419.321859	82.888112
3420.346128	83.794406
3421.368818	87.797203
3422.391372	81.149650
3423.415232	79.727273
3424.436072	73.654545
3425.456776	70.225574
3426.478786	68.582717
3427.497778	69.530869
3428.516635	73.874925
3429.536798	82.419780
3430.553944	95.970330
