-118.702670	-10.000000
-116.033069	38.400000
-113.366404	9.000000
-110.700491	7.800000
-108.037511	40.200000
-105.373100	13.000000
-102.711620	-5.000000
-100.048711	0.600000
-97.390908	-9.600000
-94.731676	41.000000
-92.073192	20.000000
-89.417633	12.000000
-86.760644	18.600000
-84.108754	-8.200000
-81.455434	10.000000
-78.805033	13.800000
-76.153204	-9.400000
-73.506465	8.600000
-70.858296	-19.600000
-68.210870	12.400000
-65.566359	22.000000
-62.920418	16.000000
-60.279559	28.000000
-57.637271	12.600000
-54.997892	-12.600000
-52.357084	3.800000
-49.717015	-10.800000
-47.082020	-3.600000
-44.445595	16.200000
-41.812073	10.400000
-39.177123	8.400000
-36.547239	23.200000
-33.913761	14.800000
-31.285346	34.000000
-28.657665	22.200000
-26.028555	20.200000
-23.404503	14.600000
-20.776860	6.400000
-18.154272	10.200000
-15.532414	51.400000
-12.911287	70.000000
-10.290891	181.800000
-7.673382	577.600000
-5.054445	1954.000000
-2.438394	4857.000000
0.176930	8136.600000
2.791525	5197.600000
5.403239	1005.000000
8.016381	69.600000
10.624489	44.200000
13.236178	16.600000
15.842837	37.200000
18.450925	29.400000
21.058287	27.400000
23.660625	-1.400000
26.266542	28.000000
28.867436	2.800000
31.469758	33.800000
34.067062	-24.800000
36.667943	9.800000
39.263808	23.400000
41.861101	30.000000
44.457675	1.400000
47.049240	15.200000
49.642234	-16.400000
52.232366	7.600000
54.823925	-9.400000
57.412626	32.200000
60.002753	31.400000
62.587881	27.200000
65.174437	8.400000
67.760278	-8.600000
70.343266	32.200000
72.927681	-6.400000
75.504967	9.400000
78.085818	10.800000
80.663822	6.000000
83.241114	13.800000
85.819834	0.400000
88.393571	21.200000
90.968735	14.200000
93.541056	27.800000
96.112670	17.000000
98.681443	22.000000
101.251643	16.200000
103.819004	38.200000
106.387792	15.400000
108.953743	22.600000
111.516859	14.400000
114.083531	45.000000
116.640981	35.200000
119.204117	21.400000
121.762294	44.400000
124.324025	68.400000
126.880799	72.400000
129.438999	103.600000
131.992247	138.600000
134.544797	236.600000
137.100897	326.600000
139.652049	436.400000
142.202504	558.200000
144.752261	662.000000
147.299199	720.200000
149.845442	763.800000
152.393110	812.400000
154.940082	814.600000
157.482118	783.800000
160.023462	783.200000
162.564112	792.800000
165.106187	818.800000
167.645452	780.400000
170.181907	814.800000
172.717672	808.000000
175.254862	840.600000
177.791361	769.600000
180.325054	778.400000
182.855943	755.600000
185.386144	792.400000
187.917771	758.400000
190.446596	763.800000
192.972622	718.400000
195.497962	764.200000
198.024727	756.600000
200.548696	749.800000
203.071979	782.800000
205.594578	779.200000
208.114384	778.200000
210.633507	758.400000
213.151947	759.400000
215.671812	790.000000
218.184674	773.200000
220.701068	787.000000
223.216781	771.800000
225.727603	832.000000
228.239850	873.400000
230.749314	852.200000
233.258100	877.800000
235.766208	832.800000
238.275740	859.200000
240.780391	912.000000
243.284366	779.800000
245.789765	892.200000
248.290289	860.200000
250.794336	859.800000
253.291413	838.600000
255.792012	865.000000
258.289840	842.400000
260.786995	839.400000
263.283478	851.400000
265.775097	904.000000
268.270236	837.200000
270.762608	824.200000
273.254310	856.600000
275.743249	864.000000
278.233611	881.600000
280.721212	896.800000
283.206053	860.200000
285.694409	910.800000
288.175825	878.400000
290.660755	943.800000
293.140839	952.400000
295.624436	944.200000
298.103191	947.600000
300.583368	1009.800000
303.060794	1022.400000
305.537556	1019.600000
308.013654	971.400000
310.487004	958.400000
312.959693	896.800000
315.431720	956.400000
317.903085	929.800000
320.371707	948.400000
322.839669	960.800000
325.309054	949.600000
327.773616	878.800000
330.241682	854.800000
332.704927	850.800000
335.167516	817.000000
337.629448	848.400000
340.090723	842.800000
342.549263	789.800000
345.009226	839.600000
347.466457	779.000000
349.923033	769.400000
352.378955	740.000000
354.832147	751.000000
357.286762	721.600000
359.736575	772.400000
362.189884	707.000000
364.638394	720.800000
367.086254	740.200000
369.535536	723.000000
371.980023	698.400000
374.425933	677.200000
376.871194	679.400000
379.313736	666.600000
381.755630	674.200000
384.196876	666.000000
386.635408	641.800000
389.075360	642.200000
391.512599	624.600000
393.947127	644.400000
396.385141	639.800000
398.818380	663.200000
401.253039	660.000000
403.682926	641.600000
406.116298	637.400000
408.544900	663.200000
410.972860	609.200000
413.402241	620.800000
415.826858	628.200000
418.252895	612.000000
420.678293	608.800000
423.103050	610.400000
425.523048	548.200000
427.944468	592.200000
430.363192	617.400000
432.783335	591.800000
435.200784	590.800000
437.619654	584.600000
440.035829	545.800000
442.447258	546.000000
444.862163	558.000000
447.274378	515.800000
449.685960	464.600000
452.096907	480.200000
454.505167	460.200000
456.912796	463.400000
459.319792	468.400000
461.726157	417.200000
464.129839	454.200000
466.532891	477.800000
468.935313	470.400000
471.337105	486.400000
473.736219	477.000000
476.136753	508.200000
478.536658	492.400000
480.931841	470.600000
483.330489	479.200000
485.724418	544.000000
488.117721	548.400000
490.510399	553.200000
492.902451	611.400000
495.295921	667.200000
497.684679	738.800000
500.070771	895.200000
502.458283	1097.600000
504.845172	1464.200000
507.229396	2039.800000
509.615040	2911.200000
511.998022	4150.000000
514.378342	5543.800000
516.760083	6811.000000
519.139164	7009.400000
521.519663	6318.200000
523.897506	5374.600000
526.272692	4371.000000
528.647261	3644.600000
531.023249	3101.800000
533.396584	2666.400000
535.771336	2369.600000
538.141402	2136.800000
540.510854	1956.400000
542.881723	1756.000000
545.247911	1602.000000
547.615518	1523.200000
549.980479	1409.400000
552.344828	1396.600000
554.708563	1264.200000
557.073716	1224.200000
559.434197	1148.400000
561.796095	1121.600000
564.155354	1088.400000
566.511974	1026.400000
568.872040	999.600000
571.225414	983.800000
573.582233	985.800000
575.936417	912.000000
578.289992	895.800000
580.642960	884.400000
582.993295	858.600000
585.345048	862.200000
587.690124	823.200000
590.040663	795.800000
592.384530	775.400000
594.733858	757.200000
597.078537	727.400000
599.420592	768.000000
601.764064	764.800000
604.104913	759.800000
606.445159	765.600000
608.782785	758.800000
611.123846	778.400000
613.460270	845.400000
615.798110	898.800000
618.133333	912.400000
620.465939	859.000000
622.799963	817.000000
625.131372	768.400000
627.462183	740.800000
629.792396	711.800000
632.122012	735.400000
634.447004	688.400000
636.777438	716.800000
639.103251	719.400000
641.426456	721.200000
643.751078	670.200000
646.073094	700.000000
648.394516	677.800000
650.713335	670.600000
653.033571	643.400000
655.353212	687.600000
657.670254	637.000000
659.986703	652.800000
662.300554	655.200000
664.615821	698.200000
666.928491	687.000000
669.242576	667.200000
671.552061	659.400000
673.862962	639.800000
676.171270	637.400000
678.478989	623.400000
680.788124	607.400000
683.092666	618.200000
685.396622	575.800000
687.699991	609.400000
690.004776	571.000000
692.304973	549.200000
694.606586	552.400000
696.907613	557.000000
699.204059	512.000000
701.501920	543.600000
703.799197	530.400000
706.095891	541.400000
708.388009	512.200000
710.683538	545.800000
712.974493	540.600000
715.266863	562.400000
717.556657	534.800000
719.845872	531.200000
722.134507	567.400000
724.420569	531.200000
726.708045	554.800000
728.992951	530.800000
731.277279	539.000000
733.559038	536.400000
735.842211	480.200000
738.124807	515.200000
740.402847	537.800000
742.682301	499.400000
744.961180	467.600000
747.239484	512.400000
749.513237	478.600000
751.788405	509.600000
754.062999	500.000000
756.335034	498.600000
758.608482	510.000000
760.879372	513.800000
763.147706	475.400000
765.417453	495.400000
767.684645	507.200000
769.951268	492.600000
772.217320	486.400000
774.480821	484.000000
776.745734	493.800000
779.010079	502.600000
781.269893	485.200000
783.531121	484.800000
785.791781	526.800000
788.049895	507.400000
790.305464	492.400000
792.564423	494.000000
794.816884	485.800000
797.074712	517.800000
799.328021	487.800000
801.578790	498.800000
803.830971	461.400000
806.080613	529.200000
808.331667	483.400000
810.578210	505.400000
812.826166	463.800000
815.071586	476.600000
817.318419	463.200000
819.564689	476.000000
821.806456	463.600000
824.051605	446.400000
826.290283	496.200000
828.532342	457.800000
830.769903	461.800000
833.008876	459.800000
835.245322	460.800000
837.483179	458.200000
839.718511	464.600000
841.951320	484.000000
844.185539	457.400000
846.417237	488.600000
848.648380	464.400000
850.878968	483.000000
853.109002	477.400000
855.338481	489.000000
857.563480	475.600000
859.791852	468.800000
862.015746	438.000000
864.241051	476.400000
866.461880	459.200000
868.686081	461.400000
870.905809	446.400000
873.126947	433.600000
875.347535	451.600000
877.565614	489.000000
879.785102	447.600000
882.000124	458.800000
884.214598	434.800000
886.428525	448.000000
888.641904	439.400000
890.854737	448.000000
893.067022	445.400000
895.276806	480.000000
897.486044	419.000000
899.694737	450.000000
901.900930	438.600000
904.108533	453.400000
906.313639	450.000000
908.518201	463.800000
910.720268	417.200000
912.923744	485.200000
915.124726	501.400000
917.325166	486.200000
919.527015	461.000000
921.722473	544.400000
923.921289	557.200000
926.115668	597.000000
928.313404	618.200000
930.506704	690.000000
932.701413	768.400000
934.893635	819.200000
937.085320	901.600000
939.276467	928.800000
941.465131	938.400000
943.653259	1001.400000
945.838905	957.600000
948.027905	979.000000
950.212480	964.400000
952.396521	962.000000
954.583913	980.600000
956.763000	1021.200000
958.945438	978.400000
961.127342	1005.600000
963.306771	995.800000
965.483728	1020.200000
967.662093	1024.400000
969.841865	999.800000
972.015288	1012.400000
974.192057	1025.600000
976.364419	1033.200000
978.538189	1049.600000
980.707555	1002.000000
982.880265	997.000000
985.050510	923.400000
987.220225	836.800000
989.389412	769.000000
991.554202	719.000000
993.722334	662.600000
995.886070	644.600000
998.051214	638.000000
1000.213898	592.000000
1002.376057	580.600000
1004.535759	597.600000
1006.694936	531.400000
1008.855520	543.800000
1011.013649	511.200000
1013.171255	542.200000
1015.328337	507.800000
1017.484895	497.200000
1019.637074	460.000000
1021.790660	462.400000
1023.943724	437.600000
1026.094339	458.400000
1028.246360	426.600000
1030.394009	426.600000
1032.544989	415.200000
1034.691598	432.400000
1036.837688	399.400000
1038.983260	418.400000
1041.130237	389.600000
1043.270925	408.400000
1045.414942	402.400000
1047.556520	408.600000
1049.697580	384.200000
1051.840046	409.200000
1053.976231	404.000000
1056.115743	450.000000
1058.250899	400.200000
1060.389380	439.200000
1062.523508	404.600000
1064.657122	391.200000
1066.792140	389.200000
1068.922810	412.200000
1071.054884	401.800000
1073.184528	396.800000
1075.313661	416.400000
1077.442283	404.200000
1079.570393	366.200000
1081.696077	379.800000
1083.821251	383.400000
1085.947829	396.800000
1088.070069	384.600000
1090.193714	415.400000
1092.313024	373.800000
1094.437563	380.200000
1096.555858	393.600000
1098.675556	414.800000
1100.792837	416.400000
1102.909610	365.400000
1105.025877	390.800000
1107.139729	425.600000
1109.254984	387.200000
1111.365917	383.000000
1113.480162	389.400000
1115.590086	388.800000
1117.701413	380.800000
1119.812237	386.400000
1121.918744	370.800000
1124.028560	398.400000
1126.134062	375.200000
1128.240968	397.400000
1130.341658	361.400000
1132.447560	388.600000
1134.549153	331.000000
1136.652148	382.000000
1138.754644	337.200000
1140.850932	342.400000
1142.952427	343.600000
1145.049620	344.600000
1147.146314	343.200000
1149.242511	339.000000
1151.338209	352.600000
1153.433410	338.000000
1155.526214	346.000000
1157.620420	370.600000
1159.708435	330.800000
1161.801648	365.200000
1163.888674	359.200000
1165.978998	351.800000
1168.065034	311.000000
1170.154368	366.400000
1172.237521	363.400000
1174.322077	339.400000
1176.408034	330.400000
1178.489709	351.000000
1180.572785	326.600000
1182.653476	365.400000
1184.733676	339.600000
1186.813384	339.800000
1188.892601	355.400000
1190.969435	341.400000
1193.043889	344.200000
1195.121635	339.800000
1197.195110	362.600000
1199.269987	326.800000
1201.340596	340.000000
1203.412606	350.400000
1205.482240	356.600000
1207.553275	342.800000
1209.623822	328.400000
1211.690109	344.200000
1213.757796	323.200000
1215.823110	372.000000
1217.889825	322.600000
1219.952284	355.200000
1222.018029	328.200000
1224.079519	359.600000
1226.142410	347.800000
1228.202932	333.000000
1230.262972	316.800000
1232.322528	348.400000
1234.379720	358.600000
1236.436429	353.000000
1238.490776	377.000000
1240.548403	354.400000
1242.603668	357.000000
1244.654693	330.600000
1246.707117	322.400000
1248.759061	350.200000
1250.808647	321.600000
1252.857754	372.000000
1254.906382	321.800000
1256.954532	353.200000
1259.002204	341.800000
1261.045645	333.600000
1263.092362	347.400000
1265.136725	338.000000
1267.180611	343.600000
1269.222147	357.800000
1271.261333	346.800000
1273.303792	348.400000
1275.342028	349.400000
1277.381663	364.200000
1279.420822	330.600000
1281.455764	366.600000
1283.492104	349.200000
1285.526100	355.800000
1287.561493	335.000000
1289.592673	334.000000
1291.625252	335.400000
1293.657359	341.200000
1295.687125	339.600000
1297.718288	338.400000
1299.745244	311.800000
1301.773599	328.000000
1303.797748	326.400000
1305.825163	335.000000
1307.848375	322.000000
1309.872985	338.200000
1311.895260	305.800000
1313.918933	325.200000
1315.940273	325.400000
1317.961146	311.200000
1319.981551	342.200000
1321.997763	346.600000
1324.015372	310.000000
1326.030653	339.200000
1328.049193	342.400000
1330.063543	345.600000
1332.075568	342.200000
1334.090851	359.200000
1336.101948	350.200000
1338.114441	365.800000
1340.122752	372.200000
1342.134319	359.000000
1344.139847	334.800000
1346.148630	377.200000
1348.153235	351.000000
1350.161094	360.000000
1352.168491	338.200000
1354.169857	361.000000
1356.172619	316.200000
1358.174922	318.800000
1360.176765	345.800000
1362.178148	323.800000
1364.177217	348.000000
1366.175828	371.600000
1368.173981	303.000000
1370.171676	326.200000
1372.165208	322.800000
1374.160135	322.800000
1376.154606	304.000000
1378.148620	344.000000
1380.140327	313.200000
1382.131578	308.000000
1384.120524	315.200000
1386.110865	320.800000
1388.100752	263.600000
1390.088334	295.000000
1392.075463	286.600000
1394.060290	304.000000
1396.046512	297.200000
1398.030433	296.400000
1400.013902	308.000000
1401.996919	263.800000
1403.977638	301.400000
1405.959751	298.800000
1407.939567	304.600000
1409.918933	324.600000
1411.894160	309.800000
1413.872625	310.200000
1415.848797	293.400000
1417.824519	315.400000
1419.799792	292.800000
1421.772775	308.800000
1423.745309	300.600000
1425.717395	278.000000
1427.689034	295.800000
1429.656544	309.600000
1431.629128	281.400000
1433.593906	301.800000
1435.563757	283.200000
1437.529483	300.000000
1439.496603	295.600000
1441.461439	291.800000
1443.422155	286.600000
1445.387939	304.600000
1447.347768	290.000000
1449.308991	325.200000
1451.271605	305.800000
1453.230105	328.400000
1455.188163	295.200000
1457.145779	305.200000
1459.102952	296.600000
1461.057850	331.600000
1463.014141	306.400000
1464.968157	322.200000
1466.921732	297.000000
1468.873035	317.600000
1470.825730	292.800000
1472.776154	323.800000
1474.726139	305.200000
1476.675685	324.400000
1478.622962	286.600000
1480.567971	335.000000
1482.514373	272.800000
1484.460337	313.000000
1486.405864	312.800000
1488.349125	317.400000
1490.291950	285.200000
1492.232512	253.400000
1494.174466	284.600000
1496.114157	294.800000
1498.053413	291.000000
1499.992235	290.200000
1501.928797	290.000000
1503.866750	267.200000
1505.802444	294.600000
1507.737705	278.800000
1509.670709	297.200000
1511.603281	267.600000
1513.535421	277.200000
1515.467129	298.800000
1517.396584	302.600000
1519.327429	294.000000
1521.257842	288.200000
1523.184183	306.200000
1525.111914	264.600000
1527.037396	312.000000
1528.962448	284.400000
1530.887070	301.000000
1532.811264	314.000000
1534.733211	287.400000
1536.656548	280.200000
1538.577638	332.400000
1540.496484	292.600000
1542.416720	318.400000
1544.334712	318.200000
1546.252278	329.400000
1548.167603	294.600000
1550.084317	326.800000
1551.996975	334.200000
1553.912838	359.400000
1555.826462	341.800000
1557.737847	359.600000
1559.650622	372.800000
1561.559347	389.200000
1563.469461	362.800000
1565.379152	426.800000
1567.288420	453.200000
1569.195453	481.400000
1571.100254	506.400000
1573.006444	572.800000
1574.910403	622.600000
1576.813940	744.200000
1578.717057	763.800000
1580.617944	912.400000
1582.520220	959.000000
1584.420267	1068.600000
1586.321703	1033.600000
1588.219104	1040.000000
1590.116088	894.800000
1592.012653	741.800000
1593.910605	625.400000
1595.802723	525.600000
1597.698035	465.200000
1599.592928	421.000000
1601.485601	408.800000
1603.377856	372.600000
1605.267892	333.800000
1607.157512	325.200000
1609.046717	307.800000
1610.935506	340.200000
1612.822079	321.000000
1614.710039	344.000000
1616.593982	319.400000
1618.479312	321.000000
1620.364229	295.600000
1622.246932	327.000000
1624.131022	279.800000
1626.011100	299.200000
1627.892566	300.200000
1629.771820	276.600000
1631.652462	276.800000
1633.527299	276.600000
1635.407117	254.000000
1637.282930	287.600000
1639.158334	254.800000
1641.035123	282.000000
1642.906115	269.800000
1644.780290	293.800000
1646.650465	286.600000
1648.523821	272.400000
1650.394974	264.200000
1652.263925	281.200000
1654.134262	267.200000
1656.000606	263.000000
1657.868335	265.000000
1659.733865	256.800000
1661.600781	272.200000
1663.463707	245.200000
1665.328020	254.600000
1667.190136	281.600000
1669.051847	261.800000
1670.914943	265.600000
1672.775845	261.400000
1674.634554	277.600000
1676.492859	237.600000
1678.352548	262.000000
1680.206471	229.600000
1682.063567	238.800000
1683.920259	246.400000
1685.772976	267.800000
1687.628864	250.400000
1689.480778	250.200000
1691.332291	266.200000
1693.183403	263.000000
1695.034114	239.400000
1696.884425	231.200000
1698.732552	235.200000
1700.582063	239.600000
1702.425824	222.600000
1704.274536	236.200000
1706.117501	231.600000
1707.963632	240.600000
1709.805802	226.400000
1711.651137	254.600000
1713.490730	245.200000
1715.331709	254.600000
1717.174070	214.600000
1719.012474	238.600000
1720.852262	220.200000
1722.689875	244.000000
1724.527093	237.400000
1726.362137	225.800000
1728.198564	201.800000
1730.032818	239.800000
1731.866679	236.600000
1733.700145	254.200000
1735.529665	227.800000
1737.362345	234.600000
1739.191079	218.000000
1741.022972	220.600000
1742.850922	241.600000
1744.678480	254.600000
1746.505647	249.400000
1748.332422	232.800000
1750.158805	209.600000
1751.981252	240.600000
1753.806854	230.000000
1755.628520	229.800000
1757.451569	242.600000
1759.272457	235.000000
1761.092955	243.000000
1762.914835	232.200000
1764.731015	228.200000
1766.550347	242.400000
1768.365752	239.600000
1770.184308	255.200000
1771.998938	243.800000
1773.813181	266.400000
1775.627038	240.200000
1777.440508	248.800000
1779.251824	229.600000
1781.064522	221.600000
1782.876834	242.800000
1784.685227	243.800000
1786.495002	274.200000
1788.300861	259.200000
1790.109867	222.800000
1791.914959	238.800000
1793.721432	229.800000
1795.527520	242.200000
1797.329699	239.000000
1799.135021	235.800000
1800.936435	224.200000
1802.739230	245.200000
1804.538118	201.400000
1806.338387	251.000000
1808.138274	207.200000
1809.936019	242.600000
1811.733384	250.000000
1813.530368	236.800000
1815.326972	228.800000
1817.121437	249.000000
1818.917282	230.600000
1820.707471	226.600000
1822.502557	233.800000
1824.291990	254.600000
1826.084561	207.600000
1827.874996	231.200000
1829.663296	219.600000
1831.454732	240.600000
1833.240523	266.000000
1835.027692	278.200000
1836.812731	218.400000
1838.600902	233.600000
1840.385188	234.200000
1842.167345	233.800000
1843.950881	237.800000
1845.732288	257.200000
1847.515073	233.800000
1849.293979	252.400000
1851.074263	264.800000
1852.852422	264.000000
1854.631958	266.800000
1856.409370	259.400000
1858.184659	210.800000
1859.961325	256.600000
1861.735869	201.400000
1863.511790	260.400000
1865.282092	261.600000
1867.055521	242.200000
1868.826830	248.800000
1870.597768	254.200000
1872.370084	234.200000
1874.136786	224.600000
1875.906613	242.800000
1877.672577	258.400000
1879.441665	237.400000
1881.206891	256.200000
1882.971749	238.000000
1884.737983	231.000000
1886.500359	234.600000
1888.262368	237.000000
1890.024010	223.000000
1891.785284	225.400000
1893.546192	239.000000
1895.306732	227.400000
1897.065164	220.600000
1898.823229	231.400000
1900.579187	223.800000
1902.336521	212.400000
1904.093490	211.200000
1905.848352	236.800000
1907.601109	199.800000
1909.353503	208.200000
1911.107273	229.400000
1912.858939	219.800000
1914.608502	235.600000
1916.359442	230.200000
1918.110018	210.200000
1919.856756	218.600000
1921.604869	198.200000
1923.350883	224.800000
1925.098273	223.800000
1926.843564	233.800000
1928.586758	220.200000
1930.331328	210.400000
1932.073801	237.800000
1933.815914	208.800000
1935.557668	215.000000
1937.299061	213.600000
1939.038361	237.000000
1940.777302	201.000000
1942.515884	220.800000
1944.252375	248.600000
1945.988507	237.200000
1947.726015	225.800000
1949.459700	204.400000
1951.194760	242.000000
1952.927731	226.800000
1954.660346	214.800000
1956.392604	197.400000
1958.124506	201.800000
1959.854323	193.800000
1961.582054	205.400000
1963.311160	203.400000
1965.039910	230.800000
1966.766577	202.800000
1968.492890	211.800000
1970.220577	215.000000
1971.942727	238.200000
1973.667978	209.600000
1975.389422	218.600000
1977.113966	214.400000
1978.836431	219.200000
1980.555092	227.000000
1982.276852	208.000000
1983.994811	204.400000
1985.714142	229.400000
1987.429674	194.000000
1989.150026	242.400000
1990.866580	205.200000
1992.579337	228.400000
1994.295190	225.200000
1996.008971	215.000000
1997.722402	196.400000
1999.433762	215.600000
2001.146494	198.600000
2002.855435	192.200000
2004.567470	234.000000
2006.273995	208.000000
2007.983613	218.000000
2009.691163	208.600000
2011.398366	214.000000
2013.103503	214.800000
2014.808293	206.000000
2016.514456	208.400000
2018.216835	195.000000
2019.920587	228.800000
2021.622276	194.600000
2023.323619	208.800000
2025.024618	189.800000
2026.723555	215.200000
2028.423864	210.000000
2030.120397	238.400000
2031.818302	212.200000
2033.514149	230.200000
2035.213081	201.800000
2036.906527	206.800000
2038.601344	180.600000
2040.295818	223.800000
2041.986525	170.200000
2043.680314	216.200000
2045.370338	203.600000
2047.061731	231.800000
2048.751072	201.000000
2050.441784	233.600000
2052.128732	192.400000
2053.815340	214.000000
2055.503319	206.000000
2057.187538	204.000000
2058.873127	213.600000
2060.558377	241.800000
2062.241579	169.600000
2063.926151	211.800000
2065.605259	221.400000
2067.289154	216.200000
2068.967587	190.000000
2070.649098	201.400000
2072.326857	187.600000
2074.004280	225.800000
2075.683072	184.200000
2077.359821	216.000000
2079.034529	209.600000
2080.710607	196.000000
2082.384643	200.800000
2084.058345	188.000000
2085.731711	196.200000
2087.403038	222.800000
2089.074031	198.000000
2090.744690	222.200000
2092.415015	182.200000
2094.085006	209.200000
2095.752960	209.400000
2097.420582	209.400000
2099.086170	205.800000
2100.753126	207.800000
2102.418049	212.200000
2104.082640	226.200000
2105.745199	167.200000
2107.409126	215.200000
2109.071022	220.800000
2110.732587	202.600000
2112.393822	210.200000
2114.053027	207.600000
2115.711903	187.600000
2117.370448	193.800000
2119.028664	203.000000
2120.683157	197.600000
2122.340714	189.200000
2123.997941	224.800000
2125.651448	185.800000
2127.306322	211.200000
2128.957477	172.800000
2130.611695	183.200000
2132.262195	185.400000
2133.914063	194.000000
2135.560522	204.800000
2137.211735	169.600000
2138.859236	183.800000
2140.508103	212.000000
2142.154951	213.200000
2143.801474	202.600000
2145.447671	213.600000
2147.090159	204.200000
2148.735706	197.200000
2150.377546	190.000000
2152.022443	202.800000
2153.663635	206.000000
2155.304503	190.800000
2156.945048	216.800000
2158.583580	188.800000
2160.223478	209.000000
2161.859676	185.200000
2163.497240	215.200000
2165.134482	215.800000
2166.769714	211.800000
2168.404624	222.400000
2170.039213	222.000000
2171.673481	188.200000
2173.304055	204.600000
2174.937681	196.800000
2176.567614	221.600000
2178.198914	209.800000
2179.828208	210.800000
2181.457183	222.600000
2183.085838	212.600000
2184.714174	180.400000
2186.340507	181.200000
2187.966522	201.200000
2189.590536	220.800000
2191.215915	202.200000
2192.839293	205.600000
2194.464036	181.400000
2196.085098	221.400000
2197.705843	169.400000
2199.327952	195.200000
2200.948064	212.600000
2202.566180	211.000000
2204.183980	181.000000
2205.801464	211.800000
2207.418634	206.200000
2209.035487	221.800000
2210.652026	217.800000
2212.266571	214.600000
2213.879125	220.200000
2215.493042	196.800000
2217.104968	209.200000
2218.718257	211.600000
2220.329555	191.400000
2221.938865	199.000000
2223.549537	200.400000
2225.158221	224.000000
2226.766593	181.600000
2228.372978	196.400000
2229.980725	209.600000
2231.586487	223.200000
2233.191937	178.800000
2234.795402	180.200000
2236.400230	181.800000
2238.003074	183.600000
2239.603935	196.400000
2241.206159	219.200000
2242.806401	209.800000
2244.408005	242.400000
2246.005956	160.600000
2247.605270	212.400000
2249.202604	173.000000
2250.799630	204.600000
2252.398017	190.800000
2253.992757	208.600000
2255.585519	203.200000
2257.179644	211.400000
2258.775130	190.600000
2260.366971	217.000000
2261.958506	198.400000
2263.551402	231.200000
2265.138990	210.200000
2266.731273	194.400000
2268.318249	195.800000
2269.908254	189.400000
2271.492954	188.000000
2273.082348	209.200000
2274.666439	201.200000
2276.251892	219.800000
2277.835376	201.200000
2279.421885	208.000000
2281.004761	205.200000
2282.587334	182.600000
2284.169603	192.000000
2285.748242	205.200000
2287.329906	163.000000
2288.907941	193.200000
2290.488999	198.800000
2292.066430	190.100000
2293.641898	181.400000
2295.220388	165.800000
2296.795254	205.600000
2298.369819	207.400000
2299.944083	182.200000
2301.518047	196.800000
2303.091711	174.000000
2304.665075	178.000000
2306.234820	177.400000
2307.804266	174.600000
2309.376730	188.000000
2310.943920	183.400000
2312.514127	182.600000
2314.080721	198.000000
2315.648673	188.800000
2317.214671	167.800000
2318.780371	197.400000
2320.345773	188.000000
2321.909222	177.800000
2323.474030	212.000000
2325.035229	172.200000
2326.599443	216.800000
2328.158396	203.600000
2329.720362	196.600000
2331.280378	174.400000
2332.840098	209.200000
2334.397870	164.600000
2335.955346	179.200000
2337.512528	169.600000
2339.067762	195.000000
2340.622702	196.400000
2342.177349	195.800000
2343.731702	165.400000
2345.285761	163.200000
2346.839527	174.200000
2348.391348	211.200000
2349.941226	184.000000
2351.494113	188.400000
2353.041756	157.600000
2354.592407	218.000000
2356.139468	200.200000
2357.687886	199.400000
2359.236013	162.000000
2360.780551	200.200000
2362.326447	155.000000
2363.870404	188.000000
2365.415719	167.400000
2366.957449	188.000000
2368.500537	181.800000
2370.041688	196.400000
2371.582550	185.000000
2373.123123	176.000000
2374.663407	200.200000
2376.203402	159.800000
2377.739818	174.600000
2379.279236	197.600000
2380.815077	154.200000
2382.352275	175.800000
2383.885897	173.800000
2385.422519	189.400000
2386.957211	175.000000
2388.489972	213.200000
2390.022448	187.600000
2391.552995	200.600000
2393.086540	143.400000
2394.614874	162.400000
2396.144564	178.200000
2397.673969	208.800000
2399.203089	161.800000
2400.731923	182.200000
2402.255553	176.800000
2403.783818	193.800000
2405.306880	161.200000
2406.834577	192.200000
2408.355434	158.800000
2409.880923	206.000000
2411.402853	192.800000
2412.926137	192.200000
2414.447501	192.200000
2415.966945	206.400000
2417.487744	194.000000
2419.006624	217.200000
2420.525223	165.400000
2422.041903	200.600000
2423.559939	158.800000
2425.077693	203.600000
2426.591895	194.800000
2428.105818	218.000000
2429.619460	200.200000
2431.134456	225.400000
2432.645905	202.000000
2434.158707	206.400000
2435.669597	206.200000
2437.180208	232.400000
2438.688907	219.200000
2440.200592	226.200000
2441.708734	182.800000
2443.216598	214.000000
2444.724183	204.000000
2446.228229	245.800000
2447.735259	192.400000
2449.240381	233.200000
2450.745226	208.400000
2452.248164	204.600000
2453.750825	192.400000
2455.253211	211.800000
2456.753690	207.400000
2458.255524	235.400000
2459.755452	187.600000
2461.255105	216.800000
2462.754483	174.800000
2464.251958	209.000000
2465.747531	169.800000
2467.246084	209.800000
2468.741109	194.600000
2470.237486	192.000000
2471.730337	180.600000
2473.224541	179.600000
2474.718471	187.400000
2476.208877	197.200000
2477.702261	209.200000
2479.193747	212.600000
2480.683336	190.600000
2482.172653	193.600000
2483.660074	162.400000
2485.150471	179.000000
2486.637350	167.800000
2488.125580	209.400000
2489.610293	200.200000
2491.094736	185.400000
2492.580531	172.400000
2494.064434	184.600000
2495.549687	184.400000
2497.029807	193.400000
2498.512899	184.000000
2499.994102	179.800000
2501.475035	183.800000
2502.954078	193.800000
2504.432854	165.800000
2505.911361	202.200000
2507.389599	200.000000
2508.867570	176.600000
2510.342035	146.200000
2511.819470	205.200000
2513.293400	166.800000
2514.768682	194.400000
2516.243696	164.800000
2517.715209	196.000000
2519.188073	163.200000
2520.659054	179.000000
2522.131385	169.400000
2523.598602	172.800000
2525.068786	211.200000
2526.537089	186.800000
2528.005126	146.400000
2529.472899	153.000000
2530.940407	159.600000
2532.407651	161.400000
2533.871402	151.000000
2535.336503	177.400000
2536.799727	183.000000
2538.264300	185.600000
2539.725385	177.200000
2541.187819	155.200000
2542.649990	155.400000
2544.108674	148.000000
2545.571931	161.200000
2547.030091	189.800000
2548.489601	169.000000
2549.944016	161.600000
2551.403002	185.800000
2552.860116	201.800000
2554.315358	179.200000
2555.770340	199.200000
2557.223452	182.800000
2558.677913	162.200000
2560.130505	137.800000
2561.582837	195.400000
2563.033301	172.200000
2564.486722	164.200000
2565.935060	163.800000
2567.386353	188.600000
2568.835780	179.400000
2570.281736	217.400000
2571.730646	156.400000
2573.176085	188.600000
2574.622873	196.000000
2576.067797	181.200000
2577.512464	165.000000
2578.958478	181.200000
2580.401025	183.600000
2581.844920	195.600000
2583.285350	162.200000
2584.727128	174.400000
2586.167046	216.200000
2587.608311	191.800000
2589.046114	202.000000
2590.486867	202.200000
2591.922558	163.600000
2593.361197	186.600000
2594.797980	207.400000
2596.232907	182.800000
2597.670781	179.800000
2599.103598	188.000000
2600.537762	159.000000
2601.970071	224.400000
2603.403728	194.000000
2604.835530	197.200000
2606.267080	190.000000
2607.698376	195.200000
2609.127821	198.600000
2610.557013	193.600000
2611.984354	190.600000
2613.413042	178.600000
2614.841477	196.400000
2616.266466	212.400000
2617.692800	206.000000
2619.117287	204.000000
2620.543118	231.800000
2621.965507	205.600000
2623.389240	207.200000
2624.811128	235.000000
2626.232765	226.200000
2627.652558	205.200000
2629.073696	219.000000
2630.494584	263.400000
2631.912033	254.400000
2633.332422	257.400000
2634.749374	256.600000
2636.166078	277.000000
2637.582533	291.400000
2638.998740	314.400000
2640.414699	317.200000
2641.828817	335.600000
2643.242687	332.000000
2644.654718	362.800000
2646.068094	371.800000
2647.478040	413.000000
2648.890922	443.600000
2650.300375	437.200000
2651.709582	454.400000
2653.116953	498.000000
2654.527258	534.200000
2655.935727	566.800000
2657.342362	591.600000
2658.748750	640.000000
2660.153306	654.200000
2661.559205	702.800000
2662.963270	724.600000
2664.367092	769.600000
2665.770669	777.400000
2667.172415	858.600000
2668.575504	833.000000
2669.975175	885.400000
2671.376190	871.200000
2672.773789	851.800000
2674.174317	847.800000
2675.571431	868.400000
2676.969888	834.400000
2678.366517	838.200000
2679.762905	821.400000
2681.159050	809.400000
2682.553369	716.800000
2683.949031	712.400000
2685.341284	648.000000
2686.734879	636.400000
2688.126650	593.400000
2689.519764	577.400000
2690.911053	538.800000
2692.300521	513.200000
2693.689748	456.000000
2695.078735	452.200000
2696.469065	422.800000
2697.854411	406.000000
2699.242680	364.800000
2700.629129	374.400000
2702.015339	320.000000
2703.401310	346.000000
2704.783883	314.200000
2706.167798	290.000000
2707.551474	277.200000
2708.934913	269.600000
2710.314956	268.400000
2711.696341	279.000000
2713.075910	263.600000
2714.456821	269.800000
2715.835917	221.200000
2717.213199	236.000000
2718.591822	246.800000
2719.968631	221.400000
2721.345205	218.200000
2722.721543	233.800000
2724.096069	228.400000
2725.471936	233.400000
2726.844416	222.200000
2728.219813	212.800000
2729.590249	211.200000
2730.962025	212.000000
2732.333568	217.400000
2733.703302	200.800000
2735.074376	162.800000
2736.443643	188.400000
2737.812676	210.200000
2739.179903	176.200000
2740.546896	179.000000
2741.913657	167.000000
2743.280185	182.600000
2744.644909	191.000000
2746.009400	175.200000
2747.373659	157.600000
2748.737687	177.600000
2750.101482	189.000000
2751.461905	177.600000
2752.825237	155.800000
2754.183627	176.000000
2755.544927	162.000000
2756.902857	189.800000
2758.263695	176.000000
2759.622733	172.800000
2760.978403	160.200000
2762.336982	183.200000
2763.692193	165.200000
2765.047175	171.800000
2766.400360	163.000000
2767.756452	160.000000
2769.109180	154.200000
2770.461679	171.600000
2771.813951	183.200000
2773.167560	157.400000
2774.517808	182.000000
2775.866263	165.600000
2777.217622	151.400000
2778.565622	154.000000
2779.914961	163.000000
2781.262507	133.800000
2782.609827	141.800000
2783.956919	142.800000
2785.302221	148.400000
2786.647297	159.800000
2787.992147	190.800000
2789.336771	133.400000
2790.678043	148.800000
2792.020652	142.600000
2793.363037	140.800000
2794.705196	157.000000
2796.044006	147.000000
2797.385716	176.600000
2798.724077	188.400000
2800.063776	148.800000
2801.401689	148.400000
2802.737818	149.400000
2804.073724	171.200000
2805.410967	125.000000
2806.746425	162.400000
2808.081661	168.200000
2809.415115	171.400000
2810.749905	113.000000
2812.081354	162.200000
2813.415699	156.000000
2814.745146	157.400000
2816.075930	112.200000
2817.406492	143.600000
2818.735275	150.800000
2820.065395	151.000000
2821.393736	106.400000
2822.721855	171.400000
2824.048198	133.600000
2825.375876	169.600000
2826.700222	144.800000
2828.025904	175.400000
2829.349810	130.000000
2830.673496	180.200000
2831.998518	159.200000
2833.320211	124.000000
2834.641685	148.000000
2835.962939	148.200000
2837.283975	158.800000
2838.603239	154.800000
2839.923838	111.600000
2841.242665	152.400000
2842.561274	134.400000
2843.878113	134.400000
2845.194734	123.800000
2846.511138	170.400000
2847.825772	130.000000
2849.141741	169.200000
2850.454391	123.400000
2851.768375	128.200000
2853.082143	155.200000
2854.395694	124.800000
2855.707479	136.000000
2857.017497	117.400000
2858.328850	129.800000
2859.636888	142.600000
2860.946260	137.600000
2862.255417	149.600000
2863.564359	143.200000
2864.871538	162.600000
2866.176953	141.000000
2867.483703	180.000000
2868.788691	106.000000
2870.093464	142.400000
2871.396477	146.200000
2872.702370	182.800000
2874.003409	152.000000
2875.305781	151.600000
2876.606395	141.400000
2877.908341	141.800000
2879.210075	127.600000
2880.508505	134.200000
2881.808268	138.200000
2883.106274	141.800000
2884.404068	132.000000
2885.700105	133.400000
2886.997476	156.000000
2888.293092	155.800000
2889.588496	134.400000
2890.883689	168.600000
2892.175585	160.000000
2893.470356	142.600000
2894.761832	135.200000
2896.054640	126.400000
2897.347238	138.000000
2898.636541	139.800000
2899.927178	124.400000
2901.216063	131.600000
2902.506280	129.000000
2903.793206	151.000000
2905.081464	145.200000
2906.367973	128.600000
2907.654273	137.000000
2908.940365	152.800000
2910.224709	137.000000
2911.511925	141.400000
2912.794314	116.800000
2914.078035	152.000000
2915.360009	141.200000
2916.641777	118.200000
2917.921799	162.800000
2919.204691	145.400000
2920.485838	156.800000
2921.763703	149.400000
2923.044437	118.800000
2924.321890	129.600000
2925.599138	115.200000
2926.874643	115.000000
2928.153016	133.800000
2929.426575	122.000000
2930.703001	130.200000
2931.977685	152.200000
2933.250630	111.000000
2934.524906	145.600000
2935.797441	142.200000
2937.069773	116.800000
2938.338832	117.000000
2939.610756	149.600000
2940.880942	115.000000
2942.150924	134.200000
2943.420703	136.000000
2944.688746	127.000000
2945.955052	133.000000
2947.221156	133.400000
2948.488591	116.000000
2949.754290	119.800000
2951.019788	138.000000
2952.285083	133.200000
2953.547113	120.400000
2954.810473	133.400000
2956.073632	114.000000
2957.335058	145.200000
2958.597815	118.600000
2959.858839	131.600000
2961.118133	102.400000
2962.377226	130.600000
2963.636120	126.600000
2964.894812	128.200000
2966.153305	114.400000
2967.410069	134.200000
2968.666634	126.800000
2969.921470	131.200000
2971.177636	127.400000
2972.430547	150.800000
2973.684786	102.200000
2974.938827	142.600000
2976.191142	99.200000
2977.443259	111.200000
2978.693651	126.000000
2979.946898	133.200000
2981.195368	115.600000
2982.446693	125.800000
2983.694768	107.400000
2984.942646	150.400000
2986.190328	96.600000
2987.437812	140.400000
2988.683575	113.400000
2989.929141	122.800000
2991.176036	95.600000
2992.419686	120.200000
2993.664663	113.200000
2994.906398	134.000000
2996.150984	123.600000
2997.393851	129.200000
2998.633477	124.600000
2999.875953	140.400000
3001.115189	107.600000
3002.355753	142.400000
3003.594600	129.000000
3004.833253	121.000000
3006.070190	113.200000
3007.308455	140.800000
3008.545004	86.600000
3009.781360	124.200000
3011.017522	92.000000
3012.251970	126.400000
3013.486225	121.800000
3014.720287	121.000000
3015.952637	107.200000
3017.183275	120.200000
3018.416759	121.000000
3019.648532	113.600000
3020.878593	126.200000
3022.108463	136.400000
3023.336623	93.200000
3024.566110	113.200000
3025.793887	101.600000
3027.021473	126.800000
3028.250385	123.000000
3029.474555	101.400000
3030.701568	102.400000
3031.925358	139.000000
3033.150473	143.400000
3034.373883	124.600000
3035.597102	104.200000
3036.818616	113.000000
3038.042971	100.200000
3039.262591	115.800000
3040.483537	112.600000
3041.704293	111.400000
3042.923347	126.200000
3044.143725	134.800000
3045.360887	99.000000
3046.579374	134.000000
3047.796160	94.600000
3049.012757	151.000000
3050.229167	107.000000
3051.442363	99.800000
3052.658397	113.800000
3053.871219	125.200000
3055.086878	95.600000
3056.297814	122.600000
3057.510076	115.800000
3058.722150	106.000000
3059.934038	119.400000
3061.144229	87.800000
3062.354233	115.000000
3063.564051	136.800000
3064.772173	99.800000
3065.980110	114.000000
3067.186351	113.400000
3068.393917	118.400000
3069.599788	114.500000
3070.805474	110.600000
3072.010976	97.400000
3073.214784	120.200000
3074.419916	88.400000
3075.623355	92.800000
3076.825102	108.000000
3078.026666	103.200000
3079.228046	117.400000
3080.429242	119.800000
3081.628748	82.000000
3082.828071	104.400000
3084.028717	115.200000
3085.227673	106.000000
3086.423434	98.600000
3087.622025	104.800000
3088.817422	100.800000
3090.014143	103.000000
3091.207671	99.400000
3092.404027	110.200000
3093.598696	106.000000
3094.790175	107.400000
3095.985986	96.800000
3097.177102	135.600000
3098.369542	132.400000
3099.558793	139.600000
3100.750871	108.000000
3101.941265	117.000000
3103.128473	110.000000
3104.317003	115.200000
3105.506856	117.200000
3106.693524	135.800000
3107.880013	77.400000
3109.066323	139.400000
3110.253954	116.400000
3111.438403	90.000000
3112.621173	105.200000
3113.806765	106.400000
3114.990678	123.000000
3116.172911	117.600000
3117.354967	92.800000
3118.536844	129.400000
3119.718543	112.400000
3120.898565	124.400000
3122.076910	106.400000
3123.258075	102.000000
3124.436065	98.800000
3125.613878	105.200000
3126.791514	107.000000
3127.967475	133.000000
3129.143260	98.200000
3130.320365	109.600000
3131.495797	91.200000
3132.669555	126.200000
3133.841640	96.000000
3135.015046	122.600000
3136.188277	77.200000
3137.359836	113.400000
3138.532715	107.200000
3139.702427	110.800000
3140.873460	92.400000
3142.042822	124.000000
3143.210515	114.600000
3144.381023	105.600000
3145.546872	103.000000
3146.717031	95.600000
3147.882532	95.600000
3149.047860	114.000000
3150.213014	97.800000
3151.377995	126.000000
3152.544295	124.400000
3153.705942	118.600000
3154.868910	88.000000
3156.031705	108.600000
3157.194326	87.200000
3158.355283	122.400000
3159.516068	75.800000
3160.676680	99.000000
3161.835628	75.600000
3162.994405	109.800000
3164.153009	83.200000
3165.311442	86.400000
3166.469703	111.600000
3167.626303	105.600000
3168.781241	101.200000
3169.937498	128.000000
3171.092094	102.400000
3172.246520	110.200000
3173.399285	77.400000
3174.551881	92.600000
3175.704307	102.000000
3176.856562	91.200000
3178.008648	105.800000
3179.157587	118.400000
3180.309333	73.800000
3181.459422	102.600000
3182.607853	100.800000
3183.756116	116.400000
3184.904210	77.000000
3186.052135	114.600000
3187.198404	111.000000
3188.344505	120.400000
3189.488952	92.800000
3190.633230	105.200000
3191.777341	72.000000
3192.922770	108.800000
3194.065060	89.400000
3195.207182	126.800000
3196.349138	116.200000
3197.490926	104.200000
3198.632547	110.400000
3199.771033	109.000000
3200.910836	99.600000
3202.051956	107.800000
3203.189943	85.000000
3204.326279	98.400000
3205.462451	85.600000
3206.599939	86.000000
3207.735779	77.000000
3208.872936	75.400000
3210.005480	96.200000
3211.142305	113.000000
3212.274520	84.000000
3213.408051	79.400000
3214.541417	87.600000
3215.671657	91.800000
3216.804694	87.800000
3217.934605	116.000000
3219.065832	75.600000
3220.193934	82.800000
3221.324834	97.600000
3222.454089	110.800000
3223.581701	94.200000
3224.706190	101.600000
3225.834955	96.000000
3226.960598	98.600000
3228.086078	104.600000
3229.209917	117.200000
3230.336551	98.400000
3231.458587	106.200000
3232.581939	115.200000
3233.705128	106.600000
3234.828156	123.200000
3235.949544	150.400000
3237.070771	104.400000
3238.190359	132.400000
3239.309786	106.000000
3240.427576	112.600000
3241.548157	110.600000
3242.665625	124.400000
3243.782932	124.400000
3244.900079	111.800000
3246.015589	138.200000
3247.132415	113.600000
3248.246130	108.400000
3249.362636	108.800000
3250.477506	118.200000
3251.589268	124.400000
3252.700871	92.000000
3253.813789	122.400000
3254.926547	80.000000
3256.036199	94.800000
3257.147166	77.000000
3258.257974	116.600000
3259.367150	72.800000
3260.474695	91.200000
3261.583555	67.200000
3262.692256	106.800000
3263.797855	90.600000
3264.904769	101.400000
3266.010053	72.000000
3267.116651	81.600000
3268.220149	60.400000
3269.324961	76.400000
3270.429616	92.800000
3271.531173	84.000000
3272.632573	86.400000
3273.735287	95.000000
3274.837845	65.600000
3275.937306	90.800000
3277.039551	75.000000
3278.138700	100.600000
3279.236224	60.600000
3280.333594	87.600000
3281.433745	106.000000
3282.530804	102.200000
3283.627707	64.600000
3284.724455	93.000000
3285.816644	96.000000
3286.913083	92.800000
3288.007899	70.000000
3289.102560	114.200000
3290.195600	69.800000
3291.288486	114.200000
3292.379751	96.800000
3293.472329	113.200000
3294.563287	108.200000
3295.652625	104.400000
3296.741810	81.000000
3297.832307	86.600000
3298.919721	75.000000
3300.006981	100.400000
3301.095554	80.600000
3302.183974	105.400000
3303.267848	69.600000
3304.355963	95.400000
3305.440996	73.600000
3306.524414	102.000000
3307.609144	86.400000
3308.692258	77.400000
3309.776684	66.400000
3310.858033	90.200000
3311.940693	79.600000
3313.021738	83.400000
3314.102633	84.400000
3315.181915	102.600000
3316.261046	70.000000
3317.341489	93.400000
3318.418857	92.200000
3319.497537	104.400000
3320.574605	91.600000
3321.651523	88.800000
3322.726831	111.600000
3323.801989	87.800000
3324.878458	77.800000
3325.951857	105.200000
3327.025106	93.000000
3328.099667	66.400000
3329.172619	60.800000
3330.243962	99.600000
3331.316616	73.200000
3332.386203	87.400000
3333.457101	77.800000
3334.526393	81.800000
3335.596994	68.800000
3336.665989	106.200000
3337.733379	84.400000
3338.799163	56.600000
3339.869173	76.800000
3340.936120	82.200000
3342.000005	64.600000
3343.066657	116.400000
3344.131706	96.800000
3345.195151	92.600000
3346.258450	77.400000
3347.321602	101.400000
3348.384608	82.400000
3349.447468	115.600000
3350.508725	82.200000
3351.566926	102.600000
3352.629348	75.000000
3353.688714	68.200000
3354.747934	65.800000
3355.808463	85.800000
3356.864484	89.200000
3357.923268	96.200000
3358.977545	66.400000
3360.034586	83.600000
3361.090028	84.000000
3362.146780	73.000000
3363.201933	84.800000
3364.255489	92.600000
3365.307448	91.000000
3366.362170	107.600000
3367.413842	78.800000
3368.465370	77.600000
3369.518208	79.600000
3370.567998	93.000000
3371.619097	111.200000
3372.667149	110.200000
3373.717962	76.200000
3374.765729	95.000000
3375.813354	84.400000
3376.860837	101.600000
3377.906727	48.200000
3378.953925	97.600000
3379.998080	62.000000
3381.044995	87.200000
3382.090317	76.400000
3383.132598	106.400000
3384.174738	75.600000
3385.218187	107.800000
3386.261494	80.600000
3387.303211	100.200000
3388.344788	106.200000
3389.386223	84.000000
3390.426070	56.800000
3391.464328	69.800000
3392.503894	68.600000
3393.543320	79.000000
3394.581158	96.200000
3395.617409	58.200000
3396.653520	57.800000
3397.690939	100.600000
3398.725325	51.200000
3399.761019	71.400000
3400.796573	80.200000
3401.829095	100.000000
3402.864371	45.800000
3403.896617	91.000000
3404.928723	70.200000
3405.959247	82.800000
3406.991077	79.800000
3408.022769	85.800000
3409.051433	62.800000
3410.079960	94.200000
3411.109793	93.800000
3412.139489	62.200000
3413.166159	81.200000
3414.194135	73.200000
3415.219087	65.200000
3416.246790	65.000000
3417.271468	76.200000
3418.297453	102.400000
3419.321859	73.000000
3420.346128	84.400000
3421.368818	82.800000
3422.391372	97.200000
3423.415232	98.600000
3424.436072	94.800000
3425.456776	77.400000
3426.478786	90.800000
3427.497778	56.400000
3428.516635	89.400000
3429.536798	78.200000
3430.553944	80.800000
