-118.155753	5.802747
-115.486152	7.441758
-112.819487	8.536963
-110.153575	9.176823
-107.490594	9.449800
-104.826183	9.444356
-102.164703	9.248951
-99.501794	6.748252
-96.843992	8.674126
-94.184759	9.808392
-91.526275	13.118881
-88.870716	12.672727
-86.213728	9.348252
-83.561837	8.002797
-80.908517	8.097902
-78.258117	6.980420
-75.606287	6.718881
-72.959548	4.759441
-70.311379	5.741259
-67.663954	4.667133
-65.019442	8.654545
-62.373501	12.461538
-59.732643	16.896503
-57.090354	17.165035
-54.450975	18.012587
-51.810167	16.011189
-49.170098	16.432168
-46.535103	11.562238
-43.898678	10.211189
-41.265157	4.696503
-38.630206	3.351049
-36.000322	1.219580
-33.366844	2.620979
-30.738429	6.090909
-28.110748	7.834965
-25.481639	11.737063
-22.857586	9.837762
-20.229944	0.927273
-17.607355	-25.288112
-14.985497	-12.300699
-12.364370	60.997203
-9.743974	171.170629
-7.126465	261.594406
-4.507528	322.116084
-1.891477	359.106294
0.723846	362.342657
3.338442	334.439161
5.950156	281.201399
8.563297	194.966434
11.171405	95.062937
13.783095	-5.711888
16.389754	-37.467133
18.997841	-23.924476
21.605204	3.567832
24.207542	8.264336
26.813458	10.432168
29.414353	14.331469
32.016675	11.994406
34.613979	12.606993
37.214859	15.763636
39.810725	14.850350
42.408018	11.872727
45.004592	11.567832
47.596157	12.383217
50.189150	15.432168
52.779282	18.867133
55.370842	20.311888
57.959542	19.187413
60.549670	18.358042
63.134798	15.706294
65.721354	13.517483
68.307195	13.046154
70.890183	9.597203
73.474598	4.151049
76.051883	1.651748
78.632735	2.163636
81.210738	6.015385
83.788031	8.323077
86.366750	12.535664
88.940488	14.219580
91.515652	16.369231
94.087973	16.668531
96.659587	17.282517
99.228360	19.187413
101.798560	21.128671
104.365921	18.724476
106.934709	18.511888
109.500659	19.718881
112.063775	17.309091
114.630448	16.871329
117.187898	15.441958
119.751034	13.718881
122.309211	14.353846
124.870942	10.346853
127.427716	12.135664
129.985916	13.579021
132.539164	20.676923
135.091713	26.832168
137.647814	39.756643
140.198966	48.486713
142.749420	53.811189
145.299178	62.268531
147.846116	67.412587
150.392358	73.634965
152.940027	78.057343
155.486999	76.572028
158.029035	76.942657
160.570378	76.759441
163.111029	75.969231
165.653104	72.413986
168.192369	71.615385
170.728824	67.097902
173.264589	61.730070
175.801779	62.440559
178.338277	61.243357
180.871971	58.186014
183.402860	58.566434
185.933061	55.997203
188.464687	57.601399
190.993513	59.043357
193.519539	55.734266
196.044879	57.088112
198.571644	54.823776
201.095613	53.535664
203.618896	55.469930
206.141495	61.034965
208.661301	66.439161
211.180424	68.552448
213.698864	70.332867
216.218728	70.562238
218.731591	74.000000
221.247985	70.313287
223.763698	70.208392
226.274520	71.467133
228.786767	65.393007
231.296231	65.379021
233.805017	64.141259
236.313125	66.027972
238.822657	66.082517
241.327308	64.490909
243.831283	62.026573
246.336682	61.875524
248.837206	62.255944
251.341253	61.679720
253.838330	66.055944
256.338929	68.232168
258.836757	71.770629
261.333912	74.893706
263.830394	74.725874
266.322014	79.076923
268.817152	74.406993
271.309525	72.629371
273.801227	71.885315
276.290166	71.351049
278.780528	70.671329
281.268129	69.229371
283.752970	69.741259
286.241325	70.541259
288.722742	72.591608
291.207672	69.569231
293.687756	67.104895
296.171353	66.190210
298.650108	60.332867
301.130285	57.516084
303.607711	59.749650
306.084473	60.889510
308.560571	62.847552
311.033921	68.359441
313.506610	78.139860
315.978637	85.833566
318.450002	91.037762
320.918624	90.716084
323.386586	94.311888
325.855971	94.239161
328.320533	91.869930
330.788598	87.005594
333.251844	87.827972
335.714433	84.169231
338.176364	79.401399
340.637639	77.497902
343.096180	80.334266
345.556143	81.176224
348.013374	76.682517
350.469950	77.251748
352.925871	79.455944
355.379064	77.692308
357.833679	79.303497
360.283492	77.200000
362.736801	81.881119
365.185311	79.393007
367.633171	77.651748
370.082452	76.258741
372.526940	80.293706
374.972850	80.965035
377.418111	77.587413
379.860653	79.640559
382.302547	76.366434
384.743793	72.481119
387.182324	70.155245
389.622277	69.809790
392.059516	72.643357
394.494043	71.759441
396.932058	74.521678
399.365296	77.419580
401.799956	79.345455
404.229843	80.889510
406.663215	84.379021
409.091816	84.181818
411.519777	82.523077
413.949158	80.440559
416.373775	81.404196
418.799812	82.629371
421.225210	82.981818
423.649967	84.489510
426.069965	86.535664
428.491385	85.318881
430.910108	82.560839
433.330252	81.844755
435.747701	85.198601
438.166570	82.317483
440.582746	83.962238
442.994175	88.025175
445.409080	87.951049
447.821295	87.276923
450.232876	88.318881
452.643823	89.204196
455.052084	88.320280
457.459713	83.097902
459.866709	82.295105
462.273073	80.710490
464.676756	81.833566
467.079808	77.711888
469.482230	78.418182
471.884022	81.082517
474.283136	76.078322
476.683670	74.218182
479.083575	70.176224
481.478757	72.272727
483.877406	72.011189
486.271335	69.871329
488.664638	72.082517
491.057315	68.025175
493.449367	67.433566
495.842838	66.356643
498.231596	65.976224
500.617688	64.078322
503.005200	60.250350
505.392088	56.218182
507.776313	54.303497
510.161957	56.188811
512.544938	53.313287
514.925259	49.413986
517.306999	47.897902
519.686080	45.346853
522.066580	48.332867
524.444422	49.391608
526.819609	51.805594
529.194178	54.239161
531.570166	57.939860
533.943500	56.020979
536.318253	56.801399
538.688319	56.511888
541.057770	55.061538
543.428640	53.815385
545.794828	51.292308
548.162435	52.537063
550.527396	52.170629
552.891744	49.981818
555.255480	55.601399
557.620633	57.951049
559.981114	57.247552
562.343012	51.289510
564.702271	51.860140
567.058891	54.142657
569.418957	56.949650
571.772331	55.057343
574.129150	51.994406
576.483334	53.798601
578.836909	52.857343
581.189876	52.655944
583.540212	57.069930
585.891964	54.531469
588.237040	51.117483
590.587580	44.574825
592.931447	46.446154
595.280775	47.419580
597.625454	47.777622
599.967509	45.148252
602.310981	46.160839
604.651830	48.006993
606.992076	53.535664
609.329702	57.128671
611.670763	59.597203
614.007187	56.239161
616.345027	52.335664
618.680249	46.976224
621.012856	46.525874
623.346880	42.724476
625.678289	40.085315
628.009100	40.211189
630.339313	43.916084
632.668929	45.176224
634.993921	51.443357
637.324355	52.135664
639.650167	52.362238
641.973373	52.218182
644.297995	50.075524
646.620011	47.793007
648.941433	47.061538
651.260252	44.520280
653.580487	42.311888
655.900129	43.149650
658.217170	41.949650
660.533620	40.461538
662.847471	39.521678
665.162737	38.851748
667.475407	39.351049
669.789492	40.959441
672.098978	40.990210
674.409878	43.790210
676.718186	45.146853
679.025906	46.057343
681.335041	45.187413
683.639583	45.611189
685.943539	45.300699
688.246908	45.774825
690.551692	41.735664
692.851890	39.048951
695.153503	37.586014
697.454530	36.395804
699.750976	38.450350
702.048836	40.204196
704.346114	38.419580
706.642807	43.061538
708.934925	44.644755
711.230454	44.462937
713.521410	48.292308
715.813780	47.794406
718.103574	46.102098
720.392789	43.938462
722.681423	43.090909
724.967486	42.151049
727.254962	44.627972
729.539868	44.208392
731.824195	43.930070
734.105955	46.095105
736.389128	42.089510
738.671724	41.759441
740.949764	43.406993
743.229218	39.085315
745.508097	34.744056
747.786400	27.605594
750.060154	24.225175
752.335322	27.144056
754.609916	31.927273
756.881951	34.200000
759.155399	36.995804
761.426289	40.269930
763.694622	41.405594
765.964370	49.295105
768.231562	49.506294
770.498184	47.503497
772.764237	44.380420
775.027738	42.127273
777.292651	45.306294
779.556996	51.718881
781.816810	52.216783
784.078038	49.534266
786.338698	49.068531
788.596811	46.576224
790.852380	44.303497
793.111340	42.766434
795.363801	38.446154
797.621629	39.337063
799.874938	40.713287
802.125706	42.296503
804.377887	46.521678
806.627530	49.879720
808.878584	50.088112
811.125127	49.967832
813.373083	51.383217
815.618503	49.804196
817.865336	45.900699
820.111606	43.745455
822.353373	42.320280
824.598522	42.162238
826.837199	38.165035
829.079259	37.346853
831.316820	41.223776
833.555792	42.255944
835.792238	44.746853
838.030096	48.653147
840.265428	46.826573
842.498236	45.434965
844.732456	42.257343
846.964154	41.640559
849.195297	37.889510
851.425885	33.679720
853.655919	29.681119
855.885398	28.514685
858.110397	27.779021
860.338769	25.611189
862.562663	27.521678
864.787967	32.555245
867.008796	36.647552
869.232997	42.197203
871.452725	47.342657
873.673864	51.444755
875.894452	53.307692
878.112531	52.433566
880.332019	49.328671
882.547041	43.187413
884.761515	37.426573
886.975442	35.121678
889.188821	35.044755
891.401654	42.184615
893.613939	43.499301
895.823723	44.053147
898.032961	47.239161
900.241653	50.454545
902.447847	50.769231
904.655450	49.967832
906.860556	49.479720
909.065118	46.137063
911.267185	43.925874
913.470661	45.721678
915.671643	41.004196
917.872083	42.622378
920.073932	36.011189
922.269390	37.373427
924.468206	37.279720
926.662585	40.304895
928.860321	38.514685
931.053621	39.253147
933.248329	43.279720
935.440552	43.826573
937.632237	43.067133
939.823384	44.220979
942.012048	40.580420
944.200175	40.102098
946.385822	40.885315
948.574821	43.895105
950.759397	44.753846
952.943438	45.998601
955.130829	41.751049
957.309917	41.591608
959.492354	44.826573
961.674258	43.422378
963.853688	43.327273
966.030645	43.532867
968.209010	42.447552
970.388781	40.542657
972.562204	44.446154
974.738973	45.882517
976.911336	48.471329
979.085106	50.169231
981.254472	48.998601
983.427182	47.692308
985.597426	48.883916
987.767142	49.993007
989.936329	49.815385
992.101119	48.780420
994.269251	48.120280
996.432987	47.032168
998.598131	50.502098
1000.760815	50.344056
1002.922974	53.667133
1005.082675	57.106294
1007.241853	56.692308
1009.402437	53.867133
1011.560566	53.048951
1013.718171	52.608392
1015.875253	51.328671
1018.031812	53.005594
1020.183991	53.208392
1022.337577	51.373427
1024.490640	55.633566
1026.641256	54.662937
1028.793277	54.040559
1030.940925	53.660140
1033.091905	53.678322
1035.238515	51.346853
1037.384605	52.046154
1039.530177	54.609790
1041.677153	57.331469
1043.817842	60.718881
1045.961859	62.844755
1048.103437	61.751049
1050.244497	63.965035
1052.386962	60.008392
1054.523148	56.738462
1056.662660	57.427972
1058.797816	56.945455
1060.936297	54.917483
1063.070425	57.155245
1065.204039	60.779021
1067.339057	58.422378
1069.469726	58.100699
1071.601801	57.018182
1073.731445	55.267133
1075.860578	54.674126
1077.989200	52.370629
1080.117310	57.693706
1082.242994	60.248951
1084.368168	58.004196
1086.494745	57.088112
1088.616986	54.346853
1090.740631	54.994406
1092.859941	48.994406
1094.984480	44.777622
1097.102775	43.969231
1099.222473	40.338462
1101.339753	40.521678
1103.456527	43.267133
1105.572794	49.430769
1107.686646	47.225175
1109.801901	47.244755
1111.912834	49.467133
1114.027078	48.247552
1116.137003	52.165035
1118.248330	51.907692
1120.359154	51.737063
1122.465661	52.857343
1124.575477	51.131469
1126.680979	51.709091
1128.787885	53.829371
1130.888574	51.137063
1132.994476	49.489510
1135.096069	54.029371
1137.199065	55.829371
1139.301560	55.580420
1141.397849	59.121678
1143.499344	59.678322
1145.596537	62.395804
1147.693231	61.314685
1149.789428	58.419580
1151.885126	55.085315
1153.980327	53.990210
1156.073131	48.264336
1158.167337	48.732867
1160.255352	47.138462
1162.348565	43.952448
1164.435590	43.876923
1166.525915	43.962238
1168.611951	42.159441
1170.701285	43.411189
1172.784438	45.411189
1174.868994	45.330070
1176.954950	46.130070
1179.036625	47.335664
1181.119702	47.241958
1183.200393	48.843357
1185.280593	47.633566
1187.360301	47.895105
1189.439518	46.703497
1191.516352	44.418182
1193.590806	45.805594
1195.668552	45.160839
1197.742027	49.255944
1199.816904	45.858741
1201.887513	45.362238
1203.959523	46.148252
1206.029157	47.320280
1208.100192	46.183217
1210.170739	44.882517
1212.237025	41.520280
1214.304712	40.765035
1216.370027	37.685315
1218.436742	39.229371
1220.499201	39.058741
1222.564946	39.114685
1224.626436	37.829371
1226.689326	41.874126
1228.749849	45.597203
1230.809889	49.211189
1232.869445	48.309091
1234.926637	50.742657
1236.983346	48.317483
1239.037693	48.921678
1241.095320	46.272727
1243.150585	50.218182
1245.201609	51.398601
1247.254033	52.600000
1249.305978	51.222378
1251.355564	51.625175
1253.404671	48.412587
1255.453299	48.886713
1257.501449	44.255944
1259.549121	45.503497
1261.592562	43.482517
1263.639278	45.097902
1265.683642	48.584615
1267.727528	55.058741
1269.769064	56.759441
1271.808250	58.467133
1273.850708	56.074126
1275.888945	52.166434
1277.928579	50.857343
1279.967739	54.497902
1282.002681	52.239161
1284.039021	54.921678
1286.073016	55.725874
1288.108410	55.871329
1290.139590	56.910490
1292.172169	56.748252
1294.204275	54.111888
1296.234041	54.356643
1298.265205	54.355245
1300.292161	53.246154
1302.320515	55.492308
1304.344665	59.206993
1306.372080	62.299301
1308.395292	65.041958
1310.419902	63.430769
1312.442177	67.745455
1314.465850	69.692308
1316.487190	73.758042
1318.508063	76.892308
1320.528468	82.672727
1322.544679	87.660140
1324.562289	92.226573
1326.577570	90.948252
1328.596110	92.104895
1330.610460	93.591608
1332.622485	92.528671
1334.637768	87.121678
1336.648865	89.879720
1338.661358	86.777622
1340.669669	86.935664
1342.681236	82.029371
1344.686764	79.829371
1346.695546	79.711888
1348.700152	74.000000
1350.708011	68.683916
1352.715407	67.184615
1354.716773	67.860140
1356.719536	65.223776
1358.721839	60.552448
1360.723681	59.811189
1362.725065	57.885315
1364.724134	56.646154
1366.722745	54.800000
1368.720898	53.979021
1370.718593	55.813986
1372.712124	55.830769
1374.707052	57.275524
1376.701523	56.703497
1378.695537	61.979021
1380.687244	61.682517
1382.678495	59.043357
1384.667441	57.244755
1386.657782	54.409790
1388.647668	52.535664
1390.635251	51.212587
1392.622380	52.058741
1394.607207	55.313287
1396.593429	55.742657
1398.577350	54.176224
1400.560819	56.809790
1402.543836	61.406993
1404.524555	61.348252
1406.506668	58.932867
1408.486484	57.244755
1410.465850	53.850350
1412.441077	52.408392
1414.419542	47.386014
1416.395714	47.686713
1418.371436	44.574825
1420.346709	44.118881
1422.319691	44.360839
1424.292226	43.723077
1426.264312	44.376224
1428.235950	45.314685
1430.203461	48.050350
1432.176045	46.240559
1434.140823	46.387413
1436.110674	47.015385
1438.076400	46.044755
1440.043520	45.837762
1442.008356	43.896503
1443.969072	45.413986
1445.934856	43.907692
1447.894685	46.082517
1449.855907	50.355245
1451.818522	51.352448
1453.777022	53.618182
1455.735080	48.819580
1457.692695	53.987413
1459.649869	55.278322
1461.604767	54.572028
1463.561057	51.201399
1465.515073	47.616783
1467.468649	47.004196
1469.419952	48.162238
1471.372647	48.913287
1473.323071	51.071329
1475.273056	47.871329
1477.222601	42.367832
1479.169878	39.022378
1481.114888	42.660140
1483.061290	42.637762
1485.007254	43.026573
1486.952780	44.637762
1488.896042	45.404196
1490.838867	45.692308
1492.779429	48.412587
1494.721382	51.365035
1496.661074	54.881119
1498.600330	50.135664
1500.539152	48.246154
1502.475714	46.117483
1504.413666	44.152448
1506.349361	44.339860
1508.284622	46.324476
1510.217626	47.233566
1512.150198	45.391608
1514.082338	44.400000
1516.014046	47.801399
1517.943501	51.464336
1519.874345	51.337063
1521.804759	52.861538
1523.731100	56.324476
1525.658831	54.858741
1527.584312	53.335664
1529.509364	52.331469
1531.433987	50.973427
1533.358181	48.546853
1535.280128	51.674126
1537.203464	52.932867
1539.124555	53.960839
1541.043401	54.275524
1542.963637	56.758042
1544.881629	60.832168
1546.799195	62.707692
1548.714519	65.132867
1550.631233	64.962238
1552.543892	63.765035
1554.459755	60.123077
1556.373379	65.011189
1558.284764	68.514685
1560.197538	67.097902
1562.106263	71.144056
1564.016378	72.107692
1565.926069	75.117483
1567.835336	74.023776
1569.742370	68.686713
1571.647171	68.363636
1573.553361	69.113287
1575.457319	68.118881
1577.360857	65.272727
1579.263973	66.951049
1581.164861	61.953846
1583.067137	62.174825
1584.967184	64.751049
1586.868620	63.110490
1588.766021	57.579021
1590.663005	55.268531
1592.559570	51.811189
1594.457522	52.107692
1596.349640	53.865734
1598.244952	56.288112
1600.139845	58.579021
1602.032517	58.268531
1603.924773	59.595804
1605.814809	59.882517
1607.704429	58.481119
1609.593634	56.209790
1611.482423	53.731469
1613.368996	53.448951
1615.256955	51.307692
1617.140899	47.537063
1619.026229	46.005594
1620.911146	49.321678
1622.793849	51.927273
1624.677938	50.727273
1626.558017	52.046154
1628.439482	50.872727
1630.318737	50.447552
1632.199378	48.479720
1634.074215	46.040559
1635.954034	39.953846
1637.829847	35.965035
1639.705251	32.083916
1641.582040	33.411189
1643.453032	35.685315
1645.327206	37.797203
1647.197382	37.509091
1649.070738	38.883916
1650.941891	45.213986
1652.810842	42.061538
1654.681179	41.290909
1656.547522	37.951049
1658.415252	35.286713
1660.280782	32.078322
1662.147697	31.344056
1664.010624	33.523077
1665.874936	35.780420
1667.737053	36.349650
1669.598764	38.194406
1671.461860	42.643357
1673.322762	47.567832
1675.181470	47.055944
1677.039775	48.156643
1678.899465	46.360839
1680.753388	46.204196
1682.610483	40.662937
1684.467176	37.050350
1686.319893	35.752448
1688.175781	34.065734
1690.027695	36.600000
1691.879208	41.580420
1693.730320	44.804196
1695.581031	46.662937
1697.431342	50.675524
1699.279469	48.921678
1701.128979	49.086713
1702.972741	48.090909
1704.821453	42.972028
1706.664418	40.413986
1708.510549	38.773427
1710.352719	37.332867
1712.198053	38.342657
1714.037647	36.450350
1715.878625	35.834965
1717.720986	36.619580
1719.559391	39.075524
1721.399179	38.372028
1723.236792	39.552448
1725.074009	41.779021
1726.909053	42.885315
1728.745480	42.581818
1730.579735	41.051748
1732.413596	42.184615
1734.247062	39.034965
1736.076582	34.948252
1737.909261	35.481119
1739.737996	36.306294
1741.569889	40.104895
1743.397839	39.360839
1745.225397	41.655944
1747.052564	43.295105
1748.879338	44.162238
1750.705722	41.906294
1752.528169	40.367832
1754.353770	45.904895
1756.175437	46.695105
1757.998486	42.902098
1759.819374	48.756643
1761.639872	48.944056
1763.461752	50.834965
1765.277932	48.386014
1767.097264	45.444755
1768.912669	43.374825
1770.731225	39.862937
1772.545855	39.365035
1774.360098	37.762238
1776.173955	43.469930
1777.987425	43.548252
1779.798741	43.569231
1781.611439	46.043357
1783.423750	40.591608
1785.232144	41.254545
1787.041919	36.833566
1788.847778	32.244755
1790.656784	33.658741
1792.461876	32.230769
1794.268348	35.455944
1796.074437	34.576224
1797.876616	35.637762
1799.681938	35.886713
1801.483352	39.587413
1803.286146	41.753846
1805.085035	41.675524
1806.885303	46.895105
1808.685191	45.005594
1810.482936	44.327273
1812.280301	42.758042
1814.077285	39.853147
1815.873889	38.598601
1817.668354	34.118881
1819.464199	34.365035
1821.254388	37.006993
1823.049474	39.223776
1824.838907	40.356643
1826.631478	39.183217
1828.421913	38.223776
1830.210213	35.432168
1832.001649	33.036364
1833.787440	30.351049
1835.574609	31.460140
1837.359647	32.966434
1839.147819	34.033566
1840.932105	40.584615
1842.714262	44.255944
1844.497797	42.646154
1846.279205	42.362238
1848.061990	40.668531
1849.840896	41.009790
1851.621180	40.281119
1853.399339	35.230769
1855.178875	34.583217
1856.956287	35.900699
1858.731575	35.593007
1860.508242	38.265734
1862.282786	40.952448
1864.058707	37.899301
1865.829009	37.330070
1867.602438	40.471329
1869.373747	38.769231
1871.144685	38.334266
1872.917000	34.302098
1874.683703	32.285315
1876.453530	34.432168
1878.219494	33.469930
1879.988582	33.011189
1881.753808	36.727273
1883.518666	36.216783
1885.284900	35.934266
1887.047276	39.818182
1888.809285	44.279720
1890.570927	42.200000
1892.332201	42.976224
1894.093109	43.560839
1895.853649	43.865734
1897.612080	41.753846
1899.370146	41.372028
1901.126104	39.058741
1902.883438	38.278322
1904.640406	37.538462
1906.395269	39.448951
1908.148026	41.601399
1909.900420	45.728671
1911.654190	43.367832
1913.405856	45.546853
1915.155419	46.641958
1916.906359	45.058741
1918.656935	45.790210
1920.403673	45.427972
1922.151786	39.981818
1923.897800	39.356643
1925.645190	41.072727
1927.390481	41.662937
1929.133675	42.241958
1930.878245	38.503497
1932.620718	38.566434
1934.362831	38.941259
1936.104585	37.453846
1937.845978	34.144056
1939.585278	34.940559
1941.324219	32.306294
1943.062801	31.477622
1944.799291	32.090909
1946.535424	34.315385
1948.272931	36.967832
1950.006617	39.439860
1951.741677	40.208392
1953.474648	39.709790
1955.207263	34.532867
1956.939521	33.932168
1958.671423	34.774825
1960.401239	34.700699
1962.128971	33.043357
1963.858077	33.405594
1965.586827	33.351049
1967.313494	37.065734
1969.039807	40.034965
1970.767493	46.146853
1972.489643	45.426573
1974.214895	42.993007
1975.936339	41.983217
1977.660883	42.444755
1979.383348	39.958042
1981.102009	34.640559
1982.823769	31.973427
1984.541727	26.448951
1986.261059	27.440559
1987.976590	29.707692
1989.696943	32.867133
1991.413496	37.181818
1993.126254	34.808392
1994.842107	36.521678
1996.555888	38.111888
1998.269318	37.634965
1999.980678	34.082517
2001.693411	32.369231
2003.402352	34.415385
2005.114387	29.825175
2006.820912	31.250350
2008.530530	32.304895
2010.238080	35.334266
2011.945283	35.745455
2013.650420	35.721678
2015.355210	35.033566
2017.061372	38.344056
2018.763752	37.344056
2020.467504	35.615385
2022.169193	35.267133
2023.870536	38.355245
2025.571534	37.047552
2027.270472	38.409790
2028.970781	41.988811
2030.667314	43.699301
2032.365219	43.871329
2034.061066	43.618182
2035.759998	44.304895
2037.453444	46.895105
2039.148261	45.805594
2040.842735	43.085315
2042.533441	38.566434
2044.227231	37.269930
2045.917254	36.069930
2047.608648	37.408392
2049.297989	37.674126
2050.988700	36.625175
2052.675649	36.987413
2054.362257	34.685315
2056.050236	36.837762
2057.734455	37.018182
2059.420044	37.173427
2061.105294	38.012587
2062.788496	36.717483
2064.473068	36.479720
2066.152176	41.937063
2067.836070	43.932867
2069.514504	47.353846
2071.196015	49.288112
2072.873774	49.689510
2074.551197	44.772028
2076.229989	46.888112
2077.906738	42.402797
2079.581446	43.183217
2081.257523	43.850350
2082.931560	42.834965
2084.605261	41.267133
2086.278627	44.016783
2087.949955	40.563636
2089.620948	37.994406
2091.291607	35.218182
2092.961932	36.149650
2094.631922	33.563636
2096.299877	37.443357
2097.967499	34.584615
2099.633087	40.808392
2101.300043	40.923077
2102.964966	43.355245
2104.629556	44.516084
2106.292115	47.846154
2107.956043	45.236364
2109.617939	42.647552
2111.279504	41.826573
2112.940739	45.011189
2114.599944	40.875524
2116.258820	40.963636
2117.917365	38.895105
2119.575581	39.174825
2121.230074	37.552448
2122.887631	37.650350
2124.544858	35.328671
2126.198365	36.843357
2127.853239	34.504895
2129.504394	37.268531
2131.158612	36.629371
2132.809112	37.739860
2134.460980	38.202797
2136.107439	42.910490
2137.758652	42.400000
2139.406153	43.580420
2141.055020	43.637762
2142.701868	44.462937
2144.348391	43.665734
2145.994588	42.983217
2147.637076	39.955245
2149.282623	39.018182
2150.924463	34.625175
2152.569360	34.450350
2154.210552	39.827972
2155.851420	42.264336
2157.491965	41.855944
2159.130497	42.381818
2160.770395	43.200000
2162.406593	46.632168
2164.044157	46.197203
2165.681399	46.492308
2167.316631	46.476923
2168.951541	44.903497
2170.586130	43.591608
2172.220398	45.037762
2173.850972	44.531469
2175.484597	42.581818
2177.114531	41.278322
2178.745830	40.095105
2180.375125	39.690909
2182.004099	36.518881
2183.632755	34.865734
2185.261091	38.229371
2186.887424	38.450350
2188.513439	38.485315
2190.137453	35.411189
2191.762832	36.566434
2193.386210	34.476923
2195.010953	32.076923
2196.632014	32.490909
2198.252760	36.005594
2199.874869	32.813986
2201.494981	31.302098
2203.113097	32.062937
2204.730897	35.600000
2206.348381	36.181818
2207.965550	39.524476
2209.582404	39.865734
2211.198943	41.408392
2212.813488	42.123077
2214.426042	38.745455
2216.039959	42.490909
2217.651884	46.153846
2219.265174	42.379021
2220.876472	43.339860
2222.485782	41.355245
2224.096454	40.586014
2225.705138	37.590210
2227.313510	39.765035
2228.919894	35.904895
2230.527642	31.844755
2232.133403	33.714685
2233.738853	30.749650
2235.342319	38.630769
2236.947147	41.453147
2238.549991	43.237762
2240.150852	44.387413
2241.753076	43.296503
2243.353317	41.963636
2244.954922	39.916084
2246.552873	39.868531
2248.152187	36.682517
2249.749521	36.640559
2251.346547	33.404196
2252.944934	34.409790
2254.539673	40.609790
2256.132436	41.311888
2257.726560	42.264336
2259.322046	39.925874
2260.913888	35.827972
2262.505423	34.111888
2264.098319	32.932867
2265.685906	32.236364
2267.278190	33.723077
2268.865166	34.381818
2270.455171	33.616783
2272.039871	39.006993
2273.629265	41.492308
2275.213356	42.988811
2276.798809	41.367832
2278.382293	39.711888
2279.968802	32.795804
2281.551678	32.223776
2283.134250	31.007692
2284.716520	32.018182
2286.295159	32.109790
2287.876822	32.612587
2289.454858	33.757343
2291.035916	34.258741
2292.613347	35.494406
2294.188815	34.075524
2295.767305	32.004895
2297.342170	35.155245
2298.916735	32.820280
2300.491000	35.648951
2302.064964	35.813287
2303.638628	37.321678
2305.211991	36.700699
2306.781736	34.253147
2308.351182	35.577622
2309.923647	39.124476
2311.490837	38.338462
2313.061044	38.184615
2314.627637	42.897902
2316.195590	47.509091
2317.761588	45.916084
2319.327288	45.078322
2320.892690	44.453147
2322.456139	45.769231
2324.020947	44.504895
2325.582146	44.296503
2327.146360	45.977622
2328.705313	48.848951
2330.267279	46.696503
2331.827295	47.016783
2333.387015	46.654545
2334.944786	45.702098
2336.502263	44.593007
2338.059444	40.702098
2339.614679	39.675524
2341.169619	39.630769
2342.724266	40.804196
2344.278619	42.002797
2345.832678	41.002797
2347.386444	42.283916
2348.938265	39.051748
2350.488143	41.460140
2352.041029	39.188811
2353.588673	44.013986
2355.139324	43.598601
2356.686385	39.099301
2358.234803	41.155245
2359.782929	40.297902
2361.327468	42.700699
2362.873364	41.858741
2364.417321	40.746853
2365.962636	38.100699
2367.504366	36.264336
2369.047454	39.558042
2370.588605	39.083916
2372.129467	43.081119
2373.670040	42.096503
2375.210324	42.037762
2376.750319	44.588811
2378.286735	42.865734
2379.826153	43.632168
2381.361994	39.450350
2382.899191	36.439161
2384.432814	32.352448
2385.969436	30.384615
2387.504127	30.916084
2389.036889	35.081119
2390.569365	35.167832
2392.099912	36.058741
2393.633457	38.773427
2395.161791	38.907692
2396.691481	40.271329
2398.220886	37.746853
2399.750006	36.911888
2401.278840	35.658741
2402.802470	32.731469
2404.330735	35.579021
2405.853797	36.641958
2407.381494	39.265734
2408.902350	37.159441
2410.427840	39.208392
2411.949770	41.606993
2413.473054	42.123077
2414.994418	44.149650
2416.513862	44.809790
2418.034661	46.665734
2419.553541	48.047552
2421.072139	48.402797
2422.588820	50.440559
2424.106856	48.337063
2425.624610	47.864336
2427.138812	44.169231
2428.652734	44.808392
2430.166377	42.334266
2431.681373	38.193007
2433.192821	34.998601
2434.705624	33.549650
2436.216514	31.819580
2437.727124	34.267133
2439.235823	31.426573
2440.747509	30.478322
2442.255651	33.690909
2443.763514	37.618182
2445.271100	40.286713
2446.775146	45.369231
2448.282176	45.549650
2449.787298	48.869930
2451.292143	51.990210
2452.795081	51.990210
2454.297742	51.471329
2455.800127	49.072727
2457.300607	41.600000
2458.802440	40.004196
2460.302369	43.643357
2461.802022	41.402797
2463.301400	36.714685
2464.798875	34.269930
2466.294448	34.009790
2467.793001	34.116084
2469.288026	32.883916
2470.784403	31.766434
2472.277254	29.179021
2473.771457	29.651748
2475.265387	31.788811
2476.755794	37.187413
2478.249178	39.969231
2479.740663	38.173427
2481.230252	38.408392
2482.719570	41.310490
2484.206991	39.973427
2485.697388	38.823776
2487.184266	41.369231
2488.672496	41.188811
2490.157210	40.332867
2491.641653	43.595804
2493.127448	46.415385
2494.611350	48.283916
2496.096604	48.826573
2497.576724	49.840559
2499.059816	50.482517
2500.541018	51.331469
2502.021951	46.453147
2503.500995	43.261538
2504.979771	41.500699
2506.458278	39.811189
2507.936516	40.490909
2509.414486	37.090909
2510.888952	37.661538
2512.366386	39.965035
2513.840317	41.507692
2515.315599	44.669930
2516.790613	48.383217
2518.262126	50.969231
2519.734990	47.405594
2521.205971	44.809790
2522.678301	46.934266
2524.145519	47.739860
2525.615703	44.721678
2527.084005	36.387413
2528.552043	35.766434
2530.019816	35.422378
2531.487324	34.597203
2532.954567	35.206993
2534.418319	35.710490
2535.883420	32.692308
2537.346644	32.346853
2538.811217	33.981818
2540.272301	37.793007
2541.734736	36.219580
2543.196907	37.767832
2544.655591	36.299301
2546.118848	39.895105
2547.577008	39.741259
2549.036517	39.278322
2550.490933	38.765035
2551.949919	37.520280
2553.407032	32.116084
2554.862275	32.030769
2556.317257	30.166434
2557.770369	32.430769
2559.224830	31.100699
2560.677422	34.000000
2562.129754	34.924476
2563.580218	36.605594
2565.033638	36.970629
2566.481976	39.204196
2567.933270	40.047552
2569.382697	39.549650
2570.828653	37.860140
2572.277563	39.272727
2573.723002	39.590210
2575.169790	42.525874
2576.614714	44.987413
2578.059381	45.100699
2579.505395	46.116084
2580.947942	48.446154
2582.391837	47.429371
2583.832267	52.678322
2585.274045	50.594406
2586.713963	49.686713
2588.155228	48.307692
2589.593031	47.899301
2591.033784	46.597203
2592.469474	46.995804
2593.908114	40.163636
2595.344897	36.916084
2596.779823	35.927273
2598.217698	42.102098
2599.650515	44.155245
2601.084679	50.395804
2602.516988	49.181818
2603.950644	46.997203
2605.382447	47.584615
2606.813997	46.476923
2608.245293	45.169231
2609.674738	41.142657
2611.103930	33.100699
2612.531271	35.057343
2613.959959	34.138462
2615.388394	35.674126
2616.813383	35.762238
2618.239717	36.874126
2619.664203	37.783217
2621.090035	36.671329
2622.512423	37.324476
2623.936157	41.629371
2625.358045	43.721678
2626.779682	44.230769
2628.199474	46.377622
2629.620612	48.641958
2631.041500	47.046154
2632.458950	45.524476
2633.879339	44.920280
2635.296291	45.464336
2636.712995	43.062937
2638.129450	40.026573
2639.545657	40.516084
2640.961615	44.166434
2642.375733	42.646154
2643.789604	44.697902
2645.201635	49.325874
2646.615011	49.872727
2648.024957	50.251748
2649.437839	53.240559
2650.847292	53.244755
2652.256499	54.686713
2653.663870	53.695105
2655.074175	50.281119
2656.482644	51.064336
2657.889278	51.100699
2659.295667	49.830769
2660.700222	51.786014
2662.106121	54.829371
2663.510187	53.072727
2664.914009	50.535664
2666.317586	50.078322
2667.719331	49.068531
2669.122420	47.155245
2670.522092	47.625175
2671.923107	44.760839
2673.320705	47.738462
2674.721234	47.735664
2676.118348	48.801399
2677.516805	48.436364
2678.913434	48.362238
2680.309822	46.601399
2681.705967	44.205594
2683.100286	43.434965
2684.495948	44.037762
2685.888200	42.511888
2687.281796	43.538462
2688.673567	43.342657
2690.066680	42.117483
2691.457970	41.830769
2692.847437	43.762238
2694.236665	42.513287
2695.625652	45.300699
2697.015982	47.191608
2698.401327	52.015385
2699.789597	48.690909
2701.176046	49.669930
2702.562256	49.858741
2703.948227	46.938462
2705.330800	45.029371
2706.714714	41.839161
2708.098391	42.511888
2709.481830	40.310490
2710.861873	41.297902
2712.243258	41.288112
2713.622827	42.962238
2715.003738	41.075524
2716.382834	35.549650
2717.760115	37.510490
2719.138738	38.100699
2720.515548	36.439161
2721.892122	35.837762
2723.268460	33.899301
2724.642986	31.748252
2726.018853	31.346853
2727.391333	33.718881
2728.766730	32.601399
2730.137165	35.959441
2731.508942	34.170629
2732.880485	39.651748
2734.250219	42.233566
2735.621293	42.988811
2736.990560	39.969231
2738.359593	37.941259
2739.726819	34.402797
2741.093813	32.352448
2742.460574	33.900699
2743.827102	34.991608
2745.191826	35.436364
2746.556317	40.139860
2747.920576	43.840559
2749.284604	51.356643
2750.648399	51.244755
2752.008821	51.858741
2753.372154	47.474126
2754.730544	45.685315
2756.091844	42.566434
2757.449773	39.857343
2758.810612	37.200000
2760.169650	35.965035
2761.525320	37.696503
2762.883899	36.153846
2764.239110	32.864336
2765.594092	33.127273
2766.947277	31.450350
2768.303369	32.637762
2769.656097	28.580420
2771.008596	28.907692
2772.360867	28.250350
2773.714477	30.433566
2775.064725	33.282517
2776.413180	38.072727
2777.764539	40.390210
2779.112539	38.153846
2780.461878	35.412587
2781.809424	35.602797
2783.156743	36.744056
2784.503836	35.647552
2785.849138	32.142657
2787.194214	31.483916
2788.539064	30.454545
2789.883688	35.523077
2791.224959	38.314685
2792.567569	41.990210
2793.909954	40.843357
2795.252113	41.709091
2796.590923	41.254545
2797.932633	40.130070
2799.270994	36.074126
2800.610693	35.041958
2801.948606	33.841958
2803.284735	33.647552
2804.620641	37.655944
2805.957883	41.247552
2807.293342	42.172028
2808.628578	42.595804
2809.962032	40.254545
2811.296822	43.566434
2812.628271	44.013986
2813.962616	36.566434
2815.292063	30.044755
2816.622847	33.809790
2817.953409	35.248951
2819.282192	35.496503
2820.612312	35.851748
2821.940652	33.889510
2823.268772	34.170629
2824.595115	37.295105
2825.922793	35.734266
2827.247139	39.397203
2828.572820	39.643357
2829.896727	36.644755
2831.220413	37.728671
2832.545435	41.351049
2833.867128	41.511888
2835.188601	39.384615
2836.509856	37.945455
2837.830892	37.299301
2839.150156	35.865734
2840.470755	36.002797
2841.789582	32.895105
2843.108191	34.760839
2844.425030	36.811189
2845.741651	38.132867
2847.058054	36.268531
2848.372689	39.341259
2849.688658	38.567832
2851.001307	37.864336
2852.315292	35.510490
2853.629060	37.002797
2854.942611	35.833566
2856.254395	35.314685
2857.564414	37.833566
2858.875767	38.293706
2860.183804	39.288112
2861.493177	39.756643
2862.802334	38.360839
2864.111276	36.879720
2865.418455	32.798601
2866.723870	31.302098
2868.030620	29.865734
2869.335607	33.720280
2870.640381	33.316084
2871.943393	32.057343
2873.249287	34.103497
2874.550326	34.030769
2875.852698	36.836364
2877.153311	39.286713
2878.455258	38.779021
2879.756992	37.183217
2881.055422	37.226573
2882.355185	39.597203
2883.653191	37.356643
2884.950985	38.518881
2886.247022	39.026573
2887.544393	34.318881
2888.840008	31.352448
2890.135413	30.620979
2891.430606	30.573427
2892.722501	30.625175
2894.017273	29.514685
2895.308749	32.562238
2896.601557	36.689510
2897.894155	43.460140
2899.183458	45.745455
2900.474094	48.002797
2901.762980	49.446154
2903.053197	47.230769
2904.340123	45.176224
2905.628381	43.816783
2906.914890	41.386014
2908.201190	39.282517
2909.487282	35.942657
2910.771626	33.650350
2912.058842	31.759441
2913.341231	33.383217
2914.624952	28.676923
2915.906926	27.397203
2917.188694	30.671329
2918.468716	33.702098
2919.751608	34.033566
2921.032755	41.137063
2922.310620	44.820979
2923.591354	47.047552
2924.868807	46.128671
2926.146055	41.725874
2927.421560	39.588811
2928.699933	39.639161
2929.973491	34.251748
2931.249917	32.493706
2932.524602	30.300699
2933.797547	24.755245
2935.071822	22.616783
2936.344358	28.876923
2937.616690	28.914685
2938.885749	31.991608
2940.157673	31.430769
2941.427859	31.676923
2942.697841	34.106294
2943.967620	35.113287
2945.235662	37.408392
2946.501969	38.290909
2947.768073	34.625175
2949.035508	30.030769
2950.301207	28.923077
2951.566704	30.562238
2952.831999	30.155245
2954.094030	29.286713
2955.357390	28.949650
2956.620549	27.934266
2957.881975	28.553846
2959.144731	29.678322
2960.405756	32.963636
2961.665050	32.627972
2962.924143	29.149650
2964.183036	29.906294
2965.441729	29.714685
2966.700222	33.409790
2967.956986	35.678322
2969.213551	34.072727
2970.468387	33.787413
2971.724553	32.109091
2972.977463	34.114685
2974.231703	33.850350
2975.485744	33.682517
2976.738059	34.050350
2977.990176	35.734266
2979.240568	37.020979
2980.493815	40.756643
2981.742285	42.186014
2982.993609	39.274126
2984.241685	34.563636
2985.489563	32.864336
2986.737244	34.400000
2987.984729	35.504895
2989.230492	31.488112
2990.476058	29.535664
2991.722953	28.367832
2992.966602	31.391608
2994.211580	33.156643
2995.453315	38.742657
2996.697901	38.644755
2997.940768	37.591608
2999.180393	36.216783
3000.422870	36.299301
3001.662106	37.079720
3002.902670	31.990210
3004.141517	26.541259
3005.380170	23.766434
3006.617107	23.888112
3007.855371	30.535664
3009.091921	32.279720
3010.328277	34.918881
3011.564439	39.724476
3012.798887	38.527273
3014.033142	36.151049
3015.267204	33.914685
3016.499554	35.447552
3017.730192	34.081119
3018.963676	29.423776
3020.195449	31.349650
3021.425510	32.461538
3022.655380	32.176224
3023.883540	30.132867
3025.113027	28.787413
3026.340804	27.223776
3027.568390	25.758042
3028.797302	26.306294
3030.021472	28.486713
3031.248485	36.313287
3032.472275	34.261538
3033.697390	30.895105
3034.920799	32.956643
3036.144019	34.039161
3037.365533	31.730070
3038.589888	28.267133
3039.809508	23.889510
3041.030454	20.590210
3042.251210	21.107692
3043.470263	19.114685
3044.690642	19.616783
3045.907804	23.160839
3047.126291	20.864336
3048.343077	23.730070
3049.559674	28.128671
3050.776084	36.876923
3051.989280	40.577622
3053.205314	43.591608
3054.418136	46.584615
3055.633795	47.330070
3056.844731	41.657343
3058.056993	39.644755
3059.269067	37.269930
3060.480955	34.627972
3061.691145	31.893706
3062.901150	32.821678
3064.110968	35.632168
3065.319090	36.508392
3066.527026	35.047552
3067.733268	34.653846
3068.940834	35.279720
3070.146705	34.585315
3071.352391	30.058741
3072.557893	32.727972
3073.761701	33.072727
3074.966833	34.010490
3076.170272	34.472727
3077.372019	36.992308
3078.573583	37.121678
3079.774963	34.155245
3080.976159	32.376224
3082.175665	30.899301
3083.374987	29.117483
3084.575633	25.710490
3085.774590	23.559441
3086.970351	26.510490
3088.168942	28.114685
3089.364339	28.793007
3090.561060	27.191608
3091.754588	29.167832
3092.950944	32.790210
3094.145613	32.676923
3095.337092	33.523077
3096.532902	35.251748
3097.724019	33.748252
3098.916459	32.281119
3100.105710	32.858741
3101.297788	30.641958
3102.488182	31.425175
3103.675389	31.093706
3104.863920	31.160839
3106.053773	31.227972
3107.240441	29.979021
3108.426930	29.088112
3109.613239	32.718881
3110.800871	36.678322
3111.985320	36.377622
3113.168089	32.857343
3114.353682	29.579021
3115.537594	28.695105
3116.719828	27.394406
3117.901884	26.413986
3119.083761	26.441958
3120.265460	26.574825
3121.445482	26.036364
3122.623826	31.693706
3123.804992	34.173427
3124.982982	34.580420
3126.160795	35.497902
3127.338431	34.718881
3128.514392	35.146853
3129.690177	37.355245
3130.867282	36.006993
3132.042714	35.647552
3133.216472	39.092308
3134.388557	41.827972
3135.561963	37.141259
3136.735194	33.534266
3137.906752	27.960839
3139.079632	23.566434
3140.249344	21.737063
3141.420377	20.036364
3142.589739	21.605594
3143.757432	25.278322
3144.927940	26.191608
3146.093789	26.454545
3147.263948	30.738462
3148.429449	30.881119
3149.594777	26.334266
3150.759931	24.330070
3151.924912	23.166434
3153.091212	22.815385
3154.252859	23.016783
3155.415827	25.075524
3156.578621	27.699301
3157.741243	32.420979
3158.902200	30.945455
3160.062984	32.955245
3161.223597	33.552448
3162.382545	29.959441
3163.541321	26.479720
3164.699926	23.503497
3165.858359	24.325874
3167.016620	25.069930
3168.173219	26.903497
3169.328157	29.268531
3170.484414	29.956643
3171.639011	32.724476
3172.793436	32.794406
3173.946202	33.627972
3175.098798	31.627972
3176.251224	30.289510
3177.403479	29.267133
3178.555565	30.608392
3179.704504	36.051748
3180.856250	36.892308
3182.006339	36.783217
3183.154770	36.496503
3184.303033	36.504895
3185.451127	33.858741
3186.599052	33.455944
3187.745321	30.903497
3188.891422	29.381818
3190.035869	28.058741
3191.180147	25.535664
3192.324258	29.321678
3193.469687	32.001399
3194.611977	32.370629
3195.754099	32.774825
3196.896055	33.576224
3198.037843	35.909091
3199.179464	36.472727
3200.317949	37.457343
3201.457753	37.745455
3202.598873	37.314685
3203.736859	36.710490
3204.873196	35.208392
3206.009367	34.227972
3207.146856	30.622378
3208.282696	30.303497
3209.419852	28.275524
3210.552397	27.446154
3211.689222	30.254545
3212.821436	29.429371
3213.954968	31.967832
3215.088334	32.444755
3216.218573	34.394406
3217.351611	35.353846
3218.481521	34.535664
3219.612749	34.391608
3220.740851	32.991608
3221.871751	33.881119
3223.001006	32.489510
3224.128617	33.559441
3225.253107	32.412587
3226.381872	29.051748
3227.507515	31.076923
3228.632995	28.448951
3229.756834	27.742657
3230.883468	28.920280
3232.005503	31.995804
3233.128855	36.153846
3234.252045	36.078322
3235.375073	36.976224
3236.496461	38.868531
3237.617688	41.230769
3238.737276	37.047552
3239.856703	33.872727
3240.974493	30.690909
3242.095074	27.535664
3243.212542	21.825175
3244.329849	18.921678
3245.446995	17.556643
3246.562506	18.029371
3247.679332	18.000000
3248.793047	23.427972
3249.909553	30.025175
3251.024423	32.697902
3252.136185	30.462937
3253.247788	31.668531
3254.360706	30.676923
3255.473464	32.068531
3256.583116	29.605594
3257.694083	31.218182
3258.804891	28.464336
3259.914067	28.201399
3261.021612	27.579021
3262.130472	29.400000
3263.239173	28.331469
3264.344772	24.255944
3265.451686	20.970629
3266.556970	21.820979
3267.663568	25.183217
3268.767066	29.899301
3269.871878	32.941259
3270.976533	40.348252
3272.078090	39.763636
3273.179490	42.756643
3274.282204	43.651748
3275.384761	43.188811
3276.484223	41.479720
3277.586467	37.860140
3278.685617	33.363636
3279.783141	31.290909
3280.880510	31.402797
3281.980662	28.288112
3283.077720	26.913287
3284.174624	31.013986
3285.271372	31.977622
3286.363561	36.461538
3287.460000	38.795804
3288.554816	39.931469
3289.649477	39.800000
3290.742517	38.335664
3291.835403	36.555245
3292.926668	34.958042
3294.019246	33.878322
3295.110204	29.521678
3296.199542	27.696503
3297.288727	29.604196
3298.379224	29.974825
3299.466637	31.085315
3300.553898	30.955245
3301.642471	31.815385
3302.730891	30.443357
3303.814764	29.194406
3304.902879	30.149650
3305.987913	31.174825
3307.071331	30.601399
3308.156061	29.746853
3309.239175	31.163636
3310.323601	31.076923
3311.404949	31.465734
3312.487609	31.588811
3313.568655	32.379021
3314.649550	28.861538
3315.728832	26.690909
3316.807963	26.155245
3317.888406	28.790210
3318.965774	28.162238
3320.044454	26.461538
3321.121522	26.530070
3322.198440	30.794406
3323.273748	30.934266
3324.348906	37.065734
3325.425375	36.535664
3326.498773	33.808392
3327.572023	29.958042
3328.646584	29.151049
3329.719535	30.296503
3330.790879	29.762238
3331.863533	23.755245
3332.933120	20.841958
3334.004018	20.784615
3335.073309	21.240559
3336.143911	21.595804
3337.212906	26.278322
3338.280295	25.033566
3339.346079	26.190210
3340.416089	28.420979
3341.483036	32.359441
3342.546921	34.241958
3343.613574	33.464336
3344.678623	29.570629
3345.742068	31.037762
3346.805366	32.742657
3347.868519	31.422378
3348.931525	30.979021
3349.994384	34.700699
3351.055642	34.949650
3352.113843	36.869930
3353.176265	35.107692
3354.235630	34.937063
3355.294851	31.078322
3356.355380	27.725874
3357.411400	29.558042
3358.470185	28.268531
3359.524462	28.041958
3360.581503	27.574825
3361.636945	31.097902
3362.693696	36.032168
3363.748850	34.096503
3364.802406	32.844755
3365.854365	27.706294
3366.909086	27.177622
3367.960759	28.574825
3369.012287	26.728671
3370.065125	27.145455
3371.114915	20.704895
3372.166014	20.966434
3373.214066	23.958042
3374.264879	27.612587
3375.312646	27.160839
3376.360271	28.718881
3377.407754	28.029371
3378.453643	28.086713
3379.500842	28.945455
3380.544997	28.862937
3381.591911	24.991608
3382.637233	27.411189
3383.679515	26.553846
3384.721655	27.834965
3385.765104	29.732867
3386.808411	31.476923
3387.850128	32.893706
3388.891704	34.358042
3389.933140	32.311888
3390.972987	31.692308
3392.011245	32.158042
3393.050811	33.818182
3394.090237	34.653147
3395.128075	36.051748
3396.164326	34.247552
3397.200437	34.114685
3398.237856	34.647552
3399.272242	33.847552
3400.307936	29.320280
3401.343490	25.746853
3402.376012	23.737063
3403.411288	22.731469
3404.443533	27.413986
3405.475640	27.737063
3406.506163	22.200000
3407.537994	22.053147
3408.569686	22.914685
3409.598350	23.346853
3410.626877	23.061538
3411.656710	22.310490
3412.686406	21.892308
3413.713075	23.200000
3414.741052	24.728671
3415.766004	25.608392
3416.793706	26.278322
3417.818385	24.488112
3418.844370	24.118881
3419.868776	29.474126
3420.893044	28.671329
3421.915734	29.234965
3422.938289	28.173427
3423.962148	29.951049
3424.982989	29.735664
3426.003693	28.736863
3427.025703	27.715135
3428.044695	26.921878
3429.063552	26.608492
3430.083715	27.026374
3431.100860	28.426923
