-116.773079	606.000000
-114.103479	677.000000
-111.436814	668.000000
-108.770901	605.000000
-106.107920	621.000000
-103.443510	721.000000
-100.782030	640.000000
-98.119121	703.000000
-95.461318	602.000000
-92.802086	629.000000
-90.143602	726.000000
-87.488042	794.000000
-84.831054	655.000000
-82.179164	686.000000
-79.525843	726.000000
-76.875443	739.000000
-74.223613	732.000000
-71.576874	824.000000
-68.928706	657.000000
-66.281280	860.000000
-63.636768	899.000000
-60.990828	879.000000
-58.349969	910.000000
-55.707681	885.000000
-53.068301	877.000000
-50.427493	1008.000000
-47.787425	851.000000
-45.152429	1168.000000
-42.516005	964.000000
-39.882483	1271.000000
-37.247533	1376.000000
-34.617648	1402.000000
-31.984171	1584.000000
-29.355756	1691.000000
-26.728075	1773.000000
-24.098965	1939.000000
-21.474912	2293.000000
-18.847270	2725.000000
-16.224681	3345.000000
-13.602824	4835.000000
-10.981697	7733.000000
-8.361300	18559.000000
-5.743792	60340.000000
-3.124855	63537.000000
-0.508803	63324.000000
2.106520	63567.000000
4.721116	63391.000000
7.332829	40267.000000
9.945971	6017.000000
12.554079	3550.000000
15.165769	2667.000000
17.772428	2521.000000
20.380515	2327.000000
22.987878	2299.000000
25.590216	1964.000000
28.196132	1896.000000
30.797026	1610.000000
33.399348	1588.000000
35.996653	1573.000000
38.597533	1497.000000
41.193398	1653.000000
43.790692	1591.000000
46.387266	1543.000000
48.978831	1591.000000
51.571824	1496.000000
54.161956	1635.000000
56.753516	1587.000000
59.342216	1618.000000
61.932343	1849.000000
64.517471	1761.000000
67.104027	1713.000000
69.689869	1770.000000
72.272857	1975.000000
74.857271	1961.000000
77.434557	2034.000000
80.015409	2009.000000
82.593412	2020.000000
85.170705	2098.000000
87.749424	2350.000000
90.323161	2419.000000
92.898326	2542.000000
95.470647	2740.000000
98.042260	2892.000000
100.611033	3259.000000
103.181233	3721.000000
105.748595	4163.000000
108.317382	5066.000000
110.883333	6189.000000
113.446449	7791.000000
116.013121	10415.000000
118.570572	14145.000000
121.133708	20087.000000
123.691884	29310.000000
126.253615	42574.000000
128.810389	57593.000000
131.368590	63670.000000
133.921837	63557.000000
136.474387	63471.000000
139.030487	63080.000000
141.581639	63605.000000
144.132094	63642.000000
146.681851	63679.000000
149.228789	63685.000000
151.775032	63756.000000
154.322700	63754.000000
156.869672	63821.000000
159.411709	63039.000000
161.953052	63137.000000
164.493702	63553.000000
167.035778	63405.000000
169.575042	63414.000000
172.111498	63480.000000
174.647262	63678.000000
177.184452	63393.000000
179.720951	63716.000000
182.254644	63911.000000
184.785533	63505.000000
187.315735	63781.000000
189.847361	63544.000000
192.376186	63680.000000
194.902212	63629.000000
197.427552	63225.000000
199.954318	63666.000000
202.478286	63786.000000
205.001570	63743.000000
207.524169	63887.000000
210.043975	63782.000000
212.563098	63225.000000
215.081538	63732.000000
217.601402	63726.000000
220.114265	63587.000000
222.630659	63855.000000
225.146371	63520.000000
227.657193	63092.000000
230.169440	63596.000000
232.678905	63486.000000
235.187691	63647.000000
237.695798	63716.000000
240.205330	63671.000000
242.709981	63296.000000
245.213956	63740.000000
247.719355	63864.000000
250.219879	63647.000000
252.723927	63612.000000
255.221003	63689.000000
257.721603	63910.000000
260.219431	63265.000000
262.716586	63540.000000
265.213068	63211.000000
267.704687	63687.000000
270.199826	63724.000000
272.692198	63877.000000
275.183901	63761.000000
277.672839	63794.000000
280.163202	63625.000000
282.650802	63330.000000
285.135643	63744.000000
287.623999	63839.000000
290.105415	63720.000000
292.590345	63645.000000
295.070430	63558.000000
297.554027	63758.000000
300.032781	63763.000000
302.512959	63786.000000
304.990384	63648.000000
307.467146	63453.000000
309.943245	63786.000000
312.416595	63624.000000
314.889283	63746.000000
317.361310	63836.000000
319.832676	63810.000000
322.301297	63479.000000
324.769260	63767.000000
327.238644	63443.000000
329.703206	63581.000000
332.171272	63775.000000
334.634518	63751.000000
337.097106	63818.000000
339.559038	63457.000000
342.020313	63763.000000
344.478854	63269.000000
346.938817	63764.000000
349.396047	63258.000000
351.852623	63787.000000
354.308545	63845.000000
356.761737	62657.000000
359.216352	63777.000000
361.666165	63615.000000
364.119474	63751.000000
366.567985	63825.000000
369.015844	63644.000000
371.465126	63887.000000
373.909614	63393.000000
376.355524	63604.000000
378.800784	63524.000000
381.243326	63444.000000
383.685220	63169.000000
386.126467	63401.000000
388.564998	63763.000000
391.004951	63690.000000
393.442190	63869.000000
395.876717	63881.000000
398.314732	63924.000000
400.747970	63752.000000
403.182629	63498.000000
405.612516	63695.000000
408.045888	63710.000000
410.474490	63738.000000
412.902450	63657.000000
415.331832	63855.000000
417.756448	63797.000000
420.182486	63289.000000
422.607883	63904.000000
425.032640	63521.000000
427.452639	63823.000000
429.874059	63709.000000
432.292782	63828.000000
434.712926	63728.000000
437.130375	63766.000000
439.549244	63876.000000
441.965420	63776.000000
444.376848	63674.000000
446.791754	63755.000000
449.203969	63831.000000
451.615550	63693.000000
454.026497	63984.000000
456.434758	63860.000000
458.842386	63866.000000
461.249382	63425.000000
463.655747	63917.000000
466.059429	63905.000000
468.462481	63680.000000
470.864903	63712.000000
473.266695	63661.000000
475.665810	63772.000000
478.066344	63561.000000
480.466249	63925.000000
482.861431	63304.000000
485.260080	63730.000000
487.654009	63622.000000
490.047312	63872.000000
492.439989	63105.000000
494.832041	63275.000000
497.225511	63705.000000
499.614270	63628.000000
502.000361	63542.000000
504.387873	63532.000000
506.774762	63766.000000
509.158987	63720.000000
511.544630	63918.000000
513.927612	63790.000000
516.307933	63912.000000
518.689673	63308.000000
521.068754	63348.000000
523.449254	63842.000000
525.827096	63925.000000
528.202283	63771.000000
530.576852	63692.000000
532.952839	63667.000000
535.326174	63585.000000
537.700926	63864.000000
540.070993	63822.000000
542.440444	63807.000000
544.811313	63654.000000
547.177502	63974.000000
549.545109	63784.000000
551.910070	63878.000000
554.274418	63836.000000
556.638153	63826.000000
559.003306	63739.000000
561.363787	63781.000000
563.725686	63739.000000
566.084944	63859.000000
568.441565	63777.000000
570.801630	63845.000000
573.155004	63471.000000
575.511823	63765.000000
577.866007	63900.000000
580.219583	63940.000000
582.572550	63995.000000
584.922885	63753.000000
587.274638	63863.000000
589.619714	63703.000000
591.970254	63840.000000
594.314120	63781.000000
596.663448	63883.000000
599.008127	63855.000000
601.350182	63498.000000
603.693654	63799.000000
606.034503	63819.000000
608.374750	63865.000000
610.712376	63744.000000
613.053437	63598.000000
615.389860	64040.000000
617.727700	63831.000000
620.062923	63509.000000
622.395530	63977.000000
624.729553	63709.000000
627.060962	63935.000000
629.391774	63700.000000
631.721987	63832.000000
634.051602	64007.000000
636.376595	63714.000000
638.707028	63974.000000
641.032841	63247.000000
643.356046	63920.000000
645.680668	63937.000000
648.002684	63993.000000
650.324106	63416.000000
652.642926	63618.000000
654.963161	63495.000000
657.282803	63869.000000
659.599844	63976.000000
661.916293	62826.000000
664.230144	63806.000000
666.545411	63756.000000
668.858081	63572.000000
671.172166	63954.000000
673.481651	63822.000000
675.792552	64039.000000
678.100860	63797.000000
680.408580	63544.000000
682.717714	63526.000000
685.022256	63705.000000
687.326212	63977.000000
689.629582	63579.000000
691.934366	63851.000000
694.234564	63947.000000
696.536176	63776.000000
698.837204	63723.000000
701.133649	63823.000000
703.431510	63994.000000
705.728787	63601.000000
708.025481	63960.000000
710.317599	63593.000000
712.613128	63760.000000
714.904083	64004.000000
717.196453	63885.000000
719.486248	63849.000000
721.775462	63881.000000
724.064097	63749.000000
726.350159	63862.000000
728.637636	63652.000000
730.922541	63831.000000
733.206869	63870.000000
735.488628	63785.000000
737.771801	63790.000000
740.054397	63980.000000
742.332437	63877.000000
744.611892	63723.000000
746.890771	63928.000000
749.169074	64053.000000
751.442828	63423.000000
753.717995	63779.000000
755.992589	63977.000000
758.264624	63862.000000
760.538072	63964.000000
762.808962	63896.000000
765.077296	63903.000000
767.347043	63545.000000
769.614236	63830.000000
771.880858	63676.000000
774.146910	63615.000000
776.410411	63802.000000
778.675325	63910.000000
780.939669	63759.000000
783.199484	63635.000000
785.460711	63824.000000
787.721371	63234.000000
789.979485	63791.000000
792.235054	62323.000000
794.494014	63800.000000
796.746475	63791.000000
799.004302	63777.000000
801.257611	63983.000000
803.508380	63278.000000
805.760561	63815.000000
808.010203	63380.000000
810.261258	63840.000000
812.507801	63888.000000
814.755756	63878.000000
817.001177	63589.000000
819.248009	63657.000000
821.494280	63666.000000
823.736046	63321.000000
825.981196	62941.000000
828.219873	63116.000000
830.461932	63508.000000
832.699493	62372.000000
834.938466	62363.000000
837.174912	62486.000000
839.412769	60701.000000
841.648101	60358.000000
843.880910	62230.000000
846.115130	61399.000000
848.346827	61541.000000
850.577970	61352.000000
852.808558	59749.000000
855.038592	61121.000000
857.268072	60204.000000
859.493070	59828.000000
861.721443	58772.000000
863.945337	59630.000000
866.170641	59011.000000
868.391470	59003.000000
870.615671	58629.000000
872.835399	57379.000000
875.056537	58322.000000
877.277126	57803.000000
879.495204	57428.000000
881.714692	57782.000000
883.929714	56842.000000
886.144189	56951.000000
888.358115	56928.000000
890.571495	56046.000000
892.784327	55959.000000
894.996613	56109.000000
897.206396	55942.000000
899.415634	54879.000000
901.624327	54459.000000
903.830521	54319.000000
906.038124	54929.000000
908.243229	53616.000000
910.447791	53372.000000
912.649858	53359.000000
914.853334	53698.000000
917.054316	53690.000000
919.254756	52402.000000
921.456605	51859.000000
923.652063	52542.000000
925.850880	51729.000000
928.045258	52224.000000
930.242994	51425.000000
932.436294	51278.000000
934.631003	50898.000000
936.823226	51383.000000
939.014910	50937.000000
941.206057	51077.000000
943.394721	51222.000000
945.582849	49713.000000
947.768496	51035.000000
949.957495	49247.000000
952.142071	50378.000000
954.326112	49707.000000
956.513503	49062.000000
958.692590	49306.000000
960.875028	49321.000000
963.056932	49489.000000
965.236361	50083.000000
967.413318	48962.000000
969.591683	49220.000000
971.771455	48987.000000
973.944878	49002.000000
976.121647	48796.000000
978.294009	49466.000000
980.467779	49136.000000
982.637145	48085.000000
984.809855	49095.000000
986.980100	48086.000000
989.149816	48082.000000
991.319003	47558.000000
993.483793	47633.000000
995.651924	48473.000000
997.815661	47842.000000
999.980804	47560.000000
1002.143488	47441.000000
1004.305647	47280.000000
1006.465349	47157.000000
1008.624526	46373.000000
1010.785110	46988.000000
1012.943240	46988.000000
1015.100845	45544.000000
1017.257927	45336.000000
1019.414485	46065.000000
1021.566664	46847.000000
1023.720250	46551.000000
1025.873314	46276.000000
1028.023929	45561.000000
1030.175951	45962.000000
1032.323599	45986.000000
1034.474579	45997.000000
1036.621188	46350.000000
1038.767278	46300.000000
1040.912850	45784.000000
1043.059827	45284.000000
1045.200515	45111.000000
1047.344533	44772.000000
1049.486110	44981.000000
1051.627171	45867.000000
1053.769636	45096.000000
1055.905822	45235.000000
1058.045334	45829.000000
1060.180490	45846.000000
1062.318971	45464.000000
1064.453098	44873.000000
1066.586712	44968.000000
1068.721731	44756.000000
1070.852400	44640.000000
1072.984474	45254.000000
1075.114119	44731.000000
1077.243252	44832.000000
1079.371873	44763.000000
1081.499983	44139.000000
1083.625667	44199.000000
1085.750841	43687.000000
1087.877419	43856.000000
1089.999659	44093.000000
1092.123304	44820.000000
1094.242614	43941.000000
1096.367154	43850.000000
1098.485448	43483.000000
1100.605147	44055.000000
1102.722427	43525.000000
1104.839201	43867.000000
1106.955468	43687.000000
1109.069319	43512.000000
1111.184575	43155.000000
1113.295507	43347.000000
1115.409752	43047.000000
1117.519676	43382.000000
1119.631004	43679.000000
1121.741827	43268.000000
1123.848334	42143.000000
1125.958151	43240.000000
1128.063653	43667.000000
1130.170558	43080.000000
1132.271248	43215.000000
1134.377150	42904.000000
1136.478743	41933.000000
1138.581739	42688.000000
1140.684234	42776.000000
1142.780522	42990.000000
1144.882018	42560.000000
1146.979210	43435.000000
1149.075905	42480.000000
1151.172101	42129.000000
1153.267800	42919.000000
1155.363000	42732.000000
1157.455804	42871.000000
1159.550011	42489.000000
1161.638026	42476.000000
1163.731239	42874.000000
1165.818264	42715.000000
1167.908588	41926.000000
1169.994625	42862.000000
1172.083959	43060.000000
1174.167112	43072.000000
1176.251667	42786.000000
1178.337624	42946.000000
1180.419299	42846.000000
1182.502376	43100.000000
1184.583067	42912.000000
1186.663266	42995.000000
1188.742974	42420.000000
1190.822191	42673.000000
1192.899026	42526.000000
1194.973480	42245.000000
1197.051225	42666.000000
1199.124701	42491.000000
1201.199577	43095.000000
1203.270186	42585.000000
1205.342196	42587.000000
1207.411831	41843.000000
1209.482866	42376.000000
1211.553413	42373.000000
1213.619699	42867.000000
1215.687386	41893.000000
1217.752701	42112.000000
1219.819416	42833.000000
1221.881875	42377.000000
1223.947619	41849.000000
1226.009109	42653.000000
1228.072000	42331.000000
1230.132523	42369.000000
1232.192562	41082.000000
1234.252119	42437.000000
1236.309310	41756.000000
1238.366020	42416.000000
1240.420366	41798.000000
1242.477994	41560.000000
1244.533259	41630.000000
1246.584283	41991.000000
1248.636707	41754.000000
1250.688651	41621.000000
1252.738237	42355.000000
1254.787344	41014.000000
1256.835973	41797.000000
1258.884123	41941.000000
1260.931794	41608.000000
1262.975235	41016.000000
1265.021952	41289.000000
1267.066315	41501.000000
1269.110202	41530.000000
1271.151737	41741.000000
1273.190923	41001.000000
1275.233382	41245.000000
1277.271618	41910.000000
1279.311253	41827.000000
1281.350413	40804.000000
1283.385354	41127.000000
1285.421694	40880.000000
1287.455690	40687.000000
1289.491083	41385.000000
1291.522264	41454.000000
1293.554842	41253.000000
1295.586949	41072.000000
1297.616715	41083.000000
1299.647879	41835.000000
1301.674835	40723.000000
1303.703189	40875.000000
1305.727339	41249.000000
1307.754753	40794.000000
1309.777965	40875.000000
1311.802575	41002.000000
1313.824851	41141.000000
1315.848524	40757.000000
1317.869864	40971.000000
1319.890736	41228.000000
1321.911141	40810.000000
1323.927353	40939.000000
1325.944962	39684.000000
1327.960243	40288.000000
1329.978783	40062.000000
1331.993134	40340.000000
1334.005159	40497.000000
1336.020441	40417.000000
1338.031538	39449.000000
1340.044032	39776.000000
1342.052343	39982.000000
1344.063909	39283.000000
1346.069437	39948.000000
1348.078220	39201.000000
1350.082825	38981.000000
1352.090684	38548.000000
1354.098081	39211.000000
1356.099447	38298.000000
1358.102209	38812.000000
1360.104512	39115.000000
1362.106355	38698.000000
1364.107738	38968.000000
1366.106808	38790.000000
1368.105419	38929.000000
1370.103572	39191.000000
1372.101266	38513.000000
1374.094798	38606.000000
1376.089726	38169.000000
1378.084196	38250.000000
1380.078210	38228.000000
1382.069917	38336.000000
1384.061169	38176.000000
1386.050115	38234.000000
1388.040456	38391.000000
1390.030342	37451.000000
1392.017924	38400.000000
1394.005053	37497.000000
1395.989880	38267.000000
1397.976102	38385.000000
1399.960024	37720.000000
1401.943493	37783.000000
1403.926509	38181.000000
1405.907228	37935.000000
1407.889341	38077.000000
1409.869158	37660.000000
1411.848523	37866.000000
1413.823750	38084.000000
1415.802215	37744.000000
1417.778387	37564.000000
1419.754110	37719.000000
1421.729383	37646.000000
1423.702365	37585.000000
1425.674899	37686.000000
1427.646985	37591.000000
1429.618624	38017.000000
1431.586134	37394.000000
1433.558718	38096.000000
1435.523497	37151.000000
1437.493347	37409.000000
1439.459074	38185.000000
1441.426193	37614.000000
1443.391029	38028.000000
1445.351745	37783.000000
1447.317529	37549.000000
1449.277358	37544.000000
1451.238581	37831.000000
1453.201196	37862.000000
1455.159696	37684.000000
1457.117753	38362.000000
1459.075369	38341.000000
1461.032542	37895.000000
1462.987440	38530.000000
1464.943731	38345.000000
1466.897747	38318.000000
1468.851322	38206.000000
1470.802625	38532.000000
1472.755321	38475.000000
1474.705745	37697.000000
1476.655729	38776.000000
1478.605275	38931.000000
1480.552552	38384.000000
1482.497561	38670.000000
1484.443963	38738.000000
1486.389927	38704.000000
1488.335454	39289.000000
1490.278715	38850.000000
1492.221541	39183.000000
1494.162103	39089.000000
1496.104056	39104.000000
1498.043747	39599.000000
1499.983004	39130.000000
1501.921825	39094.000000
1503.858387	38978.000000
1505.796340	39837.000000
1507.732034	39987.000000
1509.667295	40218.000000
1511.600300	39653.000000
1513.532872	40588.000000
1515.465012	40692.000000
1517.396720	40990.000000
1519.326174	40905.000000
1521.257019	41545.000000
1523.187432	41346.000000
1525.113773	40777.000000
1527.041505	41806.000000
1528.966986	41967.000000
1530.892038	41944.000000
1532.816661	42593.000000
1534.740855	41968.000000
1536.662801	43237.000000
1538.586138	42951.000000
1540.507228	42689.000000
1542.426075	43786.000000
1544.346310	44519.000000
1546.264303	44244.000000
1548.181869	44762.000000
1550.097193	45058.000000
1552.013907	45449.000000
1553.926566	45779.000000
1555.842429	45298.000000
1557.756052	46573.000000
1559.667438	46636.000000
1561.580212	46884.000000
1563.488937	47254.000000
1565.399051	48143.000000
1567.308742	47949.000000
1569.218010	49214.000000
1571.125044	48882.000000
1573.029845	49960.000000
1574.936035	51302.000000
1576.839993	50674.000000
1578.743530	51570.000000
1580.646647	51637.000000
1582.547534	52702.000000
1584.449810	53006.000000
1586.349858	54029.000000
1588.251293	54412.000000
1590.148695	54859.000000
1592.045678	55406.000000
1593.942243	56096.000000
1595.840196	56808.000000
1597.732314	58265.000000
1599.627625	57863.000000
1601.522519	58860.000000
1603.415191	57687.000000
1605.307446	60034.000000
1607.197482	59596.000000
1609.087102	60868.000000
1610.976307	60569.000000
1612.865097	61572.000000
1614.751669	61806.000000
1616.639629	62119.000000
1618.523572	62877.000000
1620.408902	62535.000000
1622.293819	63162.000000
1624.176522	63749.000000
1626.060612	64048.000000
1627.940691	63953.000000
1629.822156	64078.000000
1631.701411	64050.000000
1633.582052	62718.000000
1635.456889	64174.000000
1637.336707	64014.000000
1639.212521	64173.000000
1641.087924	63862.000000
1642.964713	63943.000000
1644.835706	63538.000000
1646.709880	64020.000000
1648.580056	63453.000000
1650.453412	63776.000000
1652.324565	62906.000000
1654.193516	63061.000000
1656.063852	62085.000000
1657.930196	62051.000000
1659.797925	61704.000000
1661.663455	61236.000000
1663.530371	61424.000000
1665.393298	60805.000000
1667.257610	59613.000000
1669.119726	58830.000000
1670.981437	58637.000000
1672.844534	58664.000000
1674.705435	57616.000000
1676.564144	56449.000000
1678.422449	55609.000000
1680.282139	54967.000000
1682.136061	54218.000000
1683.993157	53506.000000
1685.849850	52510.000000
1687.702566	51449.000000
1689.558454	50647.000000
1691.410368	50262.000000
1693.261881	49131.000000
1695.112993	47681.000000
1696.963705	46686.000000
1698.814016	45908.000000
1700.662142	45310.000000
1702.511653	44096.000000
1704.355415	42828.000000
1706.204126	42122.000000
1708.047091	40752.000000
1709.893223	40449.000000
1711.735392	39487.000000
1713.580727	39026.000000
1715.420321	37559.000000
1717.261299	37141.000000
1719.103660	36084.000000
1720.942065	35340.000000
1722.781853	34760.000000
1724.619466	34124.000000
1726.456683	33568.000000
1728.291727	32762.000000
1730.128154	32240.000000
1731.962409	32041.000000
1733.796269	31077.000000
1735.629735	30579.000000
1737.459256	30057.000000
1739.291935	29668.000000
1741.120670	28726.000000
1742.952562	28469.000000
1744.780512	28437.000000
1746.608071	27571.000000
1748.435237	27393.000000
1750.262012	27362.000000
1752.088395	26738.000000
1753.910842	26209.000000
1755.736444	25917.000000
1757.558111	26003.000000
1759.381160	25389.000000
1761.202047	25252.000000
1763.022546	24832.000000
1764.844426	25145.000000
1766.660606	24151.000000
1768.479938	24039.000000
1770.295343	24147.000000
1772.113898	23808.000000
1773.928528	23446.000000
1775.742771	23814.000000
1777.556628	23131.000000
1779.370098	22886.000000
1781.181415	22786.000000
1782.994112	22741.000000
1784.806424	22712.000000
1786.614818	22122.000000
1788.424592	22367.000000
1790.230452	22136.000000
1792.039457	21924.000000
1793.844549	21509.000000
1795.651022	21068.000000
1797.457111	21370.000000
1799.259289	21307.000000
1801.064612	21592.000000
1802.866026	20758.000000
1804.668820	20921.000000
1806.467708	20996.000000
1808.267977	20826.000000
1810.067864	20681.000000
1811.865609	20598.000000
1813.662974	20634.000000
1815.459959	20064.000000
1817.256563	20694.000000
1819.051028	20179.000000
1820.846872	19977.000000
1822.637061	19887.000000
1824.432147	19757.000000
1826.221581	19739.000000
1828.014151	19629.000000
1829.804586	19667.000000
1831.592887	19645.000000
1833.384323	19451.000000
1835.170113	19341.000000
1836.957283	19475.000000
1838.742321	19589.000000
1840.530493	19011.000000
1842.314779	19033.000000
1844.096935	19067.000000
1845.880471	19379.000000
1847.661878	19191.000000
1849.444664	19075.000000
1851.223569	19245.000000
1853.003854	18843.000000
1854.782012	18748.000000
1856.561549	18685.000000
1858.338961	19214.000000
1860.114249	19196.000000
1861.890915	19234.000000
1863.665459	18865.000000
1865.441381	18963.000000
1867.211682	18473.000000
1868.985111	18775.000000
1870.756420	18905.000000
1872.527358	18643.000000
1874.299674	18769.000000
1876.066376	19079.000000
1877.836204	18673.000000
1879.602168	18759.000000
1881.371255	18661.000000
1883.136481	18895.000000
1884.901339	18747.000000
1886.667574	19207.000000
1888.429950	18659.000000
1890.191959	18495.000000
1891.953600	18483.000000
1893.714875	18622.000000
1895.475782	18815.000000
1897.236323	18816.000000
1898.994754	19213.000000
1900.752819	18780.000000
1902.508777	18766.000000
1904.266111	18978.000000
1906.023080	18882.000000
1907.777942	18599.000000
1909.530700	18541.000000
1911.283093	18763.000000
1913.036863	19081.000000
1914.788529	18807.000000
1916.538093	18897.000000
1918.289032	18927.000000
1920.039609	19185.000000
1921.786346	19179.000000
1923.534460	19451.000000
1925.280474	19071.000000
1927.027863	19211.000000
1928.773155	19493.000000
1930.516349	19239.000000
1932.260918	19554.000000
1934.003392	19499.000000
1935.745505	19432.000000
1937.487258	19542.000000
1939.228652	19722.000000
1940.967951	19803.000000
1942.706892	19852.000000
1944.445474	19653.000000
1946.181965	20000.000000
1947.918098	20125.000000
1949.655605	20250.000000
1951.389290	20165.000000
1953.124350	19955.000000
1954.857321	20281.000000
1956.589936	20511.000000
1958.322195	20429.000000
1960.054097	20443.000000
1961.783913	20703.000000
1963.511644	20763.000000
1965.240750	20863.000000
1966.969501	20947.000000
1968.696168	21167.000000
1970.422481	20918.000000
1972.150167	21085.000000
1973.872317	21208.000000
1975.597568	21355.000000
1977.319012	21946.000000
1979.043557	21650.000000
1980.766021	21565.000000
1982.484683	21816.000000
1984.206443	22332.000000
1985.924401	22209.000000
1987.643732	21994.000000
1989.359264	22260.000000
1991.079616	22600.000000
1992.796170	22612.000000
1994.508927	22743.000000
1996.224780	22521.000000
1997.938561	22631.000000
1999.651992	22839.000000
2001.363352	23067.000000
2003.076084	22863.000000
2004.785026	23201.000000
2006.497060	23251.000000
2008.203586	23364.000000
2009.913203	23349.000000
2011.620754	23570.000000
2013.327956	23490.000000
2015.033093	23672.000000
2016.737884	23909.000000
2018.444046	24011.000000
2020.146426	24439.000000
2021.850177	24631.000000
2023.551866	24467.000000
2025.253210	24201.000000
2026.954208	24711.000000
2028.653145	24676.000000
2030.353454	24857.000000
2032.049988	24982.000000
2033.747893	25330.000000
2035.443739	25294.000000
2037.142671	25055.000000
2038.836117	25119.000000
2040.530934	25335.000000
2042.225409	25971.000000
2043.916115	25687.000000
2045.609905	25874.000000
2047.299928	25979.000000
2048.991322	25904.000000
2050.680663	26157.000000
2052.371374	26044.000000
2054.058322	26188.000000
2055.744931	26202.000000
2057.432909	26162.000000
2059.117128	26183.000000
2060.802718	25703.000000
2062.487968	26499.000000
2064.171170	26379.000000
2065.855741	26524.000000
2067.534850	26179.000000
2069.218744	26128.000000
2070.897177	25893.000000
2072.578688	26278.000000
2074.256447	26310.000000
2075.933870	26752.000000
2077.612662	26306.000000
2079.289412	26261.000000
2080.964120	26079.000000
2082.640197	26580.000000
2084.314234	26631.000000
2085.987935	26590.000000
2087.661301	26404.000000
2089.332628	26734.000000
2091.003622	26975.000000
2092.674280	26710.000000
2094.344605	26983.000000
2096.014596	27138.000000
2097.682551	26906.000000
2099.350173	26864.000000
2101.015760	26883.000000
2102.682716	27074.000000
2104.347639	27499.000000
2106.012230	27214.000000
2107.674789	26926.000000
2109.338716	27894.000000
2111.000612	27793.000000
2112.662178	27444.000000
2114.323412	27435.000000
2115.982618	27558.000000
2117.641493	27484.000000
2119.300039	27645.000000
2120.958255	27665.000000
2122.612747	27452.000000
2124.270304	27067.000000
2125.927532	27432.000000
2127.581038	27202.000000
2129.235912	27421.000000
2130.887067	27300.000000
2132.541285	27364.000000
2134.191786	27351.000000
2135.843653	27652.000000
2137.490112	27054.000000
2139.141326	26769.000000
2140.788826	27362.000000
2142.437693	27228.000000
2144.084541	26955.000000
2145.731064	27014.000000
2147.377261	26924.000000
2149.019750	27113.000000
2150.665297	26658.000000
2152.307137	26490.000000
2153.952034	26711.000000
2155.593226	26803.000000
2157.234094	26264.000000
2158.874638	26527.000000
2160.513170	26161.000000
2162.153068	26044.000000
2163.789266	26289.000000
2165.426830	25747.000000
2167.064072	25629.000000
2168.699304	25727.000000
2170.334215	25449.000000
2171.968804	25823.000000
2173.603071	25749.000000
2175.233645	25443.000000
2176.867271	24969.000000
2178.497205	25163.000000
2180.128504	24813.000000
2181.757798	25111.000000
2183.386773	25283.000000
2185.015428	24331.000000
2186.643764	24397.000000
2188.270098	24495.000000
2189.896113	24693.000000
2191.520126	24334.000000
2193.145505	24341.000000
2194.768883	24301.000000
2196.393626	24133.000000
2198.014688	23799.000000
2199.635433	23861.000000
2201.257543	23491.000000
2202.877655	23704.000000
2204.495770	23679.000000
2206.113570	23329.000000
2207.731055	23119.000000
2209.348224	22993.000000
2210.965078	23271.000000
2212.581616	22773.000000
2214.196162	23035.000000
2215.808715	22561.000000
2217.422632	22727.000000
2219.034558	22651.000000
2220.647847	22635.000000
2222.259146	22409.000000
2223.868455	22345.000000
2225.479128	22257.000000
2227.087812	22156.000000
2228.696183	22033.000000
2230.302568	21813.000000
2231.910316	21780.000000
2233.516077	21619.000000
2235.121527	21131.000000
2236.724992	21439.000000
2238.329820	21306.000000
2239.932664	21559.000000
2241.533525	21241.000000
2243.135749	20978.000000
2244.735991	20729.000000
2246.337595	20747.000000
2247.935547	21117.000000
2249.534860	20731.000000
2251.132194	20205.000000
2252.729220	20495.000000
2254.327608	20283.000000
2255.922347	20567.000000
2257.515109	20369.000000
2259.109234	20279.000000
2260.704720	20025.000000
2262.296561	20020.000000
2263.888096	19851.000000
2265.480993	19925.000000
2267.068580	19725.000000
2268.660863	19443.000000
2270.247840	19553.000000
2271.837844	19498.000000
2273.422544	19464.000000
2275.011938	19197.000000
2276.596030	19161.000000
2278.181483	18871.000000
2279.764966	19109.000000
2281.351475	18435.000000
2282.934351	18686.000000
2284.516924	18551.000000
2286.099193	18557.000000
2287.677832	18287.000000
2289.259496	18079.000000
2290.837531	18219.000000
2292.418589	18325.000000
2293.996020	18037.000000
2295.571488	17749.000000
2297.149978	17610.000000
2298.724844	17803.000000
2300.299409	17741.000000
2301.873674	17348.000000
2303.447638	17437.000000
2305.021301	17171.000000
2306.594665	17280.000000
2308.164410	17222.000000
2309.733856	17057.000000
2311.306320	16812.000000
2312.873510	17140.000000
2314.443718	16403.000000
2316.010311	17043.000000
2317.578264	16884.000000
2319.144261	16791.000000
2320.709961	16685.000000
2322.275363	16774.000000
2323.838812	16687.000000
2325.403620	17219.000000
2326.964820	17601.000000
2328.529034	18075.000000
2330.087986	18425.000000
2331.649953	17612.000000
2333.209968	16749.000000
2334.769689	16301.000000
2336.327460	16517.000000
2337.884936	15983.000000
2339.442118	16253.000000
2340.997352	16063.000000
2342.552293	15966.000000
2344.106939	15995.000000
2345.661292	15709.000000
2347.215352	16191.000000
2348.769117	15897.000000
2350.320939	15604.000000
2351.870817	15705.000000
2353.423703	15821.000000
2354.971347	15685.000000
2356.521998	15755.000000
2358.069058	15431.000000
2359.617476	15119.000000
2361.165603	15568.000000
2362.710141	15253.000000
2364.256037	15213.000000
2365.799995	15024.000000
2367.345310	15253.000000
2368.887040	14985.000000
2370.430127	14818.000000
2371.971278	14807.000000
2373.512140	14859.000000
2375.052713	15103.000000
2376.592997	14836.000000
2378.132992	14839.000000
2379.669409	14757.000000
2381.208827	14720.000000
2382.744668	14581.000000
2384.281865	14554.000000
2385.815487	14693.000000
2387.352109	14525.000000
2388.886801	14166.000000
2390.419563	14243.000000
2391.952038	14145.000000
2393.482585	14279.000000
2395.016130	14408.000000
2396.544464	14227.000000
2398.074155	14305.000000
2399.603559	14279.000000
2401.132679	14123.000000
2402.661514	14093.000000
2404.185143	14245.000000
2405.713408	14339.000000
2407.236471	13833.000000
2408.764167	14070.000000
2410.285024	13838.000000
2411.810514	14033.000000
2413.332443	13733.000000
2414.855728	13895.000000
2416.377091	13645.000000
2417.896535	13818.000000
2419.417335	13768.000000
2420.936215	13521.000000
2422.454813	13625.000000
2423.971494	13591.000000
2425.489529	13551.000000
2427.007283	13882.000000
2428.521486	13502.000000
2430.035408	13419.000000
2431.549050	13513.000000
2433.064047	13568.000000
2434.575495	13499.000000
2436.088298	13329.000000
2437.599187	13113.000000
2439.109798	13113.000000
2440.618497	13107.000000
2442.130182	13046.000000
2443.638324	12972.000000
2445.146188	12977.000000
2446.653774	12982.000000
2448.157819	13194.000000
2449.664849	12759.000000
2451.169972	13288.000000
2452.674816	12754.000000
2454.177754	12925.000000
2455.680416	12878.000000
2457.182801	13026.000000
2458.683281	12597.000000
2460.185114	12620.000000
2461.685042	12594.000000
2463.184695	12645.000000
2464.684073	12420.000000
2466.181548	12267.000000
2467.677121	12507.000000
2469.175674	12521.000000
2470.670699	12092.000000
2472.167076	12287.000000
2473.659927	12345.000000
2475.154131	12552.000000
2476.648061	11892.000000
2478.138467	12427.000000
2479.631851	12277.000000
2481.123337	12159.000000
2482.612926	11973.000000
2484.102243	12211.000000
2485.589664	12257.000000
2487.080061	12191.000000
2488.566940	12321.000000
2490.055170	12183.000000
2491.539884	12487.000000
2493.024327	12275.000000
2494.510121	12111.000000
2495.994024	11865.000000
2497.479277	11913.000000
2498.959397	11980.000000
2500.442490	12177.000000
2501.923692	11972.000000
2503.404625	11992.000000
2504.883669	12021.000000
2506.362444	12047.000000
2507.840951	11995.000000
2509.319190	12168.000000
2510.797160	12327.000000
2512.271625	11988.000000
2513.749060	12030.000000
2515.222991	11977.000000
2516.698272	11883.000000
2518.173286	11733.000000
2519.644800	12027.000000
2521.117663	11861.000000
2522.588644	11623.000000
2524.060975	11819.000000
2525.528192	12039.000000
2526.998376	11859.000000
2528.466679	12127.000000
2529.934717	11869.000000
2531.402490	11770.000000
2532.869998	11891.000000
2534.337241	11570.000000
2535.800992	11637.000000
2537.266093	11869.000000
2538.729317	11748.000000
2540.193891	11612.000000
2541.654975	11658.000000
2543.117409	11841.000000
2544.579580	11582.000000
2546.038265	11887.000000
2547.501522	11537.000000
2548.959682	11836.000000
2550.419191	11598.000000
2551.873606	11575.000000
2553.332592	11661.000000
2554.789706	11675.000000
2556.244949	11631.000000
2557.699931	11523.000000
2559.153043	11619.000000
2560.607504	11461.000000
2562.060095	11505.000000
2563.512427	11310.000000
2564.962892	11407.000000
2566.416312	11588.000000
2567.864650	11618.000000
2569.315944	11315.000000
2570.765371	11467.000000
2572.211326	11538.000000
2573.660236	11754.000000
2575.105676	11458.000000
2576.552463	11397.000000
2577.997388	11404.000000
2579.442054	11503.000000
2580.888068	11155.000000
2582.330616	11262.000000
2583.774511	11339.000000
2585.214941	11396.000000
2586.656718	11410.000000
2588.096636	11347.000000
2589.537901	11267.000000
2590.975704	11115.000000
2592.416457	11167.000000
2593.852148	11501.000000
2595.290788	11402.000000
2596.727570	11261.000000
2598.162497	11330.000000
2599.600371	11175.000000
2601.033188	11297.000000
2602.467352	11150.000000
2603.899662	11241.000000
2605.333318	11272.000000
2606.765121	11422.000000
2608.196670	11256.000000
2609.627967	11341.000000
2611.057411	11382.000000
2612.486603	11231.000000
2613.913945	11247.000000
2615.342632	11209.000000
2616.771068	11180.000000
2618.196056	11307.000000
2619.622391	11299.000000
2621.046877	11196.000000
2622.472709	11254.000000
2623.895097	11061.000000
2625.318831	10969.000000
2626.740718	11284.000000
2628.162356	11225.000000
2629.582148	11240.000000
2631.003286	11102.000000
2632.424174	11241.000000
2633.841624	11327.000000
2635.262013	11431.000000
2636.678965	11446.000000
2638.095668	11239.000000
2639.512123	11246.000000
2640.928330	11406.000000
2642.344289	11053.000000
2643.758407	11434.000000
2645.172277	11425.000000
2646.584309	11406.000000
2647.997684	11360.000000
2649.407630	11417.000000
2650.820512	11385.000000
2652.229965	11387.000000
2653.639172	11500.000000
2655.046543	11407.000000
2656.456848	11754.000000
2657.865318	11477.000000
2659.271952	11663.000000
2660.678341	11552.000000
2662.082896	12005.000000
2663.488795	11529.000000
2664.892861	11908.000000
2666.296682	11720.000000
2667.700259	11676.000000
2669.102005	11749.000000
2670.505094	12102.000000
2671.904765	11723.000000
2673.305780	11889.000000
2674.703379	12145.000000
2676.103908	12040.000000
2677.501021	12020.000000
2678.899479	11873.000000
2680.296108	12093.000000
2681.692495	11984.000000
2683.088640	11988.000000
2684.482960	12102.000000
2685.878621	12247.000000
2687.270874	12268.000000
2688.664469	12358.000000
2690.056240	12283.000000
2691.449354	12365.000000
2692.840644	12271.000000
2694.230111	12255.000000
2695.619338	12335.000000
2697.008326	12472.000000
2698.398655	12474.000000
2699.784001	12626.000000
2701.172270	12431.000000
2702.558719	12636.000000
2703.944929	12451.000000
2705.330900	12554.000000
2706.713473	12678.000000
2708.097388	12636.000000
2709.481065	12743.000000
2710.864503	12756.000000
2712.244547	12665.000000
2713.625931	13052.000000
2715.005501	12816.000000
2716.386411	12986.000000
2717.765507	13281.000000
2719.142789	13163.000000
2720.521412	13123.000000
2721.898222	13342.000000
2723.274795	12908.000000
2724.651133	13365.000000
2726.025660	13193.000000
2727.401527	13472.000000
2728.774007	13738.000000
2730.149403	13792.000000
2731.519839	13390.000000
2732.891616	13833.000000
2734.263158	13912.000000
2735.632892	13718.000000
2737.003967	13863.000000
2738.373233	13632.000000
2739.742266	14054.000000
2741.109493	14041.000000
2742.476487	14000.000000
2743.843247	14086.000000
2745.209776	13927.000000
2746.574499	14348.000000
2747.938990	14656.000000
2749.303250	14548.000000
2750.667277	14906.000000
2752.031073	14776.000000
2753.391495	14734.000000
2754.754827	14747.000000
2756.113217	14702.000000
2757.474517	14915.000000
2758.832447	14892.000000
2760.193285	15042.000000
2761.552324	15353.000000
2762.907994	15136.000000
2764.266572	15449.000000
2765.621783	15439.000000
2766.976765	15449.000000
2768.329951	15559.000000
2769.686043	15441.000000
2771.038770	16219.000000
2772.391270	15983.000000
2773.743541	15919.000000
2775.097151	16157.000000
2776.447399	16255.000000
2777.795853	16195.000000
2779.147213	16226.000000
2780.495213	16715.000000
2781.844551	16389.000000
2783.192098	16741.000000
2784.539417	16840.000000
2785.886510	16813.000000
2787.231812	16834.000000
2788.576887	16876.000000
2789.921737	17449.000000
2791.266361	17213.000000
2792.607633	17411.000000
2793.950243	17422.000000
2795.292627	17771.000000
2796.634786	18198.000000
2797.973597	18123.000000
2799.315306	17997.000000
2800.653668	18023.000000
2801.993366	18195.000000
2803.331280	18363.000000
2804.667409	18653.000000
2806.003314	18877.000000
2807.340557	18815.000000
2808.676016	19212.000000
2810.011252	19115.000000
2811.344705	19563.000000
2812.679495	19656.000000
2814.010945	20292.000000
2815.345290	19983.000000
2816.674737	20338.000000
2818.005521	20397.000000
2819.336083	20901.000000
2820.664866	21038.000000
2821.994985	21040.000000
2823.323326	21220.000000
2824.651446	21475.000000
2825.977788	21688.000000
2827.305467	21672.000000
2828.629812	22105.000000
2829.955494	21728.000000
2831.279400	22051.000000
2832.603087	22143.000000
2833.928109	22505.000000
2835.249801	23091.000000
2836.571275	22919.000000
2837.892530	23150.000000
2839.213566	23405.000000
2840.532829	23913.000000
2841.853428	24013.000000
2843.172256	24002.000000
2844.490865	24355.000000
2845.807703	24141.000000
2847.124324	24512.000000
2848.440728	24999.000000
2849.755362	25113.000000
2851.071332	25622.000000
2852.383981	25858.000000
2853.697965	26340.000000
2855.011733	26685.000000
2856.325285	26637.000000
2857.637069	26977.000000
2858.947087	27063.000000
2860.258440	27122.000000
2861.566478	27947.000000
2862.875850	27828.000000
2864.185008	28189.000000
2865.493950	28879.000000
2866.801128	29292.000000
2868.106544	29237.000000
2869.413294	29723.000000
2870.718281	30310.000000
2872.023055	30248.000000
2873.326067	30921.000000
2874.631960	31009.000000
2875.932999	30895.000000
2877.235372	31405.000000
2878.535985	32367.000000
2879.837932	33333.000000
2881.139666	32970.000000
2882.438095	32970.000000
2883.737858	33718.000000
2885.035864	33934.000000
2886.333658	34112.000000
2887.629696	35075.000000
2888.927067	35180.000000
2890.222682	35247.000000
2891.518086	35522.000000
2892.813279	36104.000000
2894.105175	36799.000000
2895.399947	36883.000000
2896.691422	36607.000000
2897.984230	37637.000000
2899.276828	37753.000000
2900.566132	38886.000000
2901.856768	38985.000000
2903.145653	39530.000000
2904.435870	39582.000000
2905.722796	40141.000000
2907.011054	41173.000000
2908.297563	40755.000000
2909.583864	41402.000000
2910.869956	42588.000000
2912.154300	42502.000000
2913.441515	42981.000000
2914.723904	43345.000000
2916.007625	43348.000000
2917.289600	45095.000000
2918.571367	44926.000000
2919.851390	45950.000000
2921.134282	46223.000000
2922.415429	45539.000000
2923.693294	47274.000000
2924.974028	47796.000000
2926.251481	48543.000000
2927.528728	48521.000000
2928.804233	48264.000000
2930.082606	49383.000000
2931.356165	49318.000000
2932.632591	50075.000000
2933.907276	50725.000000
2935.180220	51188.000000
2936.454496	52336.000000
2937.727032	53330.000000
2938.999363	52368.000000
2940.268422	53126.000000
2941.540346	54542.000000
2942.810532	54034.000000
2944.080514	55141.000000
2945.350293	54789.000000
2946.618336	56014.000000
2947.884642	56245.000000
2949.150747	57781.000000
2950.418181	57024.000000
2951.683881	58695.000000
2952.949378	55130.000000
2954.214673	58389.000000
2955.476703	58246.000000
2956.740063	59799.000000
2958.003222	59403.000000
2959.264649	60340.000000
2960.527405	60656.000000
2961.788429	60591.000000
2963.047723	61845.000000
2964.306817	62314.000000
2965.565710	61256.000000
2966.824403	62649.000000
2968.082896	63389.000000
2969.339660	63007.000000
2970.596224	62861.000000
2971.851061	63402.000000
2973.107226	63840.000000
2974.360137	62853.000000
2975.614377	63491.000000
2976.868418	63692.000000
2978.120733	63736.000000
2979.372849	63906.000000
2980.623241	63747.000000
2981.876488	63370.000000
2983.124958	63873.000000
2984.376283	63576.000000
2985.624358	63898.000000
2986.872237	63838.000000
2988.119918	63762.000000
2989.367402	63703.000000
2990.613165	63393.000000
2991.858732	63863.000000
2993.105626	63904.000000
2994.349276	63427.000000
2995.594254	63913.000000
2996.835988	63971.000000
2998.080574	63933.000000
2999.323441	63770.000000
3000.563067	63849.000000
3001.805543	63905.000000
3003.044779	63737.000000
3004.285343	63917.000000
3005.524191	63072.000000
3006.762843	63939.000000
3007.999781	63964.000000
3009.238045	63771.000000
3010.474594	63960.000000
3011.710950	63406.000000
3012.947112	63947.000000
3014.181560	63906.000000
3015.415816	63753.000000
3016.649878	63912.000000
3017.882228	63748.000000
3019.112866	64028.000000
3020.346350	63884.000000
3021.578122	63983.000000
3022.808184	64025.000000
3024.038054	63874.000000
3025.266214	63745.000000
3026.495700	63394.000000
3027.723477	63865.000000
3028.951064	63681.000000
3030.179976	63700.000000
3031.404146	63885.000000
3032.631159	63414.000000
3033.854948	64031.000000
3035.080064	63522.000000
3036.303473	63970.000000
3037.526692	63580.000000
3038.748206	63739.000000
3039.972561	63719.000000
3041.192181	63899.000000
3042.413127	63844.000000
3043.633884	63862.000000
3044.852937	63929.000000
3046.073316	63328.000000
3047.290477	63683.000000
3048.508965	63594.000000
3049.725750	63910.000000
3050.942348	63867.000000
3052.158757	63953.000000
3053.371954	63914.000000
3054.587988	63856.000000
3055.800810	63953.000000
3057.016469	64053.000000
3058.227405	63741.000000
3059.439666	63532.000000
3060.651741	63782.000000
3061.863628	63564.000000
3063.073819	63945.000000
3064.283823	64028.000000
3065.493641	63808.000000
3066.701763	63974.000000
3067.909700	63958.000000
3069.115941	63864.000000
3070.323507	63940.000000
3071.529378	63804.500000
3072.735065	63669.000000
3073.940566	63958.000000
3075.144374	63886.000000
3076.349506	63957.000000
3077.552946	64041.000000
3078.754693	63488.000000
3079.956256	64025.000000
3081.157636	63600.000000
3082.358832	63953.000000
3083.558338	63724.000000
3084.757661	63840.000000
3085.958307	63906.000000
3087.157263	63534.000000
3088.353025	63842.000000
3089.551616	63804.000000
3090.747013	62973.000000
3091.943733	63989.000000
3093.137261	63912.000000
3094.333617	64091.000000
3095.528287	63699.000000
3096.719766	63763.000000
3097.915576	63988.000000
3099.106693	64056.000000
3100.299132	63621.000000
3101.488384	63922.000000
3102.680461	63603.000000
3103.870855	63766.000000
3105.058063	64049.000000
3106.246594	63977.000000
3107.436446	63782.000000
3108.623115	64080.000000
3109.809604	63258.000000
3110.995913	63981.000000
3112.183544	63976.000000
3113.367993	64035.000000
3114.550763	63833.000000
3115.736355	62591.000000
3116.920268	64036.000000
3118.102502	64042.000000
3119.284557	63939.000000
3120.466434	63847.000000
3121.648133	63845.000000
3122.828155	63882.000000
3124.006500	63956.000000
3125.187665	63898.000000
3126.365656	63753.000000
3127.543469	63979.000000
3128.721105	64000.000000
3129.897066	63786.000000
3131.072850	63880.000000
3132.249956	63335.000000
3133.425387	63883.000000
3134.599145	63492.000000
3135.771230	63780.000000
3136.944637	63894.000000
3138.117867	63839.000000
3139.289426	63944.000000
3140.462305	63671.000000
3141.632017	63682.000000
3142.803050	63656.000000
3143.972413	63934.000000
3145.140105	63943.000000
3146.310614	63550.000000
3147.476463	63960.000000
3148.646621	63988.000000
3149.812123	63644.000000
3150.977450	64034.000000
3152.142605	63924.000000
3153.307585	63762.000000
3154.473885	63913.000000
3155.635533	64042.000000
3156.798500	63404.000000
3157.961295	63838.000000
3159.123917	63926.000000
3160.284874	63353.000000
3161.445658	63900.000000
3162.606270	63944.000000
3163.765218	63892.000000
3164.923995	64017.000000
3166.082600	63442.000000
3167.241033	63972.000000
3168.399294	63771.000000
3169.555893	63892.000000
3170.710831	63806.000000
3171.867088	63971.000000
3173.021684	63821.000000
3174.176110	63914.000000
3175.328876	63797.000000
3176.481472	63799.000000
3177.633897	63855.000000
3178.786153	63683.000000
3179.938238	63944.000000
3181.087178	63579.000000
3182.238924	63857.000000
3183.389012	63682.000000
3184.537444	63779.000000
3185.685706	63972.000000
3186.833800	63901.000000
3187.981725	63883.000000
3189.127994	63438.000000
3190.274096	63960.000000
3191.418542	63785.000000
3192.562821	63941.000000
3193.706932	63749.000000
3194.852360	63823.000000
3195.994650	63773.000000
3197.136773	63757.000000
3198.278728	63758.000000
3199.420516	63845.000000
3200.562137	63841.000000
3201.700623	63707.000000
3202.840426	63862.000000
3203.981547	63779.000000
3205.119533	63824.000000
3206.255870	63525.000000
3207.392041	63645.000000
3208.529529	63551.000000
3209.665369	63883.000000
3210.802526	63524.000000
3211.935070	63728.000000
3213.071896	63893.000000
3214.204110	63629.000000
3215.337641	63960.000000
3216.471008	63797.000000
3217.601247	63894.000000
3218.734284	63870.000000
3219.864195	63247.000000
3220.995422	63251.000000
3222.123525	63321.000000
3223.254424	63942.000000
3224.383679	64001.000000
3225.511291	63747.000000
3226.635780	63464.000000
3227.764545	63640.000000
3228.890188	63555.000000
3230.015669	63628.000000
3231.139508	63682.000000
3232.266141	63881.000000
3233.388177	63870.000000
3234.511529	63717.000000
3235.634719	63448.000000
3236.757747	63476.000000
3237.879135	63967.000000
3239.000361	63882.000000
3240.119950	63993.000000
3241.239377	63831.000000
3242.357166	63810.000000
3243.477747	63757.000000
3244.595215	63607.000000
3245.712522	63874.000000
3246.829669	62926.000000
3247.945180	63822.000000
3249.062005	64015.000000
3250.175721	63749.000000
3251.292226	63687.000000
3252.407097	63450.000000
3253.518859	63717.000000
3254.630461	63827.000000
3255.743379	63723.000000
3256.856137	63925.000000
3257.965789	63731.000000
3259.076756	63824.000000
3260.187564	63888.000000
3261.296740	63817.000000
3262.404286	62967.000000
3263.513145	63829.000000
3264.621847	63856.000000
3265.727446	63887.000000
3266.834359	63157.000000
3267.939643	61695.000000
3269.046241	63477.000000
3270.149739	63931.000000
3271.254552	63646.000000
3272.359207	63934.000000
3273.460763	63232.000000
3274.562163	63668.000000
3275.664878	63868.000000
3276.767435	63834.000000
3277.866896	63813.000000
3278.969141	63491.000000
3280.068290	63736.000000
3281.165815	63159.000000
3282.263184	63681.000000
3283.363335	63800.000000
3284.460394	63676.000000
3285.557297	63809.000000
3286.654045	63418.000000
3287.746235	63942.000000
3288.842673	63732.000000
3289.937489	63391.000000
3291.032151	63793.000000
3292.125191	63500.000000
3293.218077	63903.000000
3294.309342	63845.000000
3295.401919	64024.000000
3296.492877	63488.000000
3297.582215	63338.000000
3298.671400	63801.000000
3299.761898	63955.000000
3300.849311	63321.000000
3301.936571	63928.000000
3303.025144	63824.000000
3304.113565	63979.000000
3305.197438	63889.000000
3306.285553	63899.000000
3307.370587	63955.000000
3308.454004	63754.000000
3309.538734	63643.000000
3310.621849	63923.000000
3311.706275	63905.000000
3312.787623	63868.000000
3313.870283	63946.000000
3314.951329	63746.000000
3316.032224	63971.000000
3317.111505	64013.000000
3318.190636	63915.000000
3319.271079	63953.000000
3320.348447	63624.000000
3321.427127	64010.000000
3322.504195	63910.000000
3323.581114	63958.000000
3324.656421	63796.000000
3325.731579	64024.000000
3326.808048	64028.000000
3327.881447	64019.000000
3328.954697	63850.000000
3330.029257	63954.000000
3331.102209	64031.000000
3332.173552	64014.000000
3333.246206	63967.000000
3334.315794	63869.000000
3335.386692	63836.000000
3336.455983	63782.000000
3337.526585	63782.000000
3338.595580	64078.000000
3339.662969	63692.000000
3340.728753	63882.000000
3341.798763	63806.000000
3342.865710	63799.000000
3343.929595	63250.000000
3344.996248	64024.000000
3346.061296	64040.000000
3347.124741	62743.000000
3348.188040	63997.000000
3349.251192	64007.000000
3350.314198	64009.000000
3351.377058	63986.000000
3352.438316	64097.000000
3353.496517	64059.000000
3354.558938	63947.000000
3355.618304	63877.000000
3356.677524	63358.000000
3357.738054	64103.000000
3358.794074	63853.000000
3359.852858	63852.000000
3360.907135	63964.000000
3361.964176	63899.000000
3363.019618	64021.000000
3364.076370	64017.000000
3365.131523	64075.000000
3366.185079	64126.000000
3367.237039	63939.000000
3368.291760	64091.000000
3369.343432	63932.000000
3370.394961	63840.000000
3371.447798	63910.000000
3372.497588	64038.000000
3373.548687	63925.000000
3374.596740	64162.000000
3375.647552	64065.000000
3376.695320	64159.000000
3377.742945	64062.000000
3378.790427	64125.000000
3379.836317	62834.000000
3380.883515	64001.000000
3381.927671	64099.000000
3382.974585	63979.000000
3384.019907	63964.000000
3385.062188	63643.000000
3386.104329	64030.000000
3387.147777	64024.000000
3388.191084	64091.000000
3389.232802	64102.000000
3390.274378	63533.000000
3391.315814	64113.000000
3392.355660	64093.000000
3393.393918	63810.000000
3394.433484	64122.000000
3395.472910	63915.000000
3396.510748	64170.000000
3397.546999	64053.000000
3398.583111	63604.000000
3399.620530	64091.000000
3400.654916	64095.000000
3401.690609	64197.000000
3402.726163	64066.000000
3403.758686	64214.000000
3404.793962	64129.000000
3405.826207	64120.000000
3406.858314	64114.000000
3407.888837	63933.000000
3408.920667	64162.000000
3409.952359	63897.000000
3410.981023	63699.000000
3412.009550	64113.000000
3413.039383	64138.000000
3414.069079	63795.000000
3415.095749	63632.000000
3416.123726	64130.000000
3417.148678	63708.000000
3418.176380	64107.000000
3419.201059	63987.000000
3420.227044	63714.000000
3421.251449	64096.000000
3422.275718	64016.000000
3423.298408	64129.000000
3424.320962	64168.000000
3425.344822	63426.000000
3426.365662	64160.000000
3427.386366	64111.000000
3428.408377	64083.000000
3429.427369	63831.000000
3430.446226	64169.000000
3431.466388	63765.000000
3432.483534	64182.000000
