-116.773079	70.000000
-114.103479	80.000000
-111.436814	119.000000
-108.770901	104.000000
-106.107920	109.000000
-103.443510	67.000000
-100.782030	47.000000
-98.119121	118.000000
-95.461318	113.000000
-92.802086	73.000000
-90.143602	155.000000
-87.488042	112.000000
-84.831054	148.000000
-82.179164	131.000000
-79.525843	98.000000
-76.875443	172.000000
-74.223613	173.000000
-71.576874	65.000000
-68.928706	103.000000
-66.281280	111.000000
-63.636768	121.000000
-60.990828	95.000000
-58.349969	148.000000
-55.707681	140.000000
-53.068301	139.000000
-50.427493	137.000000
-47.787425	153.000000
-45.152429	129.000000
-42.516005	147.000000
-39.882483	200.000000
-37.247533	224.000000
-34.617648	209.000000
-31.984171	185.000000
-29.355756	246.000000
-26.728075	247.000000
-24.098965	281.000000
-21.474912	396.000000
-18.847270	325.000000
-16.224681	582.000000
-13.602824	676.000000
-10.981697	1171.000000
-8.361300	2399.000000
-5.743792	8680.000000
-3.124855	31281.000000
-0.508803	64445.000000
2.106520	64443.000000
4.721116	48898.000000
7.332829	3336.000000
9.945971	865.000000
12.554079	509.000000
15.165769	442.000000
17.772428	290.000000
20.380515	265.000000
22.987878	235.000000
25.590216	297.000000
28.196132	265.000000
30.797026	236.000000
33.399348	261.000000
35.996653	288.000000
38.597533	201.000000
41.193398	173.000000
43.790692	211.000000
46.387266	262.000000
48.978831	212.000000
51.571824	282.000000
54.161956	191.000000
56.753516	252.000000
59.342216	233.000000
61.932343	259.000000
64.517471	238.000000
67.104027	295.000000
69.689869	248.000000
72.272857	322.000000
74.857271	224.000000
77.434557	268.000000
80.015409	288.000000
82.593412	379.000000
85.170705	261.000000
87.749424	323.000000
90.323161	351.000000
92.898326	435.000000
95.470647	424.000000
98.042260	422.000000
100.611033	446.000000
103.181233	507.000000
105.748595	490.000000
108.317382	605.000000
110.883333	802.000000
113.446449	1012.000000
116.013121	1314.000000
118.570572	1808.000000
121.133708	2491.000000
123.691884	3710.000000
126.253615	5424.000000
128.810389	7964.000000
131.368590	12392.000000
133.921837	18134.000000
136.474387	26795.000000
139.030487	36495.000000
141.581639	47496.000000
144.132094	56343.000000
146.681851	60373.000000
149.228789	63432.000000
151.775032	64499.000000
154.322700	64479.000000
156.869672	64490.000000
159.411709	64410.000000
161.953052	64356.000000
164.493702	64484.000000
167.035778	64390.000000
169.575042	64458.000000
172.111498	64132.000000
174.647262	63788.000000
177.184452	62930.000000
179.720951	62712.000000
182.254644	62545.000000
184.785533	61621.000000
187.315735	61147.000000
189.847361	60558.000000
192.376186	59766.000000
194.902212	58959.000000
197.427552	58159.000000
199.954318	57376.000000
202.478286	56073.000000
205.001570	55600.000000
207.524169	54568.000000
210.043975	52952.000000
212.563098	52011.000000
215.081538	50775.000000
217.601402	49685.000000
220.114265	48593.000000
222.630659	47582.000000
225.146371	46171.000000
227.657193	45688.000000
230.169440	44010.000000
232.678905	43617.000000
235.187691	42394.000000
237.695798	41562.000000
240.205330	40239.000000
242.709981	39934.000000
245.213956	38617.000000
247.719355	37900.000000
250.219879	37486.000000
252.723927	36920.000000
255.221003	36026.000000
257.721603	34869.000000
260.219431	34339.000000
262.716586	33313.000000
265.213068	33051.000000
267.704687	32534.000000
270.199826	31803.000000
272.692198	30506.000000
275.183901	30494.000000
277.672839	29674.000000
280.163202	28810.000000
282.650802	28706.000000
285.135643	27574.000000
287.623999	27543.000000
290.105415	27010.000000
292.590345	26479.000000
295.070430	25980.000000
297.554027	25565.000000
300.032781	25203.000000
302.512959	25324.000000
304.990384	24824.000000
307.467146	24258.000000
309.943245	24626.000000
312.416595	23794.000000
314.889283	24111.000000
317.361310	23314.000000
319.832676	23572.000000
322.301297	23350.000000
324.769260	23608.000000
327.238644	23030.000000
329.703206	23200.000000
332.171272	22822.000000
334.634518	23314.000000
337.097106	22943.000000
339.559038	23122.000000
342.020313	23142.000000
344.478854	23106.000000
346.938817	23216.000000
349.396047	23091.000000
351.852623	23430.000000
354.308545	23000.000000
356.761737	22789.000000
359.216352	22853.000000
361.666165	23050.000000
364.119474	22750.000000
366.567985	23191.000000
369.015844	22885.000000
371.465126	22961.000000
373.909614	23282.000000
376.355524	22806.000000
378.800784	23090.000000
381.243326	23141.000000
383.685220	23380.000000
386.126467	23317.000000
388.564998	23490.000000
391.004951	23528.000000
393.442190	23194.000000
395.876717	23227.000000
398.314732	23457.000000
400.747970	23859.000000
403.182629	23345.000000
405.612516	23497.000000
408.045888	23924.000000
410.474490	24111.000000
412.902450	23943.000000
415.331832	24045.000000
417.756448	24339.000000
420.182486	24575.000000
422.607883	24299.000000
425.032640	24994.000000
427.452639	24887.000000
429.874059	25340.000000
432.292782	25841.000000
434.712926	26044.000000
437.130375	26010.000000
439.549244	25768.000000
441.965420	26175.000000
444.376848	25679.000000
446.791754	25621.000000
449.203969	25168.000000
451.615550	24901.000000
454.026497	24874.000000
456.434758	24480.000000
458.842386	24485.000000
461.249382	24265.000000
463.655747	23825.000000
466.059429	23658.000000
468.462481	23738.000000
470.864903	23744.000000
473.266695	23821.000000
475.665810	23608.000000
478.066344	23238.000000
480.466249	23434.000000
482.861431	23136.000000
485.260080	23407.000000
487.654009	22996.000000
490.047312	23408.000000
492.439989	23150.000000
494.832041	22951.000000
497.225511	22642.000000
499.614270	22477.000000
502.000361	22144.000000
504.387873	21988.000000
506.774762	21664.000000
509.158987	21736.000000
511.544630	21475.000000
513.927612	21535.000000
516.307933	21054.000000
518.689673	21177.000000
521.068754	21216.000000
523.449254	20873.000000
525.827096	20344.000000
528.202283	20680.000000
530.576852	20641.000000
532.952839	20651.000000
535.326174	20411.000000
537.700926	20469.000000
540.070993	20181.000000
542.440444	20154.000000
544.811313	20186.000000
547.177502	19931.000000
549.545109	20213.000000
551.910070	19743.000000
554.274418	19720.000000
556.638153	20032.000000
559.003306	19842.000000
561.363787	19986.000000
563.725686	20192.000000
566.084944	19783.000000
568.441565	19433.000000
570.801630	19728.000000
573.155004	19728.000000
575.511823	19591.000000
577.866007	19446.000000
580.219583	19538.000000
582.572550	19457.000000
584.922885	18943.000000
587.274638	19154.000000
589.619714	18940.000000
591.970254	19007.000000
594.314120	19115.000000
596.663448	19304.000000
599.008127	19026.000000
601.350182	19066.000000
603.693654	18817.000000
606.034503	18808.000000
608.374750	19055.000000
610.712376	18970.000000
613.053437	18832.000000
615.389860	18551.000000
617.727700	18697.000000
620.062923	18322.000000
622.395530	18478.000000
624.729553	18660.000000
627.060962	18528.000000
629.391774	18309.000000
631.721987	18258.000000
634.051602	18249.000000
636.376595	18341.000000
638.707028	18133.000000
641.032841	18703.000000
643.356046	18139.000000
645.680668	17889.000000
648.002684	18249.000000
650.324106	17935.000000
652.642926	18250.000000
654.963161	17985.000000
657.282803	18035.000000
659.599844	18297.000000
661.916293	17960.000000
664.230144	17872.000000
666.545411	18003.000000
668.858081	18023.000000
671.172166	17875.000000
673.481651	17667.000000
675.792552	17774.000000
678.100860	17842.000000
680.408580	17826.000000
682.717714	17750.000000
685.022256	17650.000000
687.326212	17484.000000
689.629582	17406.000000
691.934366	17392.000000
694.234564	17343.000000
696.536176	17310.000000
698.837204	17465.000000
701.133649	17130.000000
703.431510	17236.000000
705.728787	17240.000000
708.025481	17059.000000
710.317599	17055.000000
712.613128	17210.000000
714.904083	17407.000000
717.196453	16833.000000
719.486248	17115.000000
721.775462	17206.000000
724.064097	17198.000000
726.350159	17386.000000
728.637636	17393.000000
730.922541	16946.000000
733.206869	16808.000000
735.488628	17131.000000
737.771801	16694.000000
740.054397	16721.000000
742.332437	17064.000000
744.611892	16928.000000
746.890771	16696.000000
749.169074	17016.000000
751.442828	16821.000000
753.717995	17067.000000
755.992589	16597.000000
758.264624	16648.000000
760.538072	16851.000000
762.808962	16847.000000
765.077296	16744.000000
767.347043	16665.000000
769.614236	16805.000000
771.880858	16666.000000
774.146910	17057.000000
776.410411	16874.000000
778.675325	16651.000000
780.939669	16909.000000
783.199484	16698.000000
785.460711	16519.000000
787.721371	16732.000000
789.979485	16656.000000
792.235054	16471.000000
794.494014	16877.000000
796.746475	16639.000000
799.004302	16457.000000
801.257611	16517.000000
803.508380	16598.000000
805.760561	16501.000000
808.010203	16770.000000
810.261258	16522.000000
812.507801	16483.000000
814.755756	16232.000000
817.001177	16533.000000
819.248009	16038.000000
821.494280	16153.000000
823.736046	16030.000000
825.981196	16432.000000
828.219873	16233.000000
830.461932	15811.000000
832.699493	16190.000000
834.938466	15993.000000
837.174912	15981.000000
839.412769	15803.000000
841.648101	15712.000000
843.880910	15606.000000
846.115130	15659.000000
848.346827	16035.000000
850.577970	15942.000000
852.808558	15774.000000
855.038592	16064.000000
857.268072	16448.000000
859.493070	16628.000000
861.721443	17047.000000
863.945337	17488.000000
866.170641	18530.000000
868.391470	20419.000000
870.615671	22118.000000
872.835399	25917.000000
875.056537	29999.000000
877.277126	34738.000000
879.495204	36844.000000
881.714692	36366.000000
883.929714	32723.000000
886.144189	27910.000000
888.358115	23750.000000
890.571495	20843.000000
892.784327	18412.000000
894.996613	16982.000000
897.206396	16402.000000
899.415634	15666.000000
901.624327	15222.000000
903.830521	14821.000000
906.038124	14921.000000
908.243229	14402.000000
910.447791	14360.000000
912.649858	14346.000000
914.853334	13851.000000
917.054316	13934.000000
919.254756	13761.000000
921.456605	13867.000000
923.652063	13579.000000
925.850880	13658.000000
928.045258	13626.000000
930.242994	13253.000000
932.436294	13490.000000
934.631003	13374.000000
936.823226	13235.000000
939.014910	13398.000000
941.206057	13195.000000
943.394721	13382.000000
945.582849	13242.000000
947.768496	13222.000000
949.957495	13249.000000
952.142071	13239.000000
954.326112	13282.000000
956.513503	13328.000000
958.692590	13022.000000
960.875028	13107.000000
963.056932	13152.000000
965.236361	13064.000000
967.413318	13038.000000
969.591683	13082.000000
971.771455	13046.000000
973.944878	13169.000000
976.121647	12934.000000
978.294009	13326.000000
980.467779	13035.000000
982.637145	12984.000000
984.809855	13063.000000
986.980100	12786.000000
989.149816	12880.000000
991.319003	13057.000000
993.483793	12781.000000
995.651924	13183.000000
997.815661	12772.000000
999.980804	13101.000000
1002.143488	12817.000000
1004.305647	13067.000000
1006.465349	13070.000000
1008.624526	13373.000000
1010.785110	13385.000000
1012.943240	13248.000000
1015.100845	13486.000000
1017.257927	13430.000000
1019.414485	13433.000000
1021.566664	13511.000000
1023.720250	13541.000000
1025.873314	13474.000000
1028.023929	13557.000000
1030.175951	13918.000000
1032.323599	14340.000000
1034.474579	14779.000000
1036.621188	15129.000000
1038.767278	15766.000000
1040.912850	16648.000000
1043.059827	17671.000000
1045.200515	18002.000000
1047.344533	18538.000000
1049.486110	18421.000000
1051.627171	17719.000000
1053.769636	16544.000000
1055.905822	15720.000000
1058.045334	15609.000000
1060.180490	14984.000000
1062.318971	15100.000000
1064.453098	14605.000000
1066.586712	14712.000000
1068.721731	14989.000000
1070.852400	14938.000000
1072.984474	15303.000000
1075.114119	15741.000000
1077.243252	16415.000000
1079.371873	16887.000000
1081.499983	17240.000000
1083.625667	17606.000000
1085.750841	18166.000000
1087.877419	18160.000000
1089.999659	17940.000000
1092.123304	17237.000000
1094.242614	16244.000000
1096.367154	15645.000000
1098.485448	15173.000000
1100.605147	14449.000000
1102.722427	14085.000000
1104.839201	13883.000000
1106.955468	13582.000000
1109.069319	13357.000000
1111.184575	13282.000000
1113.295507	13393.000000
1115.409752	13049.000000
1117.519676	13232.000000
1119.631004	12887.000000
1121.741827	13117.000000
1123.848334	13129.000000
1125.958151	13069.000000
1128.063653	12919.000000
1130.170558	12886.000000
1132.271248	12851.000000
1134.377150	12675.000000
1136.478743	12542.000000
1138.581739	12594.000000
1140.684234	12522.000000
1142.780522	12148.000000
1144.882018	11928.000000
1146.979210	12124.000000
1149.075905	11640.000000
1151.172101	11935.000000
1153.267800	11833.000000
1155.363000	12013.000000
1157.455804	11757.000000
1159.550011	11900.000000
1161.638026	11904.000000
1163.731239	11759.000000
1165.818264	11606.000000
1167.908588	11737.000000
1169.994625	11821.000000
1172.083959	11587.000000
1174.167112	11660.000000
1176.251667	11704.000000
1178.337624	11696.000000
1180.419299	11651.000000
1182.502376	11562.000000
1184.583067	11718.000000
1186.663266	11407.000000
1188.742974	11443.000000
1190.822191	11550.000000
1192.899026	11523.000000
1194.973480	11432.000000
1197.051225	11460.000000
1199.124701	11629.000000
1201.199577	11614.000000
1203.270186	11646.000000
1205.342196	11526.000000
1207.411831	11371.000000
1209.482866	11239.000000
1211.553413	11356.000000
1213.619699	11384.000000
1215.687386	11830.000000
1217.752701	11382.000000
1219.819416	11513.000000
1221.881875	11198.000000
1223.947619	11383.000000
1226.009109	11418.000000
1228.072000	11250.000000
1230.132523	11391.000000
1232.192562	11598.000000
1234.252119	11498.000000
1236.309310	11412.000000
1238.366020	11563.000000
1240.420366	11475.000000
1242.477994	11273.000000
1244.533259	11608.000000
1246.584283	11561.000000
1248.636707	11444.000000
1250.688651	11672.000000
1252.738237	11809.000000
1254.787344	11724.000000
1256.835973	11828.000000
1258.884123	11700.000000
1260.931794	11871.000000
1262.975235	11909.000000
1265.021952	12025.000000
1267.066315	12591.000000
1269.110202	12485.000000
1271.151737	13044.000000
1273.190923	13222.000000
1275.233382	13433.000000
1277.271618	13968.000000
1279.311253	13815.000000
1281.350413	13581.000000
1283.385354	13500.000000
1285.421694	13117.000000
1287.455690	12826.000000
1289.491083	12565.000000
1291.522264	12303.000000
1293.554842	12323.000000
1295.586949	12131.000000
1297.616715	11948.000000
1299.647879	11741.000000
1301.674835	11698.000000
1303.703189	11538.000000
1305.727339	11607.000000
1307.754753	11408.000000
1309.777965	11497.000000
1311.802575	11527.000000
1313.824851	11198.000000
1315.848524	11118.000000
1317.869864	11117.000000
1319.890736	11211.000000
1321.911141	11138.000000
1323.927353	11316.000000
1325.944962	10890.000000
1327.960243	11161.000000
1329.978783	11252.000000
1331.993134	10980.000000
1334.005159	11117.000000
1336.020441	10921.000000
1338.031538	11009.000000
1340.044032	10973.000000
1342.052343	11337.000000
1344.063909	11021.000000
1346.069437	10777.000000
1348.078220	10889.000000
1350.082825	10916.000000
1352.090684	10907.000000
1354.098081	10919.000000
1356.099447	11003.000000
1358.102209	10738.000000
1360.104512	10872.000000
1362.106355	10738.000000
1364.107738	10858.000000
1366.106808	10916.000000
1368.105419	10922.000000
1370.103572	10907.000000
1372.101266	10780.000000
1374.094798	10952.000000
1376.089726	11029.000000
1378.084196	11066.000000
1380.078210	11250.000000
1382.069917	11329.000000
1384.061169	11407.000000
1386.050115	11218.000000
1388.040456	11089.000000
1390.030342	11304.000000
1392.017924	11175.000000
1394.005053	11283.000000
1395.989880	11179.000000
1397.976102	11356.000000
1399.960024	11406.000000
1401.943493	11449.000000
1403.926509	11284.000000
1405.907228	11497.000000
1407.889341	11447.000000
1409.869158	11290.000000
1411.848523	11479.000000
1413.823750	11449.000000
1415.802215	11619.000000
1417.778387	11540.000000
1419.754110	11733.000000
1421.729383	11836.000000
1423.702365	12041.000000
1425.674899	11946.000000
1427.646985	11870.000000
1429.618624	12434.000000
1431.586134	12327.000000
1433.558718	12339.000000
1435.523497	12554.000000
1437.493347	12680.000000
1439.459074	12816.000000
1441.426193	13741.000000
1443.391029	13526.000000
1445.351745	14442.000000
1447.317529	15371.000000
1449.277358	16319.000000
1451.238581	17587.000000
1453.201196	18900.000000
1455.159696	19547.000000
1457.117753	19298.000000
1459.075369	18504.000000
1461.032542	16869.000000
1462.987440	15557.000000
1464.943731	14495.000000
1466.897747	13436.000000
1468.851322	13189.000000
1470.802625	12653.000000
1472.755321	12519.000000
1474.705745	12188.000000
1476.655729	12509.000000
1478.605275	12315.000000
1480.552552	12637.000000
1482.497561	12872.000000
1484.443963	13027.000000
1486.389927	12831.000000
1488.335454	12612.000000
1490.278715	12221.000000
1492.221541	12069.000000
1494.162103	11698.000000
1496.104056	11487.000000
1498.043747	11161.000000
1499.983004	10883.000000
1501.921825	11165.000000
1503.858387	10900.000000
1505.796340	10888.000000
1507.732034	10775.000000
1509.667295	10502.000000
1511.600300	10638.000000
1513.532872	10459.000000
1515.465012	10619.000000
1517.396720	10526.000000
1519.326174	10754.000000
1521.257019	10257.000000
1523.187432	10273.000000
1525.113773	10390.000000
1527.041505	10484.000000
1528.966986	10433.000000
1530.892038	10408.000000
1532.816661	10175.000000
1534.740855	10174.000000
1536.662801	10253.000000
1538.586138	10210.000000
1540.507228	10257.000000
1542.426075	10361.000000
1544.346310	10347.000000
1546.264303	10449.000000
1548.181869	10424.000000
1550.097193	10454.000000
1552.013907	10279.000000
1553.926566	10328.000000
1555.842429	10601.000000
1557.756052	10381.000000
1559.667438	10669.000000
1561.580212	10481.000000
1563.488937	10479.000000
1565.399051	10615.000000
1567.308742	10317.000000
1569.218010	10495.000000
1571.125044	10731.000000
1573.029845	10714.000000
1574.936035	10786.000000
1576.839993	10811.000000
1578.743530	10626.000000
1580.646647	11087.000000
1582.547534	11048.000000
1584.449810	10916.000000
1586.349858	11166.000000
1588.251293	11172.000000
1590.148695	11222.000000
1592.045678	11383.000000
1593.942243	11379.000000
1595.840196	11478.000000
1597.732314	11382.000000
1599.627625	11610.000000
1601.522519	11874.000000
1603.415191	11720.000000
1605.307446	12031.000000
1607.197482	11972.000000
1609.087102	12145.000000
1610.976307	12146.000000
1612.865097	12235.000000
1614.751669	12715.000000
1616.639629	12610.000000
1618.523572	12844.000000
1620.408902	13015.000000
1622.293819	12941.000000
1624.176522	12796.000000
1626.060612	12888.000000
1627.940691	13166.000000
1629.822156	13234.000000
1631.701411	13443.000000
1633.582052	13169.000000
1635.456889	13326.000000
1637.336707	13128.000000
1639.212521	13410.000000
1641.087924	13203.000000
1642.964713	13051.000000
1644.835706	13170.000000
1646.709880	12810.000000
1648.580056	13120.000000
1650.453412	12800.000000
1652.324565	12645.000000
1654.193516	12588.000000
1656.063852	12506.000000
1657.930196	12481.000000
1659.797925	12199.000000
1661.663455	12181.000000
1663.530371	12087.000000
1665.393298	11597.000000
1667.257610	11793.000000
1669.119726	11680.000000
1670.981437	11542.000000
1672.844534	11492.000000
1674.705435	11103.000000
1676.564144	10881.000000
1678.422449	11139.000000
1680.282139	10892.000000
1682.136061	10817.000000
1683.993157	10496.000000
1685.849850	10368.000000
1687.702566	10090.000000
1689.558454	10017.000000
1691.410368	10107.000000
1693.261881	10003.000000
1695.112993	9859.000000
1696.963705	9694.000000
1698.814016	9589.000000
1700.662142	9247.000000
1702.511653	9180.000000
1704.355415	9012.000000
1706.204126	8919.000000
1708.047091	8778.000000
1709.893223	8732.000000
1711.735392	8339.000000
1713.580727	8666.000000
1715.420321	8127.000000
1717.261299	8026.000000
1719.103660	8203.000000
1720.942065	8004.000000
1722.781853	8070.000000
1724.619466	8080.000000
1726.456683	7810.000000
1728.291727	7920.000000
1730.128154	7673.000000
1731.962409	7522.000000
1733.796269	7321.000000
1735.629735	7177.000000
1737.459256	7273.000000
1739.291935	7209.000000
1741.120670	7102.000000
1742.952562	7097.000000
1744.780512	7149.000000
1746.608071	7027.000000
1748.435237	7124.000000
1750.262012	6979.000000
1752.088395	6820.000000
1753.910842	6855.000000
1755.736444	6955.000000
1757.558111	6798.000000
1759.381160	6625.000000
1761.202047	6764.000000
1763.022546	6548.000000
1764.844426	6628.000000
1766.660606	6540.000000
1768.479938	6489.000000
1770.295343	6457.000000
1772.113898	6417.000000
1773.928528	6557.000000
1775.742771	6285.000000
1777.556628	6443.000000
1779.370098	6337.000000
1781.181415	6425.000000
1782.994112	6233.000000
1784.806424	6324.000000
1786.614818	6070.000000
1788.424592	6257.000000
1790.230452	6103.000000
1792.039457	6007.000000
1793.844549	5962.000000
1795.651022	6050.000000
1797.457111	5953.000000
1799.259289	5954.000000
1801.064612	6116.000000
1802.866026	5804.000000
1804.668820	5990.000000
1806.467708	5984.000000
1808.267977	6038.000000
1810.067864	5953.000000
1811.865609	5926.000000
1813.662974	5894.000000
1815.459959	5749.000000
1817.256563	5898.000000
1819.051028	5947.000000
1820.846872	5834.000000
1822.637061	5939.000000
1824.432147	5831.000000
1826.221581	5828.000000
1828.014151	5716.000000
1829.804586	5770.000000
1831.592887	5677.000000
1833.384323	5680.000000
1835.170113	5761.000000
1836.957283	5695.000000
1838.742321	5876.000000
1840.530493	5751.000000
1842.314779	5629.000000
1844.096935	5643.000000
1845.880471	5796.000000
1847.661878	5725.000000
1849.444664	5735.000000
1851.223569	5617.000000
1853.003854	5638.000000
1854.782012	5541.000000
1856.561549	5690.000000
1858.338961	5500.000000
1860.114249	5471.000000
1861.890915	5548.000000
1863.665459	5602.000000
1865.441381	5473.000000
1867.211682	5617.000000
1868.985111	5614.000000
1870.756420	5545.000000
1872.527358	5547.000000
1874.299674	5651.000000
1876.066376	5645.000000
1877.836204	5586.000000
1879.602168	5507.000000
1881.371255	5386.000000
1883.136481	5468.000000
1884.901339	5533.000000
1886.667574	5613.000000
1888.429950	5466.000000
1890.191959	5374.000000
1891.953600	5437.000000
1893.714875	5397.000000
1895.475782	5517.000000
1897.236323	5323.000000
1898.994754	5350.000000
1900.752819	5371.000000
1902.508777	5482.000000
1904.266111	5323.000000
1906.023080	5541.000000
1907.777942	5365.000000
1909.530700	5392.000000
1911.283093	5369.000000
1913.036863	5429.000000
1914.788529	5489.000000
1916.538093	5303.000000
1918.289032	5417.000000
1920.039609	5147.000000
1921.786346	5461.000000
1923.534460	5372.000000
1925.280474	5144.000000
1927.027863	5324.000000
1928.773155	5472.000000
1930.516349	5402.000000
1932.260918	5444.000000
1934.003392	5399.000000
1935.745505	5353.000000
1937.487258	5319.000000
1939.228652	5557.000000
1940.967951	5369.000000
1942.706892	5354.000000
1944.445474	5468.000000
1946.181965	5414.000000
1947.918098	5422.500000
1949.655605	5431.000000
1951.389290	5480.000000
1953.124350	5564.000000
1954.857321	5412.000000
1956.589936	5297.000000
1958.322195	5430.000000
1960.054097	5381.000000
1961.783913	5525.000000
1963.511644	5420.000000
1965.240750	5595.000000
1966.969501	5603.000000
1968.696168	5584.000000
1970.422481	5495.000000
1972.150167	5751.000000
1973.872317	5464.000000
1975.597568	5463.000000
1977.319012	5499.000000
1979.043557	5592.000000
1980.766021	5410.000000
1982.484683	5559.000000
1984.206443	5460.000000
1985.924401	5679.000000
1987.643732	5610.000000
1989.359264	5630.000000
1991.079616	5594.000000
1992.796170	5625.000000
1994.508927	5550.000000
1996.224780	5826.000000
1997.938561	5610.000000
1999.651992	5536.000000
2001.363352	5451.000000
2003.076084	5740.000000
2004.785026	5675.000000
2006.497060	5628.000000
2008.203586	5791.000000
2009.913203	5674.000000
2011.620754	5731.000000
2013.327956	5854.000000
2015.033093	5783.000000
2016.737884	5830.000000
2018.444046	5702.000000
2020.146426	5898.000000
2021.850177	5799.000000
2023.551866	5889.000000
2025.253210	5778.000000
2026.954208	5808.000000
2028.653145	5814.000000
2030.353454	5775.000000
2032.049988	5855.000000
2033.747893	5664.000000
2035.443739	5756.000000
2037.142671	5948.000000
2038.836117	5880.000000
2040.530934	5712.000000
2042.225409	5780.000000
2043.916115	5891.000000
2045.609905	5920.000000
2047.299928	5777.000000
2048.991322	5896.000000
2050.680663	6019.000000
2052.371374	5816.000000
2054.058322	5945.000000
2055.744931	5729.000000
2057.432909	5827.000000
2059.117128	5776.000000
2060.802718	6019.000000
2062.487968	6025.000000
2064.171170	5927.000000
2065.855741	5968.000000
2067.534850	5833.000000
2069.218744	5934.000000
2070.897177	5896.000000
2072.578688	5832.000000
2074.256447	6005.000000
2075.933870	5793.000000
2077.612662	6002.000000
2079.289412	5899.000000
2080.964120	6007.000000
2082.640197	6035.000000
2084.314234	5845.000000
2085.987935	5816.000000
2087.661301	5887.000000
2089.332628	5690.000000
2091.003622	5809.000000
2092.674280	5717.000000
2094.344605	5811.000000
2096.014596	5878.000000
2097.682551	5790.000000
2099.350173	5865.000000
2101.015760	5883.000000
2102.682716	6036.000000
2104.347639	6014.000000
2106.012230	5806.000000
2107.674789	5984.000000
2109.338716	6030.000000
2111.000612	5943.000000
2112.662178	5898.000000
2114.323412	5852.000000
2115.982618	5929.000000
2117.641493	6078.000000
2119.300039	5908.000000
2120.958255	6024.000000
2122.612747	5984.000000
2124.270304	5916.000000
2125.927532	5956.000000
2127.581038	5917.000000
2129.235912	6067.000000
2130.887067	6097.000000
2132.541285	5916.000000
2134.191786	5767.000000
2135.843653	6049.000000
2137.490112	5753.000000
2139.141326	5669.000000
2140.788826	5989.000000
2142.437693	5846.000000
2144.084541	5978.000000
2145.731064	5791.000000
2147.377261	5945.000000
2149.019750	5753.000000
2150.665297	5820.000000
2152.307137	5845.000000
2153.952034	5730.000000
2155.593226	5629.000000
2157.234094	5683.000000
2158.874638	5577.000000
2160.513170	5644.000000
2162.153068	5539.000000
2163.789266	5569.000000
2165.426830	5628.000000
2167.064072	5681.000000
2168.699304	5586.000000
2170.334215	5764.000000
2171.968804	5605.000000
2173.603071	5533.000000
2175.233645	5555.000000
2176.867271	5434.000000
2178.497205	5432.000000
2180.128504	5521.000000
2181.757798	5537.000000
2183.386773	5491.000000
2185.015428	5446.000000
2186.643764	5539.000000
2188.270098	5329.000000
2189.896113	5313.000000
2191.520126	5486.000000
2193.145505	5324.000000
2194.768883	5286.000000
2196.393626	5411.000000
2198.014688	5351.000000
2199.635433	5404.000000
2201.257543	5243.000000
2202.877655	5264.000000
2204.495770	5104.000000
2206.113570	5170.000000
2207.731055	5115.000000
2209.348224	5263.000000
2210.965078	5316.000000
2212.581616	5335.000000
2214.196162	5058.000000
2215.808715	5172.000000
2217.422632	5112.000000
2219.034558	5171.000000
2220.647847	5120.000000
2222.259146	5194.000000
2223.868455	5139.000000
2225.479128	5159.000000
2227.087812	5030.000000
2228.696183	5037.000000
2230.302568	4888.000000
2231.910316	4977.000000
2233.516077	4760.000000
2235.121527	4870.000000
2236.724992	5083.000000
2238.329820	4937.000000
2239.932664	4897.000000
2241.533525	4915.000000
2243.135749	4838.000000
2244.735991	4847.000000
2246.337595	4921.000000
2247.935547	4972.000000
2249.534860	4850.000000
2251.132194	4862.000000
2252.729220	4804.000000
2254.327608	4933.000000
2255.922347	4761.000000
2257.515109	4868.000000
2259.109234	4881.000000
2260.704720	4967.000000
2262.296561	4721.000000
2263.888096	4786.000000
2265.480993	4628.000000
2267.068580	4611.000000
2268.660863	4722.000000
2270.247840	4714.000000
2271.837844	4559.000000
2273.422544	4601.000000
2275.011938	4778.000000
2276.596030	4722.000000
2278.181483	4664.000000
2279.764966	4612.000000
2281.351475	4649.000000
2282.934351	4554.000000
2284.516924	4562.000000
2286.099193	4665.000000
2287.677832	4505.000000
2289.259496	4387.000000
2290.837531	4408.000000
2292.418589	4312.000000
2293.996020	4316.000000
2295.571488	4320.000000
2297.149978	4538.000000
2298.724844	4369.000000
2300.299409	4340.000000
2301.873674	4326.000000
2303.447638	4369.000000
2305.021301	4298.000000
2306.594665	4297.000000
2308.164410	4183.000000
2309.733856	4265.000000
2311.306320	4261.000000
2312.873510	4302.000000
2314.443718	4198.000000
2316.010311	4196.000000
2317.578264	4154.000000
2319.144261	4193.000000
2320.709961	4182.000000
2322.275363	4146.000000
2323.838812	4105.000000
2325.403620	4290.000000
2326.964820	4413.000000
2328.529034	4145.000000
2330.087986	4182.000000
2331.649953	4253.000000
2333.209968	4192.000000
2334.769689	4089.000000
2336.327460	4206.000000
2337.884936	4183.000000
2339.442118	4086.000000
2340.997352	4148.000000
2342.552293	4154.000000
2344.106939	4166.000000
2345.661292	3976.000000
2347.215352	4134.000000
2348.769117	3997.000000
2350.320939	4162.000000
2351.870817	3974.000000
2353.423703	4068.000000
2354.971347	4076.000000
2356.521998	4077.000000
2358.069058	4006.000000
2359.617476	4043.000000
2361.165603	3955.000000
2362.710141	3963.000000
2364.256037	3934.000000
2365.799995	3905.000000
2367.345310	3881.000000
2368.887040	3912.000000
2370.430127	3973.000000
2371.971278	3878.000000
2373.512140	3961.000000
2375.052713	3817.000000
2376.592997	3781.000000
2378.132992	3961.000000
2379.669409	3934.000000
2381.208827	3889.000000
2382.744668	3907.000000
2384.281865	3711.000000
2385.815487	3708.000000
2387.352109	3762.000000
2388.886801	3854.000000
2390.419563	3728.000000
2391.952038	3932.000000
2393.482585	3866.000000
2395.016130	3682.000000
2396.544464	3678.000000
2398.074155	3827.000000
2399.603559	3707.000000
2401.132679	3838.000000
2402.661514	3793.000000
2404.185143	3774.000000
2405.713408	3752.000000
2407.236471	3677.000000
2408.764167	3835.000000
2410.285024	3787.000000
2411.810514	3595.000000
2413.332443	3619.000000
2414.855728	3597.000000
2416.377091	3596.000000
2417.896535	3850.000000
2419.417335	3729.000000
2420.936215	3618.000000
2422.454813	3617.000000
2423.971494	3655.000000
2425.489529	3532.000000
2427.007283	3649.000000
2428.521486	3480.000000
2430.035408	3685.000000
2431.549050	3589.000000
2433.064047	3566.000000
2434.575495	3586.000000
2436.088298	3653.000000
2437.599187	3617.000000
2439.109798	3505.000000
2440.618497	3560.000000
2442.130182	3572.000000
2443.638324	3607.000000
2445.146188	3619.000000
2446.653774	3576.000000
2448.157819	3575.000000
2449.664849	3433.000000
2451.169972	3470.000000
2452.674816	3524.000000
2454.177754	3657.000000
2455.680416	3551.000000
2457.182801	3523.000000
2458.683281	3560.000000
2460.185114	3493.000000
2461.685042	3469.000000
2463.184695	3336.000000
2464.684073	3430.000000
2466.181548	3405.000000
2467.677121	3447.000000
2469.175674	3383.000000
2470.670699	3399.000000
2472.167076	3450.000000
2473.659927	3325.000000
2475.154131	3382.000000
2476.648061	3364.000000
2478.138467	3376.000000
2479.631851	3320.000000
2481.123337	3303.000000
2482.612926	3372.000000
2484.102243	3427.000000
2485.589664	3437.000000
2487.080061	3299.000000
2488.566940	3249.000000
2490.055170	3272.000000
2491.539884	3401.000000
2493.024327	3229.000000
2494.510121	3364.000000
2495.994024	3305.000000
2497.479277	3299.000000
2498.959397	3315.000000
2500.442490	3375.000000
2501.923692	3306.000000
2503.404625	3396.000000
2504.883669	3306.000000
2506.362444	3346.000000
2507.840951	3302.000000
2509.319190	3310.000000
2510.797160	3214.000000
2512.271625	3244.000000
2513.749060	3274.000000
2515.222991	3390.000000
2516.698272	3178.000000
2518.173286	3408.000000
2519.644800	3286.000000
2521.117663	3452.000000
2522.588644	3450.000000
2524.060975	3266.000000
2525.528192	3323.000000
2526.998376	3358.000000
2528.466679	3353.000000
2529.934717	3418.000000
2531.402490	3322.000000
2532.869998	3430.000000
2534.337241	3478.000000
2535.800992	3261.000000
2537.266093	3262.000000
2538.729317	3362.000000
2540.193891	3485.000000
2541.654975	3318.000000
2543.117409	3341.000000
2544.579580	3472.000000
2546.038265	3501.000000
2547.501522	3348.000000
2548.959682	3435.000000
2550.419191	3374.000000
2551.873606	3421.000000
2553.332592	3486.000000
2554.789706	3329.000000
2556.244949	3296.000000
2557.699931	3280.000000
2559.153043	3426.000000
2560.607504	3268.000000
2562.060095	3393.000000
2563.512427	3301.000000
2564.962892	3401.000000
2566.416312	3397.000000
2567.864650	3335.000000
2569.315944	3309.000000
2570.765371	3324.000000
2572.211326	3347.000000
2573.660236	3320.000000
2575.105676	3260.000000
2576.552463	3195.000000
2577.997388	3248.000000
2579.442054	3395.000000
2580.888068	3180.000000
2582.330616	3321.000000
2583.774511	3080.000000
2585.214941	3209.000000
2586.656718	3220.000000
2588.096636	3183.000000
2589.537901	3257.000000
2590.975704	3337.000000
2592.416457	3187.000000
2593.852148	3337.000000
2595.290788	3112.000000
2596.727570	3161.000000
2598.162497	3217.000000
2599.600371	3252.000000
2601.033188	3071.000000
2602.467352	3245.000000
2603.899662	3243.000000
2605.333318	3127.000000
2606.765121	3235.000000
2608.196670	3158.000000
2609.627967	3135.000000
2611.057411	3367.000000
2612.486603	3156.000000
2613.913945	3325.000000
2615.342632	3108.000000
2616.771068	3173.000000
2618.196056	3218.000000
2619.622391	3027.000000
2621.046877	3261.000000
2622.472709	3113.000000
2623.895097	3195.000000
2625.318831	3078.000000
2626.740718	3310.000000
2628.162356	3210.000000
2629.582148	3127.000000
2631.003286	3082.000000
2632.424174	3103.000000
2633.841624	3144.000000
2635.262013	3182.000000
2636.678965	3050.000000
2638.095668	3135.000000
2639.512123	3103.000000
2640.928330	3143.000000
2642.344289	3256.000000
2643.758407	3137.000000
2645.172277	3202.000000
2646.584309	3068.000000
2647.997684	3105.000000
2649.407630	3180.000000
2650.820512	3315.000000
2652.229965	3231.000000
2653.639172	3223.000000
2655.046543	3191.000000
2656.456848	3271.000000
2657.865318	3200.000000
2659.271952	3281.000000
2660.678341	3152.000000
2662.082896	3234.000000
2663.488795	3268.000000
2664.892861	3163.000000
2666.296682	3177.000000
2667.700259	3161.000000
2669.102005	3472.000000
2670.505094	3393.000000
2671.904765	3310.000000
2673.305780	3289.000000
2674.703379	3193.000000
2676.103908	3269.000000
2677.501021	3323.000000
2678.899479	3264.000000
2680.296108	3327.000000
2681.692495	3303.000000
2683.088640	3371.000000
2684.482960	3271.000000
2685.878621	3267.000000
2687.270874	3504.000000
2688.664469	3420.000000
2690.056240	3654.000000
2691.449354	3448.000000
2692.840644	3462.000000
2694.230111	3430.000000
2695.619338	3647.000000
2697.008326	3604.000000
2698.398655	3701.000000
2699.784001	3712.000000
2701.172270	3734.000000
2702.558719	3916.000000
2703.944929	3901.000000
2705.330900	3979.000000
2706.713473	4011.000000
2708.097388	3881.000000
2709.481065	4249.000000
2710.864503	4111.000000
2712.244547	4172.000000
2713.625931	4216.000000
2715.005501	4382.000000
2716.386411	4557.000000
2717.765507	4597.000000
2719.142789	4636.000000
2720.521412	4789.000000
2721.898222	4543.000000
2723.274795	4762.000000
2724.651133	4823.000000
2726.025660	4919.000000
2727.401527	5053.000000
2728.774007	4995.000000
2730.149403	5008.000000
2731.519839	5152.000000
2732.891616	5054.000000
2734.263158	5101.000000
2735.632892	4888.000000
2737.003967	4855.000000
2738.373233	4833.000000
2739.742266	4762.000000
2741.109493	4903.000000
2742.476487	4809.000000
2743.843247	4602.000000
2745.209776	4737.000000
2746.574499	4602.000000
2747.938990	4613.000000
2749.303250	4539.000000
2750.667277	4780.000000
2752.031073	4709.000000
2753.391495	4762.000000
2754.754827	4715.000000
2756.113217	4830.000000
2757.474517	4668.000000
2758.832447	4926.000000
2760.193285	4824.000000
2761.552324	4737.000000
2762.907994	4678.000000
2764.266572	4689.000000
2765.621783	4621.000000
2766.976765	4445.000000
2768.329951	4453.000000
2769.686043	4450.000000
2771.038770	4487.000000
2772.391270	4584.000000
2773.743541	4365.000000
2775.097151	4314.000000
2776.447399	4216.000000
2777.795853	4371.000000
2779.147213	4403.000000
2780.495213	4276.000000
2781.844551	4353.000000
2783.192098	4345.000000
2784.539417	4344.000000
2785.886510	4333.000000
2787.231812	4361.000000
2788.576887	4373.000000
2789.921737	4453.000000
2791.266361	4661.000000
2792.607633	4335.000000
2793.950243	4465.000000
2795.292627	4565.000000
2796.634786	4551.000000
2797.973597	4547.000000
2799.315306	4669.000000
2800.653668	4643.000000
2801.993366	4731.000000
2803.331280	4714.000000
2804.667409	4881.000000
2806.003314	4977.000000
2807.340557	4822.000000
2808.676016	4974.000000
2810.011252	5080.000000
2811.344705	5271.000000
2812.679495	5302.000000
2814.010945	5247.000000
2815.345290	5478.000000
2816.674737	5461.000000
2818.005521	5501.000000
2819.336083	5483.000000
2820.664866	5774.000000
2821.994985	5819.000000
2823.323326	6008.000000
2824.651446	5915.000000
2825.977788	6354.000000
2827.305467	6239.000000
2828.629812	6450.000000
2829.955494	6459.000000
2831.279400	6706.000000
2832.603087	6760.000000
2833.928109	6914.000000
2835.249801	6977.000000
2836.571275	7248.000000
2837.892530	7252.000000
2839.213566	7443.000000
2840.532829	7686.000000
2841.853428	7590.000000
2843.172256	7596.000000
2844.490865	7801.000000
2845.807703	7752.000000
2847.124324	7744.000000
2848.440728	7828.000000
2849.755362	8195.000000
2851.071332	8261.000000
2852.383981	8563.000000
2853.697965	8492.000000
2855.011733	8529.000000
2856.325285	8724.000000
2857.637069	8895.000000
2858.947087	9246.000000
2860.258440	9357.000000
2861.566478	9555.000000
2862.875850	9893.000000
2864.185008	10354.000000
2865.493950	10840.000000
2866.801128	11215.000000
2868.106544	12140.000000
2869.413294	12629.000000
2870.718281	13258.000000
2872.023055	14336.000000
2873.326067	15315.000000
2874.631960	16597.000000
2875.932999	18226.000000
2877.235372	19614.000000
2878.535985	20983.000000
2879.837932	22072.000000
2881.139666	23039.000000
2882.438095	23548.000000
2883.737858	23544.000000
2885.035864	23280.000000
2886.333658	22695.000000
2887.629696	22012.000000
2888.927067	21745.000000
2890.222682	21039.000000
2891.518086	20951.000000
2892.813279	20828.000000
2894.105175	20593.000000
2895.399947	20227.000000
2896.691422	20338.000000
2897.984230	20238.000000
2899.276828	20127.000000
2900.566132	20075.000000
2901.856768	19824.000000
2903.145653	19856.000000
2904.435870	19260.000000
2905.722796	19522.000000
2907.011054	19328.000000
2908.297563	18803.000000
2909.583864	18673.000000
2910.869956	18820.000000
2912.154300	18704.000000
2913.441515	18464.000000
2914.723904	18575.000000
2916.007625	18601.000000
2917.289600	18881.000000
2918.571367	19223.000000
2919.851390	20303.000000
2921.134282	21098.000000
2922.415429	22444.000000
2923.693294	23739.000000
2924.974028	26024.000000
2926.251481	28664.000000
2927.528728	31390.000000
2928.804233	33746.000000
2930.082606	37048.000000
2931.356165	39116.000000
2932.632591	40941.000000
2933.907276	41817.000000
2935.180220	41758.000000
2936.454496	40376.000000
2937.727032	39383.000000
2938.999363	37531.000000
2940.268422	35733.000000
2941.540346	34654.000000
2942.810532	32823.000000
2944.080514	31340.000000
2945.350293	29821.000000
2946.618336	28233.000000
2947.884642	26756.000000
2949.150747	25660.000000
2950.418181	24453.000000
2951.683881	23487.000000
2952.949378	22520.000000
2954.214673	21899.000000
2955.476703	20839.000000
2956.740063	20269.000000
2958.003222	20094.000000
2959.264649	19849.000000
2960.527405	19283.000000
2961.788429	19420.000000
2963.047723	19656.000000
2964.306817	19470.000000
2965.565710	20162.000000
2966.824403	20464.000000
2968.082896	20717.000000
2969.339660	21254.000000
2970.596224	21966.000000
2971.851061	22366.000000
2973.107226	23631.000000
2974.360137	24089.000000
2975.614377	24696.000000
2976.868418	25410.000000
2978.120733	25530.000000
2979.372849	25804.000000
2980.623241	26074.000000
2981.876488	26241.000000
2983.124958	26110.000000
2984.376283	26380.000000
2985.624358	25323.000000
2986.872237	24993.000000
2988.119918	24370.000000
2989.367402	23495.000000
2990.613165	23185.000000
2991.858732	22014.000000
2993.105626	21782.000000
2994.349276	21061.000000
2995.594254	20647.000000
2996.835988	19961.000000
2998.080574	19454.000000
2999.323441	18772.000000
3000.563067	18993.000000
3001.805543	18742.000000
3003.044779	18194.000000
3004.285343	18262.000000
3005.524191	18205.000000
3006.762843	17803.000000
3007.999781	18044.000000
3009.238045	17834.000000
3010.474594	17924.000000
3011.710950	17923.000000
3012.947112	18140.000000
3014.181560	17952.000000
3015.415816	18122.000000
3016.649878	18351.000000
3017.882228	18252.000000
3019.112866	18549.000000
3020.346350	18475.000000
3021.578122	18485.000000
3022.808184	18961.000000
3024.038054	19066.000000
3025.266214	19071.000000
3026.495700	19192.000000
3027.723477	19510.000000
3028.951064	19857.000000
3030.179976	20008.000000
3031.404146	20292.000000
3032.631159	20355.000000
3033.854948	20614.000000
3035.080064	20694.000000
3036.303473	20816.000000
3037.526692	21351.000000
3038.748206	21378.000000
3039.972561	21478.000000
3041.192181	21799.000000
3042.413127	22323.000000
3043.633884	22374.000000
3044.852937	22494.000000
3046.073316	23006.000000
3047.290477	23078.000000
3048.508965	23182.000000
3049.725750	23786.000000
3050.942348	24210.000000
3052.158757	24162.000000
3053.371954	24486.000000
3054.587988	24620.000000
3055.800810	25019.000000
3057.016469	25470.000000
3058.227405	25743.000000
3059.439666	26260.000000
3060.651741	26481.000000
3061.863628	26262.000000
3063.073819	27080.000000
3064.283823	27581.000000
3065.493641	27969.000000
3066.701763	28094.000000
3067.909700	28413.000000
3069.115941	28841.000000
3070.323507	28889.000000
3071.529378	29335.500000
3072.735065	29782.000000
3073.940566	30372.000000
3075.144374	30743.000000
3076.349506	30772.000000
3077.552946	32005.000000
3078.754693	31738.000000
3079.956256	32095.000000
3081.157636	32818.000000
3082.358832	33140.000000
3083.558338	33546.000000
3084.757661	33866.000000
3085.958307	34543.000000
3087.157263	34546.000000
3088.353025	35085.000000
3089.551616	35545.000000
3090.747013	35898.000000
3091.943733	36142.000000
3093.137261	36326.000000
3094.333617	37119.000000
3095.528287	37606.000000
3096.719766	38062.000000
3097.915576	38720.000000
3099.106693	39152.000000
3100.299132	39295.000000
3101.488384	39871.000000
3102.680461	39970.000000
3103.870855	40512.000000
3105.058063	41601.000000
3106.246594	41312.000000
3107.436446	42265.000000
3108.623115	42587.000000
3109.809604	43273.000000
3110.995913	43673.000000
3112.183544	43927.000000
3113.367993	44941.000000
3114.550763	45139.000000
3115.736355	45759.000000
3116.920268	45404.000000
3118.102502	46516.000000
3119.284557	46897.000000
3120.466434	47672.000000
3121.648133	48244.000000
3122.828155	48165.000000
3124.006500	49195.000000
3125.187665	49943.000000
3126.365656	49833.000000
3127.543469	50792.000000
3128.721105	50730.000000
3129.897066	51320.000000
3131.072850	51786.000000
3132.249956	52461.000000
3133.425387	52885.000000
3134.599145	53071.000000
3135.771230	53821.000000
3136.944637	54531.000000
3138.117867	55292.000000
3139.289426	55225.000000
3140.462305	55798.000000
3141.632017	56273.000000
3142.803050	57209.000000
3143.972413	57492.000000
3145.140105	58020.000000
3146.310614	57805.000000
3147.476463	58382.000000
3148.646621	58679.000000
3149.812123	58939.000000
3150.977450	59490.000000
3152.142605	59598.000000
3153.307585	59952.000000
3154.473885	60359.000000
3155.635533	60638.000000
3156.798500	60496.000000
3157.961295	61100.000000
3159.123917	61233.000000
3160.284874	60680.000000
3161.445658	61554.000000
3162.606270	61561.000000
3163.765218	62065.000000
3164.923995	61727.000000
3166.082600	62533.000000
3167.241033	62254.000000
3168.399294	62876.000000
3169.555893	63223.000000
3170.710831	63345.000000
3171.867088	63177.000000
3173.021684	63482.000000
3174.176110	63984.000000
3175.328876	63998.000000
3176.481472	64081.000000
3177.633897	64453.000000
3178.786153	64473.000000
3179.938238	64547.000000
3181.087178	64482.000000
3182.238924	64507.000000
3183.389012	64521.000000
3184.537444	64511.000000
3185.685706	64502.000000
3186.833800	64542.000000
3187.981725	64486.000000
3189.127994	64415.000000
3190.274096	64548.000000
3191.418542	64524.000000
3192.562821	64471.000000
3193.706932	64480.000000
3194.852360	64548.000000
3195.994650	64499.000000
3197.136773	64498.000000
3198.278728	64492.000000
3199.420516	64516.000000
3200.562137	64503.000000
3201.700623	64478.000000
3202.840426	64506.000000
3203.981547	64492.000000
3205.119533	64567.000000
3206.255870	64448.000000
3207.392041	64484.000000
3208.529529	64485.000000
3209.665369	64517.000000
3210.802526	64486.000000
3211.935070	64493.000000
3213.071896	64450.000000
3214.204110	64489.000000
3215.337641	64515.000000
3216.471008	64506.000000
3217.601247	64547.000000
3218.734284	64508.000000
3219.864195	64393.000000
3220.995422	64486.000000
3222.123525	64419.000000
3223.254424	64544.000000
3224.383679	64524.000000
3225.511291	64501.000000
3226.635780	64431.000000
3227.764545	64474.000000
3228.890188	64432.000000
3230.015669	64493.000000
3231.139508	64467.000000
3232.266141	64536.000000
3233.388177	64505.000000
3234.511529	64505.000000
3235.634719	64431.000000
3236.757747	64438.000000
3237.879135	64508.000000
3239.000361	64551.000000
3240.119950	64521.000000
3241.239377	64516.000000
3242.357166	64509.000000
3243.477747	64533.000000
3244.595215	64446.000000
3245.712522	64511.000000
3246.829669	64350.000000
3247.945180	64479.000000
3249.062005	64475.000000
3250.175721	64504.000000
3251.292226	64490.000000
3252.407097	64470.000000
3253.518859	64494.000000
3254.630461	64536.000000
3255.743379	64500.000000
3256.856137	64560.000000
3257.965789	64495.000000
3259.076756	64512.000000
3260.187564	64486.000000
3261.296740	64529.000000
3262.404286	64390.000000
3263.513145	64514.000000
3264.621847	64518.000000
3265.727446	64524.000000
3266.834359	64377.000000
3267.939643	64230.000000
3269.046241	64395.000000
3270.149739	64556.000000
3271.254552	64432.000000
3272.359207	64529.000000
3273.460763	64443.000000
3274.562163	64486.000000
3275.664878	64498.000000
3276.767435	64507.000000
3277.866896	64483.000000
3278.969141	64538.000000
3280.068290	64463.000000
3281.165815	64490.000000
3282.263184	64490.000000
3283.363335	64500.000000
3284.460394	64483.000000
3285.557297	64512.000000
3286.654045	64475.000000
3287.746235	64536.000000
3288.842673	64504.000000
3289.937489	64502.000000
3291.032151	64478.000000
3292.125191	64464.000000
3293.218077	64538.000000
3294.309342	64531.000000
3295.401919	64531.000000
3296.492877	64504.000000
3297.582215	64462.000000
3298.671400	64538.000000
3299.761898	64512.000000
3300.849311	64442.000000
3301.936571	64508.000000
3303.025144	64532.000000
3304.113565	64511.000000
3305.197438	64495.000000
3306.285553	64529.000000
3307.370587	64557.000000
3308.454004	64472.000000
3309.538734	64474.000000
3310.621849	64542.000000
3311.706275	64525.000000
3312.787623	64509.000000
3313.870283	64531.000000
3314.951329	64523.000000
3316.032224	64532.000000
3317.111505	64525.000000
3318.190636	64545.000000
3319.271079	64526.000000
3320.348447	64546.000000
3321.427127	64526.000000
3322.504195	64499.000000
3323.581114	64469.000000
3324.656421	64532.000000
3325.731579	64467.000000
3326.808048	64564.000000
3327.881447	64508.000000
3328.954697	64491.000000
3330.029257	64540.000000
3331.102209	64548.000000
3332.173552	64520.000000
3333.246206	64533.000000
3334.315794	64496.000000
3335.386692	64469.000000
3336.455983	64502.000000
3337.526585	64525.000000
3338.595580	64525.000000
3339.662969	64431.000000
3340.728753	64505.000000
3341.798763	64512.000000
3342.865710	64495.000000
3343.929595	64421.000000
3344.996248	64512.000000
3346.061296	64561.000000
3347.124741	64378.000000
3348.188040	64538.000000
3349.251192	64515.000000
3350.314198	64579.000000
3351.377058	64529.000000
3352.438316	64566.000000
3353.496517	64521.000000
3354.558938	64512.000000
3355.618304	64520.000000
3356.677524	64461.000000
3357.738054	64537.000000
3358.794074	64497.000000
3359.852858	64504.000000
3360.907135	64549.000000
3361.964176	64519.000000
3363.019618	64553.000000
3364.076370	64523.000000
3365.131523	64523.000000
3366.185079	64551.000000
3367.237039	64558.000000
3368.291760	64545.000000
3369.343432	64560.000000
3370.394961	64500.000000
3371.447798	64530.000000
3372.497588	64541.000000
3373.548687	64553.000000
3374.596740	64546.000000
3375.647552	64571.000000
3376.695320	64509.000000
3377.742945	64531.000000
3378.790427	64539.000000
3379.836317	64362.000000
3380.883515	64524.000000
3381.927671	64581.000000
3382.974585	64530.000000
3384.019907	64542.000000
3385.062188	64493.000000
3386.104329	64577.000000
3387.147777	64537.000000
3388.191084	64554.000000
3389.232802	64533.000000
3390.274378	64463.000000
3391.315814	64517.000000
3392.355660	64549.000000
3393.393918	64479.000000
3394.433484	64585.000000
3395.472910	64516.000000
3396.510748	64585.000000
3397.546999	64553.000000
3398.583111	64512.000000
3399.620530	64547.000000
3400.654916	64501.000000
3401.690609	64543.000000
3402.726163	64537.000000
3403.758686	64552.000000
3404.793962	64576.000000
3405.826207	64565.000000
3406.858314	64522.000000
3407.888837	64491.000000
3408.920667	64559.000000
3409.952359	64458.000000
3410.981023	64521.000000
3412.009550	64531.000000
3413.039383	64576.000000
3414.069079	64498.000000
3415.095749	64514.000000
3416.123726	64531.000000
3417.148678	64498.000000
3418.176380	64530.000000
3419.201059	64520.000000
3420.227044	64491.000000
3421.251449	64564.000000
3422.275718	64473.000000
3423.298408	64590.000000
3424.320962	64546.000000
3425.344822	64488.000000
3426.365662	64574.000000
3427.386366	64545.000000
3428.408377	64535.000000
3429.427369	64566.000000
3430.446226	64574.000000
3431.466388	64508.000000
3432.483534	64521.000000
