-116.773079	43.000000
-114.103479	129.000000
-111.436814	52.000000
-108.770901	97.000000
-106.107920	53.000000
-103.443510	61.000000
-100.782030	102.000000
-98.119121	140.000000
-95.461318	102.000000
-92.802086	126.000000
-90.143602	82.000000
-87.488042	107.000000
-84.831054	91.000000
-82.179164	125.000000
-79.525843	190.000000
-76.875443	116.000000
-74.223613	182.000000
-71.576874	125.000000
-68.928706	32.000000
-66.281280	131.000000
-63.636768	127.000000
-60.990828	114.000000
-58.349969	102.000000
-55.707681	140.000000
-53.068301	129.000000
-50.427493	187.000000
-47.787425	92.000000
-45.152429	146.000000
-42.516005	145.000000
-39.882483	200.000000
-37.247533	109.000000
-34.617648	149.000000
-31.984171	226.000000
-29.355756	184.000000
-26.728075	225.000000
-24.098965	286.000000
-21.474912	353.000000
-18.847270	370.000000
-16.224681	507.000000
-13.602824	672.000000
-10.981697	1114.000000
-8.361300	2440.000000
-5.743792	8562.000000
-3.124855	32099.000000
-0.508803	64406.000000
2.106520	64445.000000
4.721116	49659.000000
7.332829	3460.000000
9.945971	824.000000
12.554079	510.000000
15.165769	408.000000
17.772428	225.000000
20.380515	295.000000
22.987878	285.000000
25.590216	220.000000
28.196132	220.000000
30.797026	212.000000
33.399348	169.000000
35.996653	229.000000
38.597533	266.000000
41.193398	273.000000
43.790692	224.000000
46.387266	198.000000
48.978831	178.000000
51.571824	114.000000
54.161956	282.000000
56.753516	149.000000
59.342216	253.000000
61.932343	216.000000
64.517471	268.000000
67.104027	220.000000
69.689869	204.000000
72.272857	226.000000
74.857271	268.000000
77.434557	193.000000
80.015409	244.000000
82.593412	255.000000
85.170705	258.000000
87.749424	261.000000
90.323161	322.000000
92.898326	345.000000
95.470647	309.000000
98.042260	354.000000
100.611033	492.000000
103.181233	480.000000
105.748595	530.000000
108.317382	540.000000
110.883333	879.000000
113.446449	967.000000
116.013121	1290.000000
118.570572	1822.000000
121.133708	2372.000000
123.691884	3551.000000
126.253615	4981.000000
128.810389	7762.000000
131.368590	11605.000000
133.921837	17301.000000
136.474387	25283.000000
139.030487	35407.000000
141.581639	45966.000000
144.132094	54889.000000
146.681851	59440.000000
149.228789	62539.000000
151.775032	63779.000000
154.322700	64489.000000
156.869672	64480.000000
159.411709	64375.000000
161.953052	64087.000000
164.493702	64034.000000
167.035778	63496.000000
169.575042	63637.000000
172.111498	63043.000000
174.647262	62771.000000
177.184452	62030.000000
179.720951	61721.000000
182.254644	61342.000000
184.785533	60494.000000
187.315735	59679.000000
189.847361	59160.000000
192.376186	58412.000000
194.902212	57806.000000
197.427552	56582.000000
199.954318	55592.000000
202.478286	54906.000000
205.001570	53609.000000
207.524169	52147.000000
210.043975	51212.000000
212.563098	49702.000000
215.081538	48578.000000
217.601402	46988.000000
220.114265	46190.000000
222.630659	44694.000000
225.146371	43352.000000
227.657193	42714.000000
230.169440	41883.000000
232.678905	41102.000000
235.187691	39874.000000
237.695798	39028.000000
240.205330	37740.000000
242.709981	36949.000000
245.213956	35740.000000
247.719355	35279.000000
250.219879	34689.000000
252.723927	33753.000000
255.221003	32746.000000
257.721603	32169.000000
260.219431	31491.000000
262.716586	30354.000000
265.213068	29648.000000
267.704687	28966.000000
270.199826	28291.000000
272.692198	27487.000000
275.183901	27096.000000
277.672839	26675.000000
280.163202	25372.000000
282.650802	25143.000000
285.135643	24829.000000
287.623999	24189.000000
290.105415	23568.000000
292.590345	22978.000000
295.070430	22550.000000
297.554027	22380.000000
300.032781	22210.000000
302.512959	21562.000000
304.990384	21660.000000
307.467146	21180.000000
309.943245	20885.000000
312.416595	20559.000000
314.889283	20354.000000
317.361310	20465.000000
319.832676	20167.000000
322.301297	20052.000000
324.769260	20089.000000
327.238644	19642.000000
329.703206	20004.000000
332.171272	19737.000000
334.634518	19665.000000
337.097106	19548.000000
339.559038	19392.000000
342.020313	19758.000000
344.478854	19387.000000
346.938817	19254.000000
349.396047	19535.000000
351.852623	19731.000000
354.308545	19518.000000
356.761737	19433.000000
359.216352	19324.000000
361.666165	19595.000000
364.119474	19527.000000
366.567985	19494.000000
369.015844	19440.000000
371.465126	19339.000000
373.909614	19158.000000
376.355524	19281.000000
378.800784	19276.000000
381.243326	19476.000000
383.685220	19692.000000
386.126467	19439.000000
388.564998	19191.000000
391.004951	19327.000000
393.442190	19635.000000
395.876717	19646.000000
398.314732	19315.000000
400.747970	19427.000000
403.182629	19389.000000
405.612516	19451.000000
408.045888	19394.000000
410.474490	19473.000000
412.902450	19323.000000
415.331832	19526.000000
417.756448	19620.000000
420.182486	19439.000000
422.607883	19507.000000
425.032640	19761.000000
427.452639	19498.000000
429.874059	19860.000000
432.292782	19877.000000
434.712926	19867.000000
437.130375	19525.000000
439.549244	19590.000000
441.965420	19615.000000
444.376848	19696.000000
446.791754	19766.000000
449.203969	19648.000000
451.615550	19460.000000
454.026497	19509.000000
456.434758	19491.000000
458.842386	19547.000000
461.249382	19663.000000
463.655747	19363.000000
466.059429	19132.000000
468.462481	18791.000000
470.864903	19257.000000
473.266695	18979.000000
475.665810	18925.000000
478.066344	19364.000000
480.466249	18801.000000
482.861431	18742.000000
485.260080	18638.000000
487.654009	18850.000000
490.047312	18981.000000
492.439989	18658.000000
494.832041	18874.000000
497.225511	18540.000000
499.614270	17738.000000
502.000361	17906.000000
504.387873	17368.000000
506.774762	17572.000000
509.158987	17151.000000
511.544630	16794.000000
513.927612	16792.000000
516.307933	16775.000000
518.689673	16597.000000
521.068754	16593.000000
523.449254	16302.000000
525.827096	16362.000000
528.202283	16350.000000
530.576852	16180.000000
532.952839	16126.000000
535.326174	15826.000000
537.700926	15716.000000
540.070993	15882.000000
542.440444	15959.000000
544.811313	15685.000000
547.177502	15584.000000
549.545109	15744.000000
551.910070	15502.000000
554.274418	15849.000000
556.638153	15614.000000
559.003306	15785.000000
561.363787	15677.000000
563.725686	15471.000000
566.084944	15296.000000
568.441565	15213.000000
570.801630	14835.000000
573.155004	15226.000000
575.511823	14911.000000
577.866007	15038.000000
580.219583	14727.000000
582.572550	14809.000000
584.922885	14754.000000
587.274638	14673.000000
589.619714	14608.000000
591.970254	14713.000000
594.314120	14485.000000
596.663448	14446.000000
599.008127	14388.000000
601.350182	14422.000000
603.693654	14369.000000
606.034503	14268.000000
608.374750	14392.000000
610.712376	14282.000000
613.053437	14296.000000
615.389860	14102.000000
617.727700	13949.000000
620.062923	13795.000000
622.395530	13844.000000
624.729553	13857.000000
627.060962	13924.000000
629.391774	13688.000000
631.721987	13693.000000
634.051602	13699.000000
636.376595	13358.000000
638.707028	13673.000000
641.032841	13485.000000
643.356046	13724.000000
645.680668	13436.000000
648.002684	13377.000000
650.324106	13453.000000
652.642926	13378.000000
654.963161	13351.000000
657.282803	13369.000000
659.599844	13308.000000
661.916293	13266.000000
664.230144	13166.000000
666.545411	13289.000000
668.858081	13131.000000
671.172166	13198.000000
673.481651	13202.000000
675.792552	13451.000000
678.100860	13071.000000
680.408580	13135.000000
682.717714	12940.000000
685.022256	12720.000000
687.326212	12726.000000
689.629582	12547.000000
691.934366	12722.000000
694.234564	12685.000000
696.536176	12759.000000
698.837204	12579.000000
701.133649	12641.000000
703.431510	12517.000000
705.728787	12376.000000
708.025481	12239.000000
710.317599	12290.000000
712.613128	12232.000000
714.904083	12151.000000
717.196453	12172.000000
719.486248	12133.000000
721.775462	11921.000000
724.064097	11989.000000
726.350159	12057.000000
728.637636	12201.000000
730.922541	12182.000000
733.206869	11973.000000
735.488628	11934.000000
737.771801	11781.000000
740.054397	12098.000000
742.332437	11738.000000
744.611892	11944.000000
746.890771	11962.000000
749.169074	11836.000000
751.442828	11904.000000
753.717995	11659.000000
755.992589	11799.000000
758.264624	11833.000000
760.538072	11947.000000
762.808962	11877.000000
765.077296	11748.000000
767.347043	11831.000000
769.614236	11637.000000
771.880858	11881.000000
774.146910	11789.000000
776.410411	11431.000000
778.675325	11570.000000
780.939669	11806.000000
783.199484	11694.000000
785.460711	11686.000000
787.721371	11599.000000
789.979485	11566.000000
792.235054	11678.000000
794.494014	11568.000000
796.746475	11518.000000
799.004302	11523.000000
801.257611	11372.000000
803.508380	11200.000000
805.760561	11359.000000
808.010203	11414.000000
810.261258	11408.000000
812.507801	10981.000000
814.755756	11031.000000
817.001177	11139.000000
819.248009	11002.000000
821.494280	10900.000000
823.736046	10626.000000
825.981196	10811.000000
828.219873	10647.000000
830.461932	10610.000000
832.699493	10717.000000
834.938466	10453.000000
837.174912	10425.000000
839.412769	10265.000000
841.648101	10102.000000
843.880910	10138.000000
846.115130	10150.000000
848.346827	10126.000000
850.577970	10014.000000
852.808558	9759.000000
855.038592	9802.000000
857.268072	9821.000000
859.493070	9762.000000
861.721443	9435.000000
863.945337	9645.000000
866.170641	9548.000000
868.391470	9443.000000
870.615671	9438.000000
872.835399	9079.000000
875.056537	9292.000000
877.277126	9507.000000
879.495204	9241.000000
881.714692	9226.000000
883.929714	9105.000000
886.144189	8971.000000
888.358115	8999.000000
890.571495	9049.000000
892.784327	9018.000000
894.996613	8689.000000
897.206396	8959.000000
899.415634	8716.000000
901.624327	8818.000000
903.830521	8684.000000
906.038124	8590.000000
908.243229	8377.000000
910.447791	8464.000000
912.649858	8570.000000
914.853334	8413.000000
917.054316	8560.000000
919.254756	8322.000000
921.456605	8347.000000
923.652063	8278.000000
925.850880	8245.000000
928.045258	8179.000000
930.242994	8124.000000
932.436294	8199.000000
934.631003	8180.000000
936.823226	8042.000000
939.014910	8114.000000
941.206057	7960.000000
943.394721	7880.000000
945.582849	8171.000000
947.768496	7884.000000
949.957495	7874.000000
952.142071	7819.000000
954.326112	7983.000000
956.513503	7879.000000
958.692590	7901.000000
960.875028	7790.000000
963.056932	7911.000000
965.236361	7850.000000
967.413318	7829.000000
969.591683	7832.000000
971.771455	7693.000000
973.944878	7895.000000
976.121647	7617.000000
978.294009	7850.000000
980.467779	7637.000000
982.637145	7693.000000
984.809855	7793.000000
986.980100	7803.000000
989.149816	7641.000000
991.319003	7610.000000
993.483793	7572.000000
995.651924	7366.000000
997.815661	7621.000000
999.980804	7496.000000
1002.143488	7436.000000
1004.305647	7449.000000
1006.465349	7585.000000
1008.624526	7285.000000
1010.785110	7467.000000
1012.943240	7417.000000
1015.100845	7444.000000
1017.257927	7251.000000
1019.414485	7290.000000
1021.566664	7300.000000
1023.720250	7206.000000
1025.873314	7435.000000
1028.023929	7535.000000
1030.175951	7514.000000
1032.323599	7268.000000
1034.474579	7340.000000
1036.621188	7345.000000
1038.767278	7315.000000
1040.912850	7362.000000
1043.059827	7181.000000
1045.200515	7156.000000
1047.344533	7122.000000
1049.486110	7337.000000
1051.627171	7268.000000
1053.769636	7150.000000
1055.905822	7097.000000
1058.045334	7145.000000
1060.180490	7266.000000
1062.318971	7232.000000
1064.453098	7100.000000
1066.586712	6938.000000
1068.721731	7124.000000
1070.852400	7288.000000
1072.984474	7105.000000
1075.114119	7184.000000
1077.243252	7112.000000
1079.371873	7046.000000
1081.499983	7161.000000
1083.625667	7134.000000
1085.750841	7043.000000
1087.877419	7119.000000
1089.999659	7262.000000
1092.123304	7070.000000
1094.242614	6994.000000
1096.367154	6993.000000
1098.485448	6960.000000
1100.605147	6927.000000
1102.722427	7172.000000
1104.839201	7114.000000
1106.955468	6980.000000
1109.069319	7084.000000
1111.184575	6971.000000
1113.295507	7033.000000
1115.409752	6890.000000
1117.519676	7153.000000
1119.631004	6751.000000
1121.741827	6827.000000
1123.848334	6826.000000
1125.958151	6782.000000
1128.063653	6841.000000
1130.170558	6819.000000
1132.271248	6817.000000
1134.377150	6767.000000
1136.478743	6806.000000
1138.581739	6908.000000
1140.684234	6771.000000
1142.780522	6872.000000
1144.882018	6764.000000
1146.979210	6912.000000
1149.075905	6789.000000
1151.172101	6773.000000
1153.267800	6879.000000
1155.363000	6835.000000
1157.455804	6777.000000
1159.550011	6768.000000
1161.638026	6762.000000
1163.731239	6951.000000
1165.818264	6814.000000
1167.908588	6844.000000
1169.994625	6819.000000
1172.083959	6812.000000
1174.167112	6748.000000
1176.251667	6698.000000
1178.337624	6627.000000
1180.419299	6847.000000
1182.502376	6777.000000
1184.583067	6756.000000
1186.663266	6594.000000
1188.742974	6589.000000
1190.822191	6636.000000
1192.899026	6674.000000
1194.973480	6673.000000
1197.051225	6800.000000
1199.124701	6715.000000
1201.199577	6725.000000
1203.270186	6702.000000
1205.342196	6634.000000
1207.411831	6655.000000
1209.482866	6699.000000
1211.553413	6656.000000
1213.619699	6755.000000
1215.687386	6656.000000
1217.752701	6737.000000
1219.819416	6730.000000
1221.881875	6632.000000
1223.947619	6555.000000
1226.009109	6674.000000
1228.072000	6727.000000
1230.132523	6694.000000
1232.192562	6767.000000
1234.252119	6475.000000
1236.309310	6860.000000
1238.366020	6653.000000
1240.420366	6736.000000
1242.477994	6833.000000
1244.533259	6697.000000
1246.584283	6695.000000
1248.636707	6744.000000
1250.688651	6660.000000
1252.738237	6760.000000
1254.787344	6612.000000
1256.835973	6718.000000
1258.884123	6577.000000
1260.931794	6467.000000
1262.975235	6708.000000
1265.021952	6653.000000
1267.066315	6497.000000
1269.110202	6434.000000
1271.151737	6497.000000
1273.190923	6447.000000
1275.233382	6664.000000
1277.271618	6449.000000
1279.311253	6619.000000
1281.350413	6384.000000
1283.385354	6503.000000
1285.421694	6505.000000
1287.455690	6616.000000
1289.491083	6556.000000
1291.522264	6658.000000
1293.554842	6749.000000
1295.586949	6688.000000
1297.616715	6599.000000
1299.647879	6517.000000
1301.674835	6602.000000
1303.703189	6518.000000
1305.727339	6507.000000
1307.754753	6419.000000
1309.777965	6416.000000
1311.802575	6481.000000
1313.824851	6312.000000
1315.848524	6363.000000
1317.869864	6304.000000
1319.890736	6393.000000
1321.911141	6440.000000
1323.927353	6397.000000
1325.944962	6252.000000
1327.960243	6297.000000
1329.978783	6268.000000
1331.993134	6525.000000
1334.005159	6579.000000
1336.020441	6630.000000
1338.031538	6597.000000
1340.044032	6637.000000
1342.052343	6769.000000
1344.063909	6435.000000
1346.069437	6300.000000
1348.078220	6208.000000
1350.082825	6256.000000
1352.090684	5948.000000
1354.098081	6098.000000
1356.099447	6127.000000
1358.102209	6053.000000
1360.104512	6032.000000
1362.106355	6125.000000
1364.107738	6168.000000
1366.106808	6201.000000
1368.105419	6158.000000
1370.103572	5991.000000
1372.101266	6098.000000
1374.094798	6047.000000
1376.089726	6032.000000
1378.084196	6066.000000
1380.078210	6103.000000
1382.069917	5966.000000
1384.061169	5817.000000
1386.050115	5871.000000
1388.040456	5875.000000
1390.030342	5869.000000
1392.017924	6060.000000
1394.005053	5971.000000
1395.989880	5821.000000
1397.976102	5828.000000
1399.960024	5904.000000
1401.943493	6021.000000
1403.926509	5989.000000
1405.907228	5882.000000
1407.889341	5964.000000
1409.869158	5981.000000
1411.848523	5890.000000
1413.823750	6031.000000
1415.802215	5914.000000
1417.778387	5893.000000
1419.754110	5818.000000
1421.729383	5668.000000
1423.702365	5901.000000
1425.674899	5792.000000
1427.646985	5718.000000
1429.618624	5844.000000
1431.586134	5830.000000
1433.558718	5808.000000
1435.523497	5830.000000
1437.493347	5828.000000
1439.459074	5907.000000
1441.426193	5826.000000
1443.391029	5702.000000
1445.351745	5996.000000
1447.317529	5920.000000
1449.277358	5850.000000
1451.238581	5848.000000
1453.201196	5866.000000
1455.159696	5969.000000
1457.117753	5943.000000
1459.075369	5862.000000
1461.032542	5747.000000
1462.987440	5948.000000
1464.943731	5686.000000
1466.897747	5961.000000
1468.851322	5856.000000
1470.802625	5891.000000
1472.755321	5809.000000
1474.705745	5889.000000
1476.655729	5876.000000
1478.605275	5953.000000
1480.552552	5866.000000
1482.497561	5854.000000
1484.443963	5856.000000
1486.389927	5887.000000
1488.335454	5897.000000
1490.278715	6011.000000
1492.221541	6038.000000
1494.162103	5967.000000
1496.104056	5896.000000
1498.043747	6042.000000
1499.983004	5927.000000
1501.921825	6087.000000
1503.858387	5914.000000
1505.796340	5890.000000
1507.732034	5960.000000
1509.667295	6161.000000
1511.600300	6092.000000
1513.532872	5988.000000
1515.465012	6116.000000
1517.396720	5988.000000
1519.326174	6161.000000
1521.257019	6131.000000
1523.187432	6077.000000
1525.113773	6243.000000
1527.041505	6275.000000
1528.966986	6200.000000
1530.892038	5931.000000
1532.816661	6158.000000
1534.740855	6281.000000
1536.662801	6267.000000
1538.586138	6357.000000
1540.507228	6385.000000
1542.426075	6402.000000
1544.346310	6558.000000
1546.264303	6230.000000
1548.181869	6672.000000
1550.097193	6627.000000
1552.013907	6604.000000
1553.926566	6814.000000
1555.842429	6909.000000
1557.756052	6763.000000
1559.667438	6929.000000
1561.580212	6729.000000
1563.488937	6774.000000
1565.399051	7109.000000
1567.308742	6883.000000
1569.218010	7014.000000
1571.125044	7288.000000
1573.029845	7200.000000
1574.936035	7320.000000
1576.839993	7209.000000
1578.743530	7295.000000
1580.646647	7499.000000
1582.547534	7543.000000
1584.449810	7623.000000
1586.349858	7510.000000
1588.251293	7907.000000
1590.148695	8045.000000
1592.045678	8005.000000
1593.942243	8193.000000
1595.840196	8198.000000
1597.732314	8349.000000
1599.627625	8639.000000
1601.522519	8786.000000
1603.415191	8804.000000
1605.307446	8784.000000
1607.197482	9004.000000
1609.087102	9117.000000
1610.976307	9262.000000
1612.865097	9260.000000
1614.751669	9479.000000
1616.639629	9603.000000
1618.523572	9569.000000
1620.408902	9794.000000
1622.293819	9695.000000
1624.176522	9667.000000
1626.060612	10070.000000
1627.940691	10084.000000
1629.822156	9936.000000
1631.701411	10099.000000
1633.582052	10079.000000
1635.456889	10189.000000
1637.336707	10213.000000
1639.212521	10133.000000
1641.087924	10168.000000
1642.964713	9997.000000
1644.835706	10063.000000
1646.709880	10182.000000
1648.580056	9724.000000
1650.453412	9816.000000
1652.324565	9940.000000
1654.193516	9647.000000
1656.063852	9678.000000
1657.930196	9434.000000
1659.797925	9337.000000
1661.663455	9184.000000
1663.530371	9170.000000
1665.393298	8949.000000
1667.257610	8814.000000
1669.119726	8674.000000
1670.981437	8587.000000
1672.844534	8168.000000
1674.705435	8299.000000
1676.564144	8134.000000
1678.422449	7948.000000
1680.282139	7937.000000
1682.136061	7725.000000
1683.993157	7753.000000
1685.849850	7612.000000
1687.702566	7591.000000
1689.558454	7355.000000
1691.410368	7146.000000
1693.261881	6968.000000
1695.112993	6946.000000
1696.963705	6960.000000
1698.814016	6705.000000
1700.662142	6542.000000
1702.511653	6445.000000
1704.355415	6348.000000
1706.204126	6171.000000
1708.047091	6038.000000
1709.893223	5827.000000
1711.735392	5862.000000
1713.580727	5799.000000
1715.420321	5717.000000
1717.261299	5368.000000
1719.103660	5346.000000
1720.942065	5289.000000
1722.781853	5183.000000
1724.619466	4984.000000
1726.456683	5057.000000
1728.291727	4949.000000
1730.128154	4900.000000
1731.962409	4703.000000
1733.796269	4729.000000
1735.629735	4720.000000
1737.459256	4528.000000
1739.291935	4468.000000
1741.120670	4610.000000
1742.952562	4452.000000
1744.780512	4417.000000
1746.608071	4282.000000
1748.435237	4443.000000
1750.262012	4256.000000
1752.088395	4219.000000
1753.910842	4128.000000
1755.736444	3934.000000
1757.558111	4179.000000
1759.381160	3947.000000
1761.202047	4003.000000
1763.022546	4039.000000
1764.844426	4003.000000
1766.660606	3920.000000
1768.479938	3957.000000
1770.295343	3874.000000
1772.113898	3857.000000
1773.928528	3886.000000
1775.742771	3765.000000
1777.556628	3747.000000
1779.370098	3720.000000
1781.181415	3836.000000
1782.994112	3693.000000
1784.806424	3773.000000
1786.614818	3559.000000
1788.424592	3715.000000
1790.230452	3596.000000
1792.039457	3585.000000
1793.844549	3630.000000
1795.651022	3642.000000
1797.457111	3733.000000
1799.259289	3651.000000
1801.064612	3532.000000
1802.866026	3454.000000
1804.668820	3625.000000
1806.467708	3525.000000
1808.267977	3467.000000
1810.067864	3555.000000
1811.865609	3500.000000
1813.662974	3463.000000
1815.459959	3352.000000
1817.256563	3594.000000
1819.051028	3403.000000
1820.846872	3325.000000
1822.637061	3417.000000
1824.432147	3237.000000
1826.221581	3490.000000
1828.014151	3336.000000
1829.804586	3392.000000
1831.592887	3344.000000
1833.384323	3264.000000
1835.170113	3204.000000
1836.957283	3425.000000
1838.742321	3241.000000
1840.530493	3303.000000
1842.314779	3253.000000
1844.096935	3313.000000
1845.880471	3341.000000
1847.661878	3150.000000
1849.444664	3140.000000
1851.223569	3348.000000
1853.003854	3132.000000
1854.782012	3282.000000
1856.561549	3220.000000
1858.338961	3171.000000
1860.114249	3285.000000
1861.890915	3186.000000
1863.665459	3242.000000
1865.441381	3142.000000
1867.211682	3177.000000
1868.985111	3384.000000
1870.756420	3288.000000
1872.527358	3187.000000
1874.299674	3122.000000
1876.066376	3278.000000
1877.836204	3217.000000
1879.602168	3116.000000
1881.371255	3182.000000
1883.136481	3323.000000
1884.901339	3182.000000
1886.667574	3262.000000
1888.429950	3245.000000
1890.191959	3296.000000
1891.953600	3170.000000
1893.714875	3241.000000
1895.475782	3266.000000
1897.236323	3352.000000
1898.994754	3175.000000
1900.752819	3263.000000
1902.508777	3179.000000
1904.266111	3254.000000
1906.023080	3239.000000
1907.777942	3209.000000
1909.530700	3154.000000
1911.283093	3273.000000
1913.036863	3194.000000
1914.788529	3209.000000
1916.538093	3294.000000
1918.289032	3169.000000
1920.039609	3268.000000
1921.786346	3117.000000
1923.534460	3162.000000
1925.280474	3271.000000
1927.027863	3330.000000
1928.773155	3217.000000
1930.516349	3124.000000
1932.260918	3299.000000
1934.003392	3238.000000
1935.745505	3381.000000
1937.487258	3210.000000
1939.228652	3350.000000
1940.967951	3207.000000
1942.706892	3324.000000
1944.445474	3310.000000
1946.181965	3267.000000
1947.918098	3321.000000
1949.655605	3375.000000
1951.389290	3329.000000
1953.124350	3344.000000
1954.857321	3281.000000
1956.589936	3308.000000
1958.322195	3249.000000
1960.054097	3472.000000
1961.783913	3317.000000
1963.511644	3340.000000
1965.240750	3405.000000
1966.969501	3252.000000
1968.696168	3551.000000
1970.422481	3466.000000
1972.150167	3451.000000
1973.872317	3490.000000
1975.597568	3375.000000
1977.319012	3563.000000
1979.043557	3452.000000
1980.766021	3501.000000
1982.484683	3464.000000
1984.206443	3429.000000
1985.924401	3562.000000
1987.643732	3552.000000
1989.359264	3532.000000
1991.079616	3605.000000
1992.796170	3504.000000
1994.508927	3628.000000
1996.224780	3617.000000
1997.938561	3648.000000
1999.651992	3517.000000
2001.363352	3592.000000
2003.076084	3733.000000
2004.785026	3648.000000
2006.497060	3739.000000
2008.203586	3722.000000
2009.913203	3595.000000
2011.620754	3836.000000
2013.327956	3701.000000
2015.033093	3763.000000
2016.737884	3786.000000
2018.444046	3779.000000
2020.146426	3821.000000
2021.850177	3758.000000
2023.551866	3747.000000
2025.253210	3753.000000
2026.954208	3827.000000
2028.653145	3840.000000
2030.353454	3750.000000
2032.049988	3779.000000
2033.747893	3752.000000
2035.443739	3803.000000
2037.142671	3813.000000
2038.836117	3888.000000
2040.530934	3769.000000
2042.225409	3888.000000
2043.916115	3899.000000
2045.609905	4054.000000
2047.299928	4023.000000
2048.991322	3958.000000
2050.680663	3815.000000
2052.371374	3895.000000
2054.058322	3952.000000
2055.744931	3995.000000
2057.432909	3900.000000
2059.117128	3979.000000
2060.802718	4080.000000
2062.487968	4005.000000
2064.171170	3917.000000
2065.855741	4166.000000
2067.534850	3835.000000
2069.218744	3925.000000
2070.897177	3884.000000
2072.578688	3860.000000
2074.256447	4144.000000
2075.933870	3879.000000
2077.612662	4056.000000
2079.289412	3880.000000
2080.964120	4031.000000
2082.640197	3954.000000
2084.314234	3955.000000
2085.987935	3980.000000
2087.661301	4009.000000
2089.332628	4007.000000
2091.003622	3910.000000
2092.674280	3949.000000
2094.344605	4011.000000
2096.014596	4026.000000
2097.682551	3931.000000
2099.350173	4070.000000
2101.015760	3832.000000
2102.682716	4055.000000
2104.347639	4142.000000
2106.012230	4109.000000
2107.674789	4144.000000
2109.338716	4134.000000
2111.000612	4099.000000
2112.662178	4108.000000
2114.323412	4022.000000
2115.982618	4039.000000
2117.641493	4162.000000
2119.300039	4153.000000
2120.958255	4111.000000
2122.612747	4090.000000
2124.270304	4075.000000
2125.927532	4219.000000
2127.581038	4010.000000
2129.235912	3985.000000
2130.887067	4008.000000
2132.541285	3965.000000
2134.191786	4078.000000
2135.843653	4116.000000
2137.490112	3944.000000
2139.141326	4079.000000
2140.788826	4036.000000
2142.437693	3938.000000
2144.084541	4051.000000
2145.731064	3963.000000
2147.377261	4104.000000
2149.019750	4143.000000
2150.665297	4044.000000
2152.307137	4041.000000
2153.952034	4114.000000
2155.593226	3934.000000
2157.234094	3804.000000
2158.874638	4019.000000
2160.513170	3860.000000
2162.153068	3811.000000
2163.789266	3876.000000
2165.426830	3815.000000
2167.064072	3921.000000
2168.699304	3890.000000
2170.334215	3727.000000
2171.968804	3741.000000
2173.603071	3801.000000
2175.233645	3802.000000
2176.867271	3734.000000
2178.497205	3845.000000
2180.128504	3784.000000
2181.757798	3692.000000
2183.386773	3654.000000
2185.015428	3691.000000
2186.643764	3697.000000
2188.270098	3726.000000
2189.896113	3613.000000
2191.520126	3667.000000
2193.145505	3709.000000
2194.768883	3690.000000
2196.393626	3532.000000
2198.014688	3470.000000
2199.635433	3691.000000
2201.257543	3560.000000
2202.877655	3524.000000
2204.495770	3611.000000
2206.113570	3452.000000
2207.731055	3585.000000
2209.348224	3395.000000
2210.965078	3356.000000
2212.581616	3485.000000
2214.196162	3523.000000
2215.808715	3566.000000
2217.422632	3405.000000
2219.034558	3383.000000
2220.647847	3500.000000
2222.259146	3369.000000
2223.868455	3367.000000
2225.479128	3442.000000
2227.087812	3387.000000
2228.696183	3359.000000
2230.302568	3286.000000
2231.910316	3299.000000
2233.516077	3426.000000
2235.121527	3253.000000
2236.724992	3279.000000
2238.329820	3260.000000
2239.932664	3187.000000
2241.533525	3256.000000
2243.135749	3222.000000
2244.735991	3222.000000
2246.337595	3125.000000
2247.935547	3122.000000
2249.534860	3285.000000
2251.132194	3284.000000
2252.729220	3185.000000
2254.327608	3224.000000
2255.922347	3133.000000
2257.515109	3198.000000
2259.109234	3155.000000
2260.704720	3130.000000
2262.296561	3203.000000
2263.888096	3028.000000
2265.480993	3133.000000
2267.068580	3168.000000
2268.660863	3156.000000
2270.247840	3131.000000
2271.837844	3031.000000
2273.422544	2966.000000
2275.011938	2913.000000
2276.596030	2893.000000
2278.181483	3037.000000
2279.764966	2937.000000
2281.351475	2976.000000
2282.934351	2888.000000
2284.516924	2932.000000
2286.099193	2885.000000
2287.677832	2936.000000
2289.259496	2813.000000
2290.837531	2804.000000
2292.418589	2881.000000
2293.996020	2824.000000
2295.571488	2767.000000
2297.149978	2814.000000
2298.724844	2813.000000
2300.299409	2710.000000
2301.873674	2683.000000
2303.447638	2705.000000
2305.021301	2704.000000
2306.594665	2750.000000
2308.164410	2736.000000
2309.733856	2703.000000
2311.306320	2680.000000
2312.873510	2732.000000
2314.443718	2676.000000
2316.010311	2724.000000
2317.578264	2617.000000
2319.144261	2624.000000
2320.709961	2529.000000
2322.275363	2563.000000
2323.838812	2641.000000
2325.403620	2768.000000
2326.964820	2813.000000
2328.529034	2756.000000
2330.087986	2947.000000
2331.649953	2774.000000
2333.209968	2533.000000
2334.769689	2692.000000
2336.327460	2581.000000
2337.884936	2605.000000
2339.442118	2628.000000
2340.997352	2652.000000
2342.552293	2615.000000
2344.106939	2500.000000
2345.661292	2680.000000
2347.215352	2607.000000
2348.769117	2583.000000
2350.320939	2529.000000
2351.870817	2561.000000
2353.423703	2513.000000
2354.971347	2433.000000
2356.521998	2553.000000
2358.069058	2569.000000
2359.617476	2528.000000
2361.165603	2516.000000
2362.710141	2428.000000
2364.256037	2547.000000
2365.799995	2502.000000
2367.345310	2385.000000
2368.887040	2514.000000
2370.430127	2447.000000
2371.971278	2489.000000
2373.512140	2548.000000
2375.052713	2404.000000
2376.592997	2380.000000
2378.132992	2387.000000
2379.669409	2492.000000
2381.208827	2313.000000
2382.744668	2439.000000
2384.281865	2326.000000
2385.815487	2414.000000
2387.352109	2377.000000
2388.886801	2416.000000
2390.419563	2283.000000
2391.952038	2346.000000
2393.482585	2428.000000
2395.016130	2241.000000
2396.544464	2320.000000
2398.074155	2319.000000
2399.603559	2361.000000
2401.132679	2289.000000
2402.661514	2320.000000
2404.185143	2441.000000
2405.713408	2351.000000
2407.236471	2278.000000
2408.764167	2402.000000
2410.285024	2387.000000
2411.810514	2396.000000
2413.332443	2338.000000
2414.855728	2414.000000
2416.377091	2200.000000
2417.896535	2209.000000
2419.417335	2239.000000
2420.936215	2237.000000
2422.454813	2158.000000
2423.971494	2288.000000
2425.489529	2315.000000
2427.007283	2333.000000
2428.521486	2270.000000
2430.035408	2293.000000
2431.549050	2199.000000
2433.064047	2271.000000
2434.575495	2257.000000
2436.088298	2250.000000
2437.599187	2200.000000
2439.109798	2141.000000
2440.618497	2178.000000
2442.130182	2358.000000
2443.638324	2254.000000
2445.146188	2169.000000
2446.653774	2080.000000
2448.157819	2272.000000
2449.664849	2160.000000
2451.169972	2146.000000
2452.674816	2141.000000
2454.177754	2266.000000
2455.680416	2107.000000
2457.182801	2126.000000
2458.683281	1998.000000
2460.185114	2098.000000
2461.685042	2132.000000
2463.184695	2213.000000
2464.684073	1946.000000
2466.181548	2110.000000
2467.677121	2096.000000
2469.175674	2088.000000
2470.670699	2101.000000
2472.167076	2043.000000
2473.659927	2092.000000
2475.154131	2211.000000
2476.648061	2087.000000
2478.138467	2140.000000
2479.631851	2016.000000
2481.123337	2001.000000
2482.612926	1965.000000
2484.102243	2055.000000
2485.589664	2105.000000
2487.080061	2053.000000
2488.566940	2017.000000
2490.055170	2066.000000
2491.539884	2076.000000
2493.024327	2004.000000
2494.510121	1998.000000
2495.994024	1984.000000
2497.479277	2082.000000
2498.959397	2073.000000
2500.442490	2007.000000
2501.923692	1979.000000
2503.404625	1995.000000
2504.883669	2072.000000
2506.362444	2070.000000
2507.840951	2035.000000
2509.319190	1944.000000
2510.797160	1995.000000
2512.271625	2063.000000
2513.749060	2033.000000
2515.222991	1997.000000
2516.698272	1920.000000
2518.173286	1936.000000
2519.644800	2099.000000
2521.117663	1948.000000
2522.588644	1930.000000
2524.060975	1917.000000
2525.528192	2060.000000
2526.998376	2070.000000
2528.466679	2035.000000
2529.934717	2002.000000
2531.402490	2008.000000
2532.869998	1983.000000
2534.337241	1970.000000
2535.800992	1932.000000
2537.266093	1970.000000
2538.729317	1897.000000
2540.193891	2013.000000
2541.654975	1956.000000
2543.117409	1976.000000
2544.579580	1992.000000
2546.038265	1998.000000
2547.501522	2070.000000
2548.959682	2066.000000
2550.419191	1867.000000
2551.873606	1997.000000
2553.332592	1932.000000
2554.789706	2025.000000
2556.244949	1946.000000
2557.699931	1959.000000
2559.153043	1944.000000
2560.607504	1925.000000
2562.060095	1982.000000
2563.512427	1977.000000
2564.962892	1846.000000
2566.416312	1907.000000
2567.864650	1972.000000
2569.315944	1860.000000
2570.765371	1931.000000
2572.211326	1942.000000
2573.660236	1862.000000
2575.105676	1944.000000
2576.552463	2089.000000
2577.997388	2053.000000
2579.442054	1924.000000
2580.888068	1943.000000
2582.330616	1937.000000
2583.774511	1872.000000
2585.214941	1824.000000
2586.656718	1823.000000
2588.096636	1837.000000
2589.537901	1980.000000
2590.975704	1901.000000
2592.416457	1996.000000
2593.852148	1947.000000
2595.290788	1942.000000
2596.727570	1911.000000
2598.162497	1890.000000
2599.600371	2065.000000
2601.033188	1997.000000
2602.467352	1912.000000
2603.899662	1901.000000
2605.333318	1974.000000
2606.765121	1842.000000
2608.196670	1899.000000
2609.627967	1856.000000
2611.057411	1832.000000
2612.486603	1789.000000
2613.913945	1946.000000
2615.342632	1835.000000
2616.771068	1873.000000
2618.196056	1779.000000
2619.622391	1881.000000
2621.046877	1931.000000
2622.472709	1822.000000
2623.895097	1920.000000
2625.318831	1883.000000
2626.740718	1870.000000
2628.162356	1847.000000
2629.582148	1912.000000
2631.003286	1899.000000
2632.424174	1881.000000
2633.841624	1914.000000
2635.262013	1815.000000
2636.678965	1871.000000
2638.095668	1903.000000
2639.512123	1870.000000
2640.928330	1901.000000
2642.344289	2004.000000
2643.758407	1905.000000
2645.172277	1958.000000
2646.584309	1924.000000
2647.997684	1890.000000
2649.407630	1858.000000
2650.820512	1852.000000
2652.229965	1899.000000
2653.639172	1897.000000
2655.046543	1944.000000
2656.456848	1846.000000
2657.865318	1869.000000
2659.271952	1903.000000
2660.678341	1930.000000
2662.082896	1773.000000
2663.488795	1925.000000
2664.892861	1914.000000
2666.296682	1895.000000
2667.700259	1906.000000
2669.102005	1924.000000
2670.505094	1883.000000
2671.904765	1977.000000
2673.305780	1955.000000
2674.703379	1946.000000
2676.103908	1965.000000
2677.501021	1999.000000
2678.899479	1879.000000
2680.296108	1951.000000
2681.692495	1800.000000
2683.088640	1984.000000
2684.482960	1935.000000
2685.878621	1887.000000
2687.270874	1911.000000
2688.664469	1895.000000
2690.056240	1971.000000
2691.449354	1999.000000
2692.840644	1906.000000
2694.230111	1901.000000
2695.619338	1896.000000
2697.008326	1927.000000
2698.398655	2049.000000
2699.784001	1891.000000
2701.172270	1982.000000
2702.558719	2028.000000
2703.944929	1955.000000
2705.330900	1992.000000
2706.713473	1966.000000
2708.097388	1975.000000
2709.481065	1921.000000
2710.864503	1983.000000
2712.244547	1847.000000
2713.625931	1950.000000
2715.005501	1992.000000
2716.386411	2024.000000
2717.765507	2015.000000
2719.142789	1951.000000
2720.521412	2072.000000
2721.898222	1997.000000
2723.274795	1953.000000
2724.651133	2105.000000
2726.025660	2125.000000
2727.401527	2110.000000
2728.774007	2074.000000
2730.149403	2050.000000
2731.519839	2019.000000
2732.891616	2104.000000
2734.263158	2122.000000
2735.632892	2067.000000
2737.003967	2126.000000
2738.373233	2217.000000
2739.742266	2129.000000
2741.109493	2204.000000
2742.476487	2236.000000
2743.843247	2146.000000
2745.209776	2195.000000
2746.574499	2182.000000
2747.938990	2101.000000
2749.303250	2186.000000
2750.667277	2168.000000
2752.031073	2301.000000
2753.391495	2210.000000
2754.754827	2152.000000
2756.113217	2178.000000
2757.474517	2214.000000
2758.832447	2131.000000
2760.193285	2334.000000
2761.552324	2189.000000
2762.907994	2337.000000
2764.266572	2246.000000
2765.621783	2241.000000
2766.976765	2282.000000
2768.329951	2336.000000
2769.686043	2238.000000
2771.038770	2267.000000
2772.391270	2289.000000
2773.743541	2398.000000
2775.097151	2335.000000
2776.447399	2343.000000
2777.795853	2335.000000
2779.147213	2376.000000
2780.495213	2344.000000
2781.844551	2359.000000
2783.192098	2410.000000
2784.539417	2493.000000
2785.886510	2431.000000
2787.231812	2453.000000
2788.576887	2451.000000
2789.921737	2461.000000
2791.266361	2375.000000
2792.607633	2529.000000
2793.950243	2510.000000
2795.292627	2565.000000
2796.634786	2619.000000
2797.973597	2541.000000
2799.315306	2535.000000
2800.653668	2540.000000
2801.993366	2573.000000
2803.331280	2465.000000
2804.667409	2606.000000
2806.003314	2617.000000
2807.340557	2633.000000
2808.676016	2626.000000
2810.011252	2609.000000
2811.344705	2755.000000
2812.679495	2706.000000
2814.010945	2682.000000
2815.345290	2704.000000
2816.674737	2764.000000
2818.005521	2836.000000
2819.336083	2869.000000
2820.664866	2938.000000
2821.994985	2951.000000
2823.323326	2985.000000
2824.651446	2937.000000
2825.977788	2826.000000
2827.305467	2874.000000
2828.629812	3026.000000
2829.955494	3018.000000
2831.279400	2976.000000
2832.603087	3029.000000
2833.928109	2928.000000
2835.249801	3131.000000
2836.571275	3006.000000
2837.892530	2995.000000
2839.213566	3126.000000
2840.532829	3151.000000
2841.853428	3104.000000
2843.172256	3282.000000
2844.490865	3181.000000
2845.807703	3217.000000
2847.124324	3158.000000
2848.440728	3376.000000
2849.755362	3230.000000
2851.071332	3408.000000
2852.383981	3386.000000
2853.697965	3290.000000
2855.011733	3393.000000
2856.325285	3418.000000
2857.637069	3489.000000
2858.947087	3547.000000
2860.258440	3528.000000
2861.566478	3712.000000
2862.875850	3610.000000
2864.185008	3760.000000
2865.493950	3655.000000
2866.801128	3750.000000
2868.106544	3657.000000
2869.413294	3866.000000
2870.718281	3773.000000
2872.023055	3987.000000
2873.326067	3952.000000
2874.631960	3994.000000
2875.932999	4144.000000
2877.235372	4056.000000
2878.535985	4131.000000
2879.837932	4093.000000
2881.139666	4124.000000
2882.438095	4373.000000
2883.737858	4325.000000
2885.035864	4265.000000
2886.333658	4307.000000
2887.629696	4569.000000
2888.927067	4440.000000
2890.222682	4556.000000
2891.518086	4377.000000
2892.813279	4583.000000
2894.105175	4519.000000
2895.399947	4665.000000
2896.691422	4745.000000
2897.984230	4776.000000
2899.276828	4835.000000
2900.566132	4989.000000
2901.856768	4842.000000
2903.145653	4822.000000
2904.435870	4895.000000
2905.722796	5049.000000
2907.011054	5001.000000
2908.297563	5102.000000
2909.583864	5178.000000
2910.869956	5241.000000
2912.154300	5092.000000
2913.441515	5454.000000
2914.723904	5474.000000
2916.007625	5547.000000
2917.289600	5587.000000
2918.571367	5674.000000
2919.851390	5788.000000
2921.134282	5894.000000
2922.415429	5727.000000
2923.693294	5951.000000
2924.974028	5930.000000
2926.251481	6062.000000
2927.528728	6142.000000
2928.804233	6063.000000
2930.082606	6220.000000
2931.356165	6356.000000
2932.632591	6414.000000
2933.907276	6422.000000
2935.180220	6631.000000
2936.454496	6660.000000
2937.727032	6657.000000
2938.999363	6647.000000
2940.268422	6726.000000
2941.540346	6859.000000
2942.810532	6905.000000
2944.080514	7060.000000
2945.350293	7161.000000
2946.618336	7489.000000
2947.884642	7365.000000
2949.150747	7376.000000
2950.418181	7465.000000
2951.683881	7682.000000
2952.949378	7558.000000
2954.214673	7988.000000
2955.476703	8071.000000
2956.740063	8012.000000
2958.003222	8186.000000
2959.264649	8259.000000
2960.527405	8431.000000
2961.788429	8587.000000
2963.047723	8619.000000
2964.306817	8715.000000
2965.565710	8879.000000
2966.824403	9015.000000
2968.082896	9084.000000
2969.339660	9107.000000
2970.596224	9244.000000
2971.851061	9317.000000
2973.107226	9592.000000
2974.360137	9733.000000
2975.614377	9713.000000
2976.868418	9888.000000
2978.120733	9854.000000
2979.372849	10474.000000
2980.623241	10420.000000
2981.876488	10712.000000
2983.124958	10473.000000
2984.376283	10703.000000
2985.624358	10916.000000
2986.872237	10937.000000
2988.119918	11199.000000
2989.367402	11248.000000
2990.613165	11454.000000
2991.858732	11513.000000
2993.105626	11840.000000
2994.349276	11721.000000
2995.594254	12085.000000
2996.835988	12091.000000
2998.080574	12379.000000
2999.323441	12708.000000
3000.563067	12865.000000
3001.805543	12786.000000
3003.044779	13030.000000
3004.285343	13305.000000
3005.524191	13369.000000
3006.762843	13782.000000
3007.999781	13918.000000
3009.238045	13987.000000
3010.474594	14231.000000
3011.710950	14508.000000
3012.947112	14562.000000
3014.181560	14807.000000
3015.415816	15100.000000
3016.649878	15257.000000
3017.882228	15425.000000
3019.112866	15641.000000
3020.346350	15850.000000
3021.578122	16242.000000
3022.808184	16354.000000
3024.038054	16494.000000
3025.266214	16682.000000
3026.495700	17276.000000
3027.723477	17404.000000
3028.951064	17456.000000
3030.179976	17864.000000
3031.404146	18277.000000
3032.631159	18443.000000
3033.854948	18613.000000
3035.080064	18835.000000
3036.303473	19015.000000
3037.526692	19585.000000
3038.748206	19265.000000
3039.972561	20013.000000
3041.192181	20209.000000
3042.413127	20196.000000
3043.633884	20644.000000
3044.852937	21044.000000
3046.073316	21562.000000
3047.290477	21683.000000
3048.508965	21502.000000
3049.725750	22219.000000
3050.942348	22869.000000
3052.158757	23070.000000
3053.371954	23143.000000
3054.587988	23888.000000
3055.800810	23715.000000
3057.016469	23966.000000
3058.227405	24526.000000
3059.439666	24603.000000
3060.651741	25066.000000
3061.863628	25510.000000
3063.073819	25925.000000
3064.283823	26192.000000
3065.493641	26669.000000
3066.701763	27046.000000
3067.909700	27143.000000
3069.115941	27699.000000
3070.323507	28180.000000
3071.529378	28528.500000
3072.735065	28877.000000
3073.940566	29123.000000
3075.144374	29487.000000
3076.349506	30137.000000
3077.552946	30625.000000
3078.754693	31154.000000
3079.956256	30683.000000
3081.157636	31723.000000
3082.358832	31970.000000
3083.558338	32755.000000
3084.757661	32921.000000
3085.958307	33456.000000
3087.157263	33751.000000
3088.353025	34436.000000
3089.551616	34645.000000
3090.747013	35154.000000
3091.943733	35662.000000
3093.137261	36235.000000
3094.333617	36360.000000
3095.528287	36860.000000
3096.719766	37667.000000
3097.915576	37822.000000
3099.106693	38079.000000
3100.299132	38699.000000
3101.488384	39177.000000
3102.680461	39756.000000
3103.870855	40177.000000
3105.058063	41115.000000
3106.246594	41285.000000
3107.436446	41724.000000
3108.623115	42471.000000
3109.809604	43394.000000
3110.995913	43247.000000
3112.183544	44218.000000
3113.367993	44309.000000
3114.550763	44507.000000
3115.736355	45562.000000
3116.920268	45403.000000
3118.102502	46235.000000
3119.284557	46454.000000
3120.466434	47689.000000
3121.648133	48008.000000
3122.828155	48423.000000
3124.006500	48866.000000
3125.187665	49318.000000
3126.365656	50150.000000
3127.543469	50144.000000
3128.721105	50151.000000
3129.897066	51427.000000
3131.072850	51944.000000
3132.249956	52372.000000
3133.425387	52701.000000
3134.599145	52877.000000
3135.771230	54091.000000
3136.944637	54338.000000
3138.117867	55187.000000
3139.289426	55110.000000
3140.462305	56082.000000
3141.632017	56515.000000
3142.803050	57012.000000
3143.972413	57081.000000
3145.140105	57872.000000
3146.310614	57847.000000
3147.476463	58327.000000
3148.646621	58556.000000
3149.812123	58781.000000
3150.977450	59507.000000
3152.142605	59637.000000
3153.307585	60181.000000
3154.473885	60281.000000
3155.635533	60592.000000
3156.798500	60408.000000
3157.961295	60646.000000
3159.123917	61146.000000
3160.284874	60850.000000
3161.445658	61507.000000
3162.606270	61962.000000
3163.765218	61872.000000
3164.923995	62180.000000
3166.082600	62742.000000
3167.241033	62433.000000
3168.399294	63100.000000
3169.555893	63378.000000
3170.710831	63571.000000
3171.867088	63256.000000
3173.021684	63738.000000
3174.176110	64369.000000
3175.328876	64216.000000
3176.481472	64123.000000
3177.633897	64497.000000
3178.786153	64456.000000
3179.938238	64534.000000
3181.087178	64476.000000
3182.238924	64483.000000
3183.389012	64460.000000
3184.537444	64469.000000
3185.685706	64506.000000
3186.833800	64501.000000
3187.981725	64511.000000
3189.127994	64433.000000
3190.274096	64542.000000
3191.418542	64536.000000
3192.562821	64526.000000
3193.706932	64532.000000
3194.852360	64560.000000
3195.994650	64502.000000
3197.136773	64489.000000
3198.278728	64514.000000
3199.420516	64511.000000
3200.562137	64521.000000
3201.700623	64516.000000
3202.840426	64527.000000
3203.981547	64468.000000
3205.119533	64490.000000
3206.255870	64476.000000
3207.392041	64443.000000
3208.529529	64537.000000
3209.665369	64541.000000
3210.802526	64484.000000
3211.935070	64461.000000
3213.071896	64519.000000
3214.204110	64475.000000
3215.337641	64522.000000
3216.471008	64485.000000
3217.601247	64538.000000
3218.734284	64486.000000
3219.864195	64443.000000
3220.995422	64436.000000
3222.123525	64418.000000
3223.254424	64478.000000
3224.383679	64534.000000
3225.511291	64482.000000
3226.635780	64445.000000
3227.764545	64478.000000
3228.890188	64520.000000
3230.015669	64470.000000
3231.139508	64498.000000
3232.266141	64487.000000
3233.388177	64540.000000
3234.511529	64465.000000
3235.634719	64466.000000
3236.757747	64474.000000
3237.879135	64507.000000
3239.000361	64495.000000
3240.119950	64526.000000
3241.239377	64512.000000
3242.357166	64536.000000
3243.477747	64492.000000
3244.595215	64487.000000
3245.712522	64490.000000
3246.829669	64383.000000
3247.945180	64527.000000
3249.062005	64497.000000
3250.175721	64460.000000
3251.292226	64512.000000
3252.407097	64472.000000
3253.518859	64533.000000
3254.630461	64497.000000
3255.743379	64571.000000
3256.856137	64515.000000
3257.965789	64505.000000
3259.076756	64519.000000
3260.187564	64508.000000
3261.296740	64494.000000
3262.404286	64383.000000
3263.513145	64553.000000
3264.621847	64531.000000
3265.727446	64501.000000
3266.834359	64378.000000
3267.939643	64202.000000
3269.046241	64464.000000
3270.149739	64574.000000
3271.254552	64504.000000
3272.359207	64506.000000
3273.460763	64436.000000
3274.562163	64509.000000
3275.664878	64534.000000
3276.767435	64527.000000
3277.866896	64510.000000
3278.969141	64469.000000
3280.068290	64520.000000
3281.165815	64480.000000
3282.263184	64469.000000
3283.363335	64478.000000
3284.460394	64510.000000
3285.557297	64493.000000
3286.654045	64449.000000
3287.746235	64557.000000
3288.842673	64506.000000
3289.937489	64452.000000
3291.032151	64510.000000
3292.125191	64431.000000
3293.218077	64540.000000
3294.309342	64524.000000
3295.401919	64537.000000
3296.492877	64450.000000
3297.582215	64449.000000
3298.671400	64493.000000
3299.761898	64551.000000
3300.849311	64455.000000
3301.936571	64498.000000
3303.025144	64491.000000
3304.113565	64506.000000
3305.197438	64550.000000
3306.285553	64517.000000
3307.370587	64550.000000
3308.454004	64457.000000
3309.538734	64486.000000
3310.621849	64496.000000
3311.706275	64531.000000
3312.787623	64514.000000
3313.870283	64491.000000
3314.951329	64494.000000
3316.032224	64517.000000
3317.111505	64503.000000
3318.190636	64486.000000
3319.271079	64495.000000
3320.348447	64502.000000
3321.427127	64574.000000
3322.504195	64522.000000
3323.581114	64542.000000
3324.656421	64520.000000
3325.731579	64554.000000
3326.808048	64546.000000
3327.881447	64544.000000
3328.954697	64552.000000
3330.029257	64511.000000
3331.102209	64536.000000
3332.173552	64540.000000
3333.246206	64561.000000
3334.315794	64537.000000
3335.386692	64520.000000
3336.455983	64483.000000
3337.526585	64487.000000
3338.595580	64544.000000
3339.662969	64527.000000
3340.728753	64485.000000
3341.798763	64508.000000
3342.865710	64539.000000
3343.929595	64443.000000
3344.996248	64595.000000
3346.061296	64559.000000
3347.124741	64387.000000
3348.188040	64550.000000
3349.251192	64535.000000
3350.314198	64584.000000
3351.377058	64527.000000
3352.438316	64442.000000
3353.496517	64538.000000
3354.558938	64524.000000
3355.618304	64459.000000
3356.677524	64452.000000
3357.738054	64526.000000
3358.794074	64524.000000
3359.852858	64507.000000
3360.907135	64524.000000
3361.964176	64555.000000
3363.019618	64542.000000
3364.076370	64527.000000
3365.131523	64524.000000
3366.185079	64545.000000
3367.237039	64528.000000
3368.291760	64568.000000
3369.343432	64502.000000
3370.394961	64477.000000
3371.447798	64483.000000
3372.497588	64573.000000
3373.548687	64509.000000
3374.596740	64618.000000
3375.647552	64539.000000
3376.695320	64573.000000
3377.742945	64545.000000
3378.790427	64550.000000
3379.836317	64394.000000
3380.883515	64557.000000
3381.927671	64549.000000
3382.974585	64520.000000
3384.019907	64510.000000
3385.062188	64492.000000
3386.104329	64539.000000
3387.147777	64544.000000
3388.191084	64533.000000
3389.232802	64544.000000
3390.274378	64457.000000
3391.315814	64551.000000
3392.355660	64585.000000
3393.393918	64502.000000
3394.433484	64551.000000
3395.472910	64484.000000
3396.510748	64542.000000
3397.546999	64560.000000
3398.583111	64484.000000
3399.620530	64553.000000
3400.654916	64543.000000
3401.690609	64544.000000
3402.726163	64561.000000
3403.758686	64521.000000
3404.793962	64551.000000
3405.826207	64533.000000
3406.858314	64545.000000
3407.888837	64536.000000
3408.920667	64571.000000
3409.952359	64537.000000
3410.981023	64449.000000
3412.009550	64562.000000
3413.039383	64561.000000
3414.069079	64523.000000
3415.095749	64469.000000
3416.123726	64570.000000
3417.148678	64478.000000
3418.176380	64592.000000
3419.201059	64500.000000
3420.227044	64506.000000
3421.251449	64524.000000
3422.275718	64540.000000
3423.298408	64531.000000
3424.320962	64555.000000
3425.344822	64426.000000
3426.365662	64555.000000
3427.386366	64575.000000
3428.408377	64561.000000
3429.427369	64510.000000
3430.446226	64498.000000
3431.466388	64480.000000
3432.483534	64577.000000
