-116.773079	182.000000
-114.103479	171.000000
-111.436814	220.000000
-108.770901	117.000000
-106.107920	203.000000
-103.443510	181.000000
-100.782030	146.000000
-98.119121	195.000000
-95.461318	159.000000
-92.802086	203.000000
-90.143602	180.000000
-87.488042	200.000000
-84.831054	248.000000
-82.179164	211.000000
-79.525843	158.000000
-76.875443	203.000000
-74.223613	186.000000
-71.576874	223.000000
-68.928706	237.000000
-66.281280	186.000000
-63.636768	261.000000
-60.990828	107.000000
-58.349969	229.000000
-55.707681	242.000000
-53.068301	235.000000
-50.427493	324.000000
-47.787425	240.000000
-45.152429	258.000000
-42.516005	261.000000
-39.882483	313.000000
-37.247533	304.000000
-34.617648	372.000000
-31.984171	401.000000
-29.355756	414.000000
-26.728075	441.000000
-24.098965	472.000000
-21.474912	550.000000
-18.847270	756.000000
-16.224681	859.000000
-13.602824	1282.000000
-10.981697	2098.000000
-8.361300	5023.000000
-5.743792	17460.000000
-3.124855	59859.000000
-0.508803	64252.000000
2.106520	64309.000000
4.721116	64262.000000
7.332829	5744.000000
9.945971	1520.000000
12.554079	828.000000
15.165769	691.000000
17.772428	618.000000
20.380515	488.000000
22.987878	612.000000
25.590216	494.000000
28.196132	465.000000
30.797026	435.000000
33.399348	312.000000
35.996653	342.000000
38.597533	368.000000
41.193398	341.000000
43.790692	419.000000
46.387266	460.000000
48.978831	343.000000
51.571824	340.000000
54.161956	420.000000
56.753516	388.000000
59.342216	411.000000
61.932343	391.000000
64.517471	444.000000
67.104027	430.000000
69.689869	355.000000
72.272857	421.000000
74.857271	497.000000
77.434557	396.000000
80.015409	470.000000
82.593412	530.000000
85.170705	614.000000
87.749424	513.000000
90.323161	539.000000
92.898326	583.000000
95.470647	614.000000
98.042260	695.000000
100.611033	842.000000
103.181233	956.000000
105.748595	1049.000000
108.317382	1267.000000
110.883333	1513.000000
113.446449	1919.000000
116.013121	2574.000000
118.570572	3421.000000
121.133708	4911.000000
123.691884	7173.000000
126.253615	10695.000000
128.810389	16031.000000
131.368590	24178.000000
133.921837	35481.000000
136.474387	51138.000000
139.030487	63133.000000
141.581639	64339.000000
144.132094	64386.000000
146.681851	64369.000000
149.228789	64341.000000
151.775032	64359.000000
154.322700	64369.000000
156.869672	64354.000000
159.411709	64200.000000
161.953052	64190.000000
164.493702	64307.000000
167.035778	64212.000000
169.575042	64295.000000
172.111498	64289.000000
174.647262	64359.000000
177.184452	64239.000000
179.720951	64292.000000
182.254644	64383.000000
184.785533	64318.000000
187.315735	64367.000000
189.847361	64341.000000
192.376186	64357.000000
194.902212	64317.000000
197.427552	64264.000000
199.954318	64333.000000
202.478286	64330.000000
205.001570	64418.000000
207.524169	64378.000000
210.043975	64340.000000
212.563098	64254.000000
215.081538	64383.000000
217.601402	64406.000000
220.114265	64351.000000
222.630659	64399.000000
225.146371	64287.000000
227.657193	64191.000000
230.169440	64353.000000
232.678905	64317.000000
235.187691	64325.000000
237.695798	64365.000000
240.205330	64365.000000
242.709981	64236.000000
245.213956	63841.000000
247.719355	63521.000000
250.219879	62249.000000
252.723927	61444.000000
255.221003	60363.000000
257.721603	60612.000000
260.219431	59307.000000
262.716586	57806.000000
265.213068	57406.000000
267.704687	56607.000000
270.199826	54916.000000
272.692198	54535.000000
275.183901	53421.000000
277.672839	52246.000000
280.163202	50919.000000
282.650802	50122.000000
285.135643	49281.000000
287.623999	48230.000000
290.105415	47135.000000
292.590345	46731.000000
295.070430	45961.000000
297.554027	44640.000000
300.032781	44301.000000
302.512959	43797.000000
304.990384	43149.000000
307.467146	42496.000000
309.943245	41604.000000
312.416595	40764.000000
314.889283	40997.000000
317.361310	40684.000000
319.832676	40804.000000
322.301297	39899.000000
324.769260	40412.000000
327.238644	39962.000000
329.703206	39602.000000
332.171272	39403.000000
334.634518	39588.000000
337.097106	39398.000000
339.559038	39013.000000
342.020313	39760.000000
344.478854	39551.000000
346.938817	39009.000000
349.396047	39137.000000
351.852623	39298.000000
354.308545	39070.000000
356.761737	38915.000000
359.216352	39227.000000
361.666165	39512.000000
364.119474	38767.000000
366.567985	39552.000000
369.015844	38743.000000
371.465126	38969.000000
373.909614	38860.000000
376.355524	38665.000000
378.800784	39032.000000
381.243326	38885.000000
383.685220	39175.000000
386.126467	39414.000000
388.564998	39784.000000
391.004951	39285.000000
393.442190	38686.000000
395.876717	38713.000000
398.314732	39667.000000
400.747970	39145.000000
403.182629	38839.000000
405.612516	39224.000000
408.045888	39313.000000
410.474490	39623.000000
412.902450	39111.000000
415.331832	39107.000000
417.756448	39706.000000
420.182486	39702.000000
422.607883	38729.000000
425.032640	38897.000000
427.452639	39234.000000
429.874059	39703.000000
432.292782	39567.000000
434.712926	39896.000000
437.130375	39624.000000
439.549244	39695.000000
441.965420	39577.000000
444.376848	39997.000000
446.791754	39640.000000
449.203969	39144.000000
451.615550	39396.000000
454.026497	39774.000000
456.434758	39100.000000
458.842386	39194.000000
461.249382	39022.000000
463.655747	38879.000000
466.059429	38561.000000
468.462481	38913.000000
470.864903	38395.000000
473.266695	38300.000000
475.665810	37888.000000
478.066344	37990.000000
480.466249	37612.000000
482.861431	37737.000000
485.260080	38008.000000
487.654009	37919.000000
490.047312	37937.000000
492.439989	37447.000000
494.832041	37363.000000
497.225511	36536.000000
499.614270	36567.000000
502.000361	35988.000000
504.387873	35309.000000
506.774762	34911.000000
509.158987	34564.000000
511.544630	33825.000000
513.927612	33796.000000
516.307933	33370.000000
518.689673	33461.000000
521.068754	33076.000000
523.449254	32946.000000
525.827096	32320.000000
528.202283	32557.000000
530.576852	32576.000000
532.952839	32104.000000
535.326174	31596.000000
537.700926	31858.000000
540.070993	31528.000000
542.440444	32106.000000
544.811313	31462.000000
547.177502	31286.000000
549.545109	31192.000000
551.910070	31024.000000
554.274418	31434.000000
556.638153	31183.000000
559.003306	31409.000000
561.363787	31072.000000
563.725686	31085.000000
566.084944	30765.000000
568.441565	30251.000000
570.801630	30146.000000
573.155004	29919.000000
575.511823	30080.000000
577.866007	29948.000000
580.219583	29519.000000
582.572550	29749.000000
584.922885	29062.000000
587.274638	29576.000000
589.619714	29448.000000
591.970254	28599.000000
594.314120	29050.000000
596.663448	28701.000000
599.008127	29500.000000
601.350182	28973.000000
603.693654	28774.000000
606.034503	28951.000000
608.374750	28677.000000
610.712376	28078.000000
613.053437	28340.000000
615.389860	28181.000000
617.727700	27918.000000
620.062923	27888.000000
622.395530	27557.000000
624.729553	27209.000000
627.060962	27413.000000
629.391774	27391.000000
631.721987	26872.000000
634.051602	26988.000000
636.376595	27426.000000
638.707028	27262.000000
641.032841	27033.000000
643.356046	26878.000000
645.680668	26870.000000
648.002684	26952.000000
650.324106	26971.000000
652.642926	26554.000000
654.963161	26643.000000
657.282803	26508.000000
659.599844	26354.000000
661.916293	26275.000000
664.230144	25865.000000
666.545411	26223.000000
668.858081	25922.000000
671.172166	25859.000000
673.481651	26002.000000
675.792552	25826.000000
678.100860	25819.000000
680.408580	25833.000000
682.717714	25807.000000
685.022256	25276.000000
687.326212	25185.000000
689.629582	25143.000000
691.934366	25275.000000
694.234564	24815.000000
696.536176	25404.000000
698.837204	25040.000000
701.133649	24911.000000
703.431510	24621.000000
705.728787	24433.000000
708.025481	24690.000000
710.317599	24292.000000
712.613128	24265.000000
714.904083	24839.000000
717.196453	24128.000000
719.486248	24253.000000
721.775462	24333.000000
724.064097	24197.000000
726.350159	24037.000000
728.637636	24238.000000
730.922541	23730.000000
733.206869	24283.000000
735.488628	23858.000000
737.771801	23548.000000
740.054397	23535.000000
742.332437	23681.000000
744.611892	23583.000000
746.890771	24117.000000
749.169074	23854.000000
751.442828	23656.000000
753.717995	23422.000000
755.992589	23531.000000
758.264624	23092.000000
760.538072	23343.000000
762.808962	23295.000000
765.077296	23207.000000
767.347043	23005.000000
769.614236	23116.000000
771.880858	23401.000000
774.146910	22959.000000
776.410411	23181.000000
778.675325	23271.000000
780.939669	23314.000000
783.199484	23298.000000
785.460711	23097.000000
787.721371	23034.000000
789.979485	22957.000000
792.235054	22957.000000
794.494014	22590.000000
796.746475	22772.000000
799.004302	22510.000000
801.257611	22555.000000
803.508380	22598.000000
805.760561	22087.000000
808.010203	22255.000000
810.261258	22151.000000
812.507801	21789.000000
814.755756	21765.000000
817.001177	21573.000000
819.248009	21537.000000
821.494280	21453.000000
823.736046	21108.000000
825.981196	21196.000000
828.219873	21238.000000
830.461932	20804.000000
832.699493	20843.000000
834.938466	20839.000000
837.174912	20732.000000
839.412769	20074.000000
841.648101	20008.000000
843.880910	19961.000000
846.115130	19763.000000
848.346827	19730.000000
850.577970	19699.000000
852.808558	19655.000000
855.038592	19323.000000
857.268072	18977.000000
859.493070	19303.000000
861.721443	19087.000000
863.945337	18880.000000
866.170641	18829.000000
868.391470	18874.000000
870.615671	18427.000000
872.835399	18045.000000
875.056537	18192.000000
877.277126	18129.000000
879.495204	18083.000000
881.714692	18033.000000
883.929714	17658.000000
886.144189	17750.000000
888.358115	17616.000000
890.571495	17559.000000
892.784327	17270.000000
894.996613	17123.000000
897.206396	17111.000000
899.415634	16960.000000
901.624327	17107.000000
903.830521	17043.000000
906.038124	16869.000000
908.243229	16452.000000
910.447791	16439.000000
912.649858	16495.000000
914.853334	16427.000000
917.054316	16487.000000
919.254756	16230.000000
921.456605	16252.000000
923.652063	16181.000000
925.850880	15872.000000
928.045258	15967.000000
930.242994	16135.000000
932.436294	15878.000000
934.631003	15859.000000
936.823226	15764.000000
939.014910	15543.000000
941.206057	15927.000000
943.394721	15553.000000
945.582849	15441.000000
947.768496	15576.000000
949.957495	15361.000000
952.142071	15520.000000
954.326112	15300.000000
956.513503	15429.000000
958.692590	15285.000000
960.875028	15320.000000
963.056932	15104.000000
965.236361	15106.000000
967.413318	15136.000000
969.591683	15367.000000
971.771455	15281.000000
973.944878	15054.000000
976.121647	15038.000000
978.294009	15216.000000
980.467779	15039.000000
982.637145	14938.000000
984.809855	14998.000000
986.980100	14887.000000
989.149816	15079.000000
991.319003	14695.000000
993.483793	14771.000000
995.651924	14773.000000
997.815661	14555.000000
999.980804	14725.000000
1002.143488	14857.000000
1004.305647	14622.000000
1006.465349	14770.000000
1008.624526	14472.000000
1010.785110	14548.000000
1012.943240	14401.000000
1015.100845	14359.000000
1017.257927	14141.000000
1019.414485	14632.000000
1021.566664	14124.000000
1023.720250	14216.000000
1025.873314	14053.000000
1028.023929	14070.000000
1030.175951	14136.000000
1032.323599	14455.000000
1034.474579	14326.000000
1036.621188	14316.000000
1038.767278	14359.000000
1040.912850	14219.000000
1043.059827	14176.000000
1045.200515	13927.000000
1047.344533	13958.000000
1049.486110	14119.000000
1051.627171	13809.000000
1053.769636	13910.000000
1055.905822	14045.000000
1058.045334	13859.000000
1060.180490	14137.000000
1062.318971	13774.000000
1064.453098	13771.000000
1066.586712	13932.000000
1068.721731	13719.000000
1070.852400	13900.000000
1072.984474	13751.000000
1075.114119	14057.000000
1077.243252	14016.000000
1079.371873	13963.000000
1081.499983	13970.000000
1083.625667	13809.000000
1085.750841	13668.000000
1087.877419	13744.000000
1089.999659	13776.000000
1092.123304	13589.000000
1094.242614	13739.000000
1096.367154	13530.000000
1098.485448	13790.000000
1100.605147	13691.000000
1102.722427	13642.000000
1104.839201	13403.000000
1106.955468	13729.000000
1109.069319	13406.000000
1111.184575	13334.000000
1113.295507	13224.000000
1115.409752	13295.000000
1117.519676	13214.000000
1119.631004	13185.000000
1121.741827	13303.000000
1123.848334	13368.000000
1125.958151	13377.000000
1128.063653	13405.000000
1130.170558	13410.000000
1132.271248	13267.000000
1134.377150	13407.000000
1136.478743	13083.000000
1138.581739	13432.000000
1140.684234	13277.000000
1142.780522	13295.000000
1144.882018	13295.000000
1146.979210	13283.000000
1149.075905	13260.000000
1151.172101	13282.000000
1153.267800	12968.000000
1155.363000	13133.000000
1157.455804	12959.000000
1159.550011	12996.000000
1161.638026	13283.000000
1163.731239	13223.000000
1165.818264	13007.000000
1167.908588	13083.000000
1169.994625	13136.000000
1172.083959	13175.000000
1174.167112	13152.000000
1176.251667	13041.000000
1178.337624	13102.000000
1180.419299	13117.000000
1182.502376	13003.000000
1184.583067	12878.000000
1186.663266	12954.000000
1188.742974	13183.000000
1190.822191	12881.000000
1192.899026	13251.000000
1194.973480	13271.000000
1197.051225	13084.000000
1199.124701	13031.000000
1201.199577	13370.000000
1203.270186	12963.000000
1205.342196	13065.000000
1207.411831	13262.000000
1209.482866	12987.000000
1211.553413	13133.000000
1213.619699	12925.000000
1215.687386	12909.000000
1217.752701	13151.000000
1219.819416	13063.000000
1221.881875	13038.000000
1223.947619	13063.000000
1226.009109	13042.000000
1228.072000	12920.000000
1230.132523	12965.000000
1232.192562	12917.000000
1234.252119	12815.000000
1236.309310	13005.000000
1238.366020	13242.000000
1240.420366	12992.000000
1242.477994	13076.000000
1244.533259	13112.000000
1246.584283	13020.000000
1248.636707	13181.000000
1250.688651	13007.000000
1252.738237	13054.000000
1254.787344	12923.000000
1256.835973	12708.000000
1258.884123	12892.000000
1260.931794	12772.000000
1262.975235	13015.000000
1265.021952	13002.000000
1267.066315	12746.000000
1269.110202	12670.000000
1271.151737	12872.000000
1273.190923	12544.000000
1275.233382	12669.000000
1277.271618	12901.000000
1279.311253	12696.000000
1281.350413	12860.000000
1283.385354	12654.000000
1285.421694	12685.000000
1287.455690	12736.000000
1289.491083	12344.000000
1291.522264	12699.000000
1293.554842	12583.000000
1295.586949	13022.000000
1297.616715	12492.000000
1299.647879	12997.000000
1301.674835	12907.000000
1303.703189	12909.000000
1305.727339	12715.000000
1307.754753	12648.000000
1309.777965	12476.000000
1311.802575	12551.000000
1313.824851	12659.000000
1315.848524	12685.000000
1317.869864	12190.000000
1319.890736	12418.000000
1321.911141	12383.000000
1323.927353	12451.000000
1325.944962	12419.000000
1327.960243	12610.000000
1329.978783	12507.000000
1331.993134	12781.000000
1334.005159	12750.000000
1336.020441	12717.000000
1338.031538	13245.000000
1340.044032	12843.000000
1342.052343	13157.000000
1344.063909	12439.000000
1346.069437	12379.000000
1348.078220	12178.000000
1350.082825	11914.000000
1352.090684	12022.000000
1354.098081	12129.000000
1356.099447	11709.000000
1358.102209	12157.000000
1360.104512	12062.000000
1362.106355	11725.000000
1364.107738	12088.000000
1366.106808	11932.000000
1368.105419	11880.000000
1370.103572	12139.000000
1372.101266	11752.000000
1374.094798	11774.000000
1376.089726	11621.000000
1378.084196	11542.000000
1380.078210	11625.000000
1382.069917	11706.000000
1384.061169	11626.000000
1386.050115	11610.000000
1388.040456	11469.000000
1390.030342	11514.000000
1392.017924	11290.000000
1394.005053	11641.000000
1395.989880	11528.000000
1397.976102	11501.000000
1399.960024	11500.000000
1401.943493	11413.000000
1403.926509	11566.000000
1405.907228	11404.000000
1407.889341	11504.000000
1409.869158	11640.000000
1411.848523	11520.000000
1413.823750	11497.000000
1415.802215	11673.000000
1417.778387	11298.000000
1419.754110	11719.000000
1421.729383	11586.000000
1423.702365	11524.000000
1425.674899	11463.000000
1427.646985	11479.000000
1429.618624	11503.000000
1431.586134	11346.000000
1433.558718	11398.000000
1435.523497	11569.000000
1437.493347	11476.000000
1439.459074	11431.000000
1441.426193	11733.000000
1443.391029	11720.000000
1445.351745	11567.000000
1447.317529	11474.000000
1449.277358	11310.000000
1451.238581	11520.000000
1453.201196	11492.000000
1455.159696	11585.000000
1457.117753	11763.000000
1459.075369	11624.000000
1461.032542	11466.000000
1462.987440	11679.000000
1464.943731	11629.000000
1466.897747	11521.000000
1468.851322	11568.000000
1470.802625	11592.000000
1472.755321	11353.000000
1474.705745	11388.000000
1476.655729	11239.000000
1478.605275	11463.000000
1480.552552	11422.000000
1482.497561	11584.000000
1484.443963	11614.000000
1486.389927	11823.000000
1488.335454	11644.000000
1490.278715	11750.000000
1492.221541	11756.000000
1494.162103	11726.000000
1496.104056	11856.000000
1498.043747	11866.000000
1499.983004	11481.000000
1501.921825	11837.000000
1503.858387	11673.000000
1505.796340	11951.000000
1507.732034	11927.000000
1509.667295	11910.000000
1511.600300	11607.000000
1513.532872	12072.000000
1515.465012	11876.000000
1517.396720	12097.000000
1519.326174	11865.000000
1521.257019	11751.000000
1523.187432	12130.000000
1525.113773	11978.000000
1527.041505	12339.000000
1528.966986	12108.000000
1530.892038	12280.000000
1532.816661	12353.000000
1534.740855	12745.000000
1536.662801	12485.000000
1538.586138	12622.000000
1540.507228	12839.000000
1542.426075	12789.000000
1544.346310	12916.000000
1546.264303	12821.000000
1548.181869	13169.000000
1550.097193	13230.000000
1552.013907	13218.000000
1553.926566	13184.000000
1555.842429	13414.000000
1557.756052	13610.000000
1559.667438	13491.000000
1561.580212	13507.000000
1563.488937	13716.000000
1565.399051	13831.000000
1567.308742	13826.000000
1569.218010	14202.000000
1571.125044	13995.000000
1573.029845	14252.000000
1574.936035	14509.000000
1576.839993	14795.000000
1578.743530	14432.000000
1580.646647	14911.000000
1582.547534	15365.000000
1584.449810	15186.000000
1586.349858	15475.000000
1588.251293	15690.000000
1590.148695	15595.000000
1592.045678	16038.000000
1593.942243	15874.000000
1595.840196	16571.000000
1597.732314	16731.000000
1599.627625	16998.000000
1601.522519	17372.000000
1603.415191	17483.000000
1605.307446	17969.000000
1607.197482	18296.000000
1609.087102	18340.000000
1610.976307	18304.000000
1612.865097	18641.000000
1614.751669	18672.000000
1616.639629	18940.000000
1618.523572	18996.000000
1620.408902	19441.000000
1622.293819	19782.000000
1624.176522	19755.000000
1626.060612	19902.000000
1627.940691	19837.000000
1629.822156	20161.000000
1631.701411	20508.000000
1633.582052	20533.000000
1635.456889	20347.000000
1637.336707	20574.000000
1639.212521	20548.000000
1641.087924	20190.000000
1642.964713	20210.000000
1644.835706	20392.000000
1646.709880	20100.000000
1648.580056	19650.000000
1650.453412	19850.000000
1652.324565	19413.000000
1654.193516	19280.000000
1656.063852	19082.000000
1657.930196	18995.000000
1659.797925	18745.000000
1661.663455	18452.000000
1663.530371	18396.000000
1665.393298	17848.000000
1667.257610	17619.000000
1669.119726	17312.000000
1670.981437	17080.000000
1672.844534	16943.000000
1674.705435	17012.000000
1676.564144	16165.000000
1678.422449	16114.000000
1680.282139	15820.000000
1682.136061	15523.000000
1683.993157	15481.000000
1685.849850	15164.000000
1687.702566	14897.000000
1689.558454	14580.000000
1691.410368	14165.000000
1693.261881	14075.000000
1695.112993	13751.000000
1696.963705	13382.000000
1698.814016	13279.000000
1700.662142	13287.000000
1702.511653	12931.000000
1704.355415	12247.000000
1706.204126	12108.000000
1708.047091	11885.000000
1709.893223	11571.000000
1711.735392	11450.000000
1713.580727	11209.000000
1715.420321	10894.000000
1717.261299	10820.000000
1719.103660	10627.000000
1720.942065	10061.000000
1722.781853	10300.000000
1724.619466	10112.000000
1726.456683	9688.000000
1728.291727	9645.000000
1730.128154	9463.000000
1731.962409	9436.000000
1733.796269	9198.000000
1735.629735	9096.000000
1737.459256	9085.000000
1739.291935	8981.000000
1741.120670	8686.000000
1742.952562	8352.000000
1744.780512	8604.000000
1746.608071	8398.000000
1748.435237	8280.000000
1750.262012	8337.000000
1752.088395	8076.000000
1753.910842	8223.000000
1755.736444	7813.000000
1757.558111	7887.000000
1759.381160	7968.000000
1761.202047	7902.000000
1763.022546	7752.000000
1764.844426	7590.000000
1766.660606	7821.000000
1768.479938	7646.000000
1770.295343	7521.000000
1772.113898	7417.000000
1773.928528	7417.000000
1775.742771	7474.000000
1777.556628	7423.000000
1779.370098	7320.000000
1781.181415	7068.000000
1782.994112	7108.000000
1784.806424	7157.000000
1786.614818	7081.000000
1788.424592	6760.000000
1790.230452	7094.000000
1792.039457	6958.000000
1793.844549	6966.000000
1795.651022	6832.000000
1797.457111	6710.000000
1799.259289	6803.000000
1801.064612	6738.000000
1802.866026	7007.000000
1804.668820	6795.000000
1806.467708	6565.000000
1808.267977	6737.000000
1810.067864	6609.000000
1811.865609	6769.000000
1813.662974	6489.000000
1815.459959	6650.000000
1817.256563	6634.000000
1819.051028	6564.000000
1820.846872	6622.000000
1822.637061	6378.000000
1824.432147	6491.000000
1826.221581	6360.000000
1828.014151	6350.000000
1829.804586	6394.000000
1831.592887	6359.000000
1833.384323	6427.000000
1835.170113	6240.000000
1836.957283	6301.000000
1838.742321	6543.000000
1840.530493	6391.000000
1842.314779	6235.000000
1844.096935	6485.000000
1845.880471	6217.000000
1847.661878	6327.000000
1849.444664	6178.000000
1851.223569	6403.000000
1853.003854	6362.000000
1854.782012	6250.000000
1856.561549	6091.000000
1858.338961	6248.000000
1860.114249	6214.000000
1861.890915	6135.000000
1863.665459	6249.000000
1865.441381	6211.000000
1867.211682	6222.000000
1868.985111	6064.000000
1870.756420	6237.000000
1872.527358	6296.000000
1874.299674	6096.000000
1876.066376	6175.000000
1877.836204	6010.000000
1879.602168	6282.000000
1881.371255	6164.000000
1883.136481	6285.000000
1884.901339	6294.000000
1886.667574	6243.000000
1888.429950	6131.000000
1890.191959	6307.000000
1891.953600	6163.000000
1893.714875	6155.000000
1895.475782	5944.000000
1897.236323	6093.000000
1898.994754	6058.000000
1900.752819	6137.000000
1902.508777	6191.000000
1904.266111	6268.000000
1906.023080	6135.000000
1907.777942	6208.000000
1909.530700	6016.000000
1911.283093	6227.000000
1913.036863	6278.000000
1914.788529	6245.000000
1916.538093	6230.000000
1918.289032	6151.000000
1920.039609	6149.000000
1921.786346	6268.000000
1923.534460	6224.000000
1925.280474	6242.000000
1927.027863	6302.000000
1928.773155	6218.000000
1930.516349	6222.000000
1932.260918	6277.000000
1934.003392	6211.000000
1935.745505	6141.000000
1937.487258	6261.000000
1939.228652	6172.000000
1940.967951	6280.000000
1942.706892	6311.000000
1944.445474	6264.000000
1946.181965	6394.000000
1947.918098	6386.500000
1949.655605	6379.000000
1951.389290	6458.000000
1953.124350	6586.000000
1954.857321	6465.000000
1956.589936	6516.000000
1958.322195	6350.000000
1960.054097	6549.000000
1961.783913	6537.000000
1963.511644	6586.000000
1965.240750	6548.000000
1966.969501	6537.000000
1968.696168	6728.000000
1970.422481	6654.000000
1972.150167	6823.000000
1973.872317	6720.000000
1975.597568	6520.000000
1977.319012	6542.000000
1979.043557	6581.000000
1980.766021	6659.000000
1982.484683	6604.000000
1984.206443	6613.000000
1985.924401	6823.000000
1987.643732	6776.000000
1989.359264	6858.000000
1991.079616	6969.000000
1992.796170	7058.000000
1994.508927	6787.000000
1996.224780	7002.000000
1997.938561	7165.000000
1999.651992	7119.000000
2001.363352	7043.000000
2003.076084	7231.000000
2004.785026	7135.000000
2006.497060	7036.000000
2008.203586	7375.000000
2009.913203	7322.000000
2011.620754	7063.000000
2013.327956	7098.000000
2015.033093	7316.000000
2016.737884	7247.000000
2018.444046	7342.000000
2020.146426	7358.000000
2021.850177	7181.000000
2023.551866	7332.000000
2025.253210	7379.000000
2026.954208	7277.000000
2028.653145	7367.000000
2030.353454	7424.000000
2032.049988	7436.000000
2033.747893	7583.000000
2035.443739	7370.000000
2037.142671	7512.000000
2038.836117	7618.000000
2040.530934	7452.000000
2042.225409	7601.000000
2043.916115	7675.000000
2045.609905	7523.000000
2047.299928	7599.000000
2048.991322	7540.000000
2050.680663	7691.000000
2052.371374	7835.000000
2054.058322	7648.000000
2055.744931	7653.000000
2057.432909	7730.000000
2059.117128	7571.000000
2060.802718	7658.000000
2062.487968	7708.000000
2064.171170	7682.000000
2065.855741	7820.000000
2067.534850	7637.000000
2069.218744	7688.000000
2070.897177	7716.000000
2072.578688	7859.000000
2074.256447	7640.000000
2075.933870	7820.000000
2077.612662	7894.000000
2079.289412	7804.000000
2080.964120	7879.000000
2082.640197	7828.000000
2084.314234	7864.000000
2085.987935	7846.000000
2087.661301	7694.000000
2089.332628	7879.000000
2091.003622	7742.000000
2092.674280	7905.000000
2094.344605	7863.000000
2096.014596	7770.000000
2097.682551	7963.000000
2099.350173	7911.000000
2101.015760	7815.000000
2102.682716	7985.000000
2104.347639	7859.000000
2106.012230	8013.000000
2107.674789	7974.000000
2109.338716	7929.000000
2111.000612	8014.000000
2112.662178	7911.000000
2114.323412	8013.000000
2115.982618	7837.000000
2117.641493	7965.000000
2119.300039	8065.000000
2120.958255	8128.000000
2122.612747	7968.000000
2124.270304	7740.000000
2125.927532	7868.000000
2127.581038	8074.000000
2129.235912	7850.000000
2130.887067	8134.000000
2132.541285	7817.000000
2134.191786	7998.000000
2135.843653	7963.000000
2137.490112	7807.000000
2139.141326	7931.000000
2140.788826	7880.000000
2142.437693	7829.000000
2144.084541	7969.000000
2145.731064	7835.000000
2147.377261	7879.000000
2149.019750	7782.000000
2150.665297	7916.000000
2152.307137	7798.000000
2153.952034	7766.000000
2155.593226	7757.000000
2157.234094	7723.000000
2158.874638	7660.000000
2160.513170	7541.000000
2162.153068	7643.000000
2163.789266	7616.000000
2165.426830	7739.000000
2167.064072	7568.000000
2168.699304	7594.000000
2170.334215	7492.000000
2171.968804	7476.000000
2173.603071	7398.000000
2175.233645	7664.000000
2176.867271	7289.000000
2178.497205	7367.000000
2180.128504	7152.000000
2181.757798	7400.000000
2183.386773	7458.000000
2185.015428	7298.000000
2186.643764	7171.000000
2188.270098	7240.000000
2189.896113	7158.000000
2191.520126	7252.000000
2193.145505	7063.000000
2194.768883	7129.000000
2196.393626	7244.000000
2198.014688	6979.000000
2199.635433	7086.000000
2201.257543	7091.000000
2202.877655	7071.000000
2204.495770	6931.000000
2206.113570	7013.000000
2207.731055	6769.000000
2209.348224	6836.000000
2210.965078	6845.000000
2212.581616	6679.000000
2214.196162	6798.000000
2215.808715	6656.000000
2217.422632	6584.000000
2219.034558	6649.000000
2220.647847	6587.000000
2222.259146	6453.000000
2223.868455	6511.000000
2225.479128	6636.000000
2227.087812	6534.000000
2228.696183	6477.000000
2230.302568	6480.000000
2231.910316	6572.000000
2233.516077	6433.000000
2235.121527	6335.000000
2236.724992	6434.000000
2238.329820	6300.000000
2239.932664	6524.000000
2241.533525	6396.000000
2243.135749	6355.000000
2244.735991	6365.000000
2246.337595	6139.000000
2247.935547	6306.000000
2249.534860	6237.000000
2251.132194	6155.000000
2252.729220	6078.000000
2254.327608	6253.000000
2255.922347	6208.000000
2257.515109	6203.000000
2259.109234	6039.000000
2260.704720	6183.000000
2262.296561	5858.000000
2263.888096	6072.000000
2265.480993	5987.000000
2267.068580	5922.000000
2268.660863	6039.000000
2270.247840	5857.000000
2271.837844	6031.000000
2273.422544	5841.000000
2275.011938	5990.000000
2276.596030	5766.000000
2278.181483	5852.000000
2279.764966	5803.000000
2281.351475	5732.000000
2282.934351	5621.000000
2284.516924	5663.000000
2286.099193	5614.000000
2287.677832	5465.000000
2289.259496	5540.000000
2290.837531	5510.000000
2292.418589	5475.000000
2293.996020	5442.000000
2295.571488	5409.000000
2297.149978	5500.000000
2298.724844	5405.000000
2300.299409	5449.000000
2301.873674	5424.000000
2303.447638	5410.000000
2305.021301	5294.000000
2306.594665	5350.000000
2308.164410	5334.000000
2309.733856	5226.000000
2311.306320	5251.000000
2312.873510	5340.000000
2314.443718	5187.000000
2316.010311	5117.000000
2317.578264	5067.000000
2319.144261	5217.000000
2320.709961	5220.000000
2322.275363	5217.000000
2323.838812	5325.000000
2325.403620	5325.000000
2326.964820	5430.000000
2328.529034	5512.000000
2330.087986	5605.000000
2331.649953	5426.000000
2333.209968	5188.000000
2334.769689	5197.000000
2336.327460	5018.000000
2337.884936	5014.000000
2339.442118	5083.000000
2340.997352	5105.000000
2342.552293	5136.000000
2344.106939	4945.000000
2345.661292	5035.000000
2347.215352	4949.000000
2348.769117	4919.000000
2350.320939	4901.000000
2351.870817	4945.000000
2353.423703	4809.000000
2354.971347	5045.000000
2356.521998	4871.000000
2358.069058	4846.000000
2359.617476	4708.000000
2361.165603	5015.000000
2362.710141	4808.000000
2364.256037	4778.000000
2365.799995	4831.000000
2367.345310	4858.000000
2368.887040	4663.000000
2370.430127	4814.000000
2371.971278	4665.000000
2373.512140	4706.000000
2375.052713	4820.000000
2376.592997	4712.000000
2378.132992	4719.000000
2379.669409	4708.000000
2381.208827	4796.000000
2382.744668	4654.000000
2384.281865	4561.000000
2385.815487	4492.000000
2387.352109	4551.000000
2388.886801	4716.000000
2390.419563	4479.000000
2391.952038	4707.000000
2393.482585	4592.000000
2395.016130	4596.000000
2396.544464	4527.000000
2398.074155	4622.000000
2399.603559	4697.000000
2401.132679	4406.000000
2402.661514	4494.000000
2404.185143	4541.000000
2405.713408	4420.000000
2407.236471	4543.000000
2408.764167	4505.000000
2410.285024	4417.000000
2411.810514	4456.000000
2413.332443	4298.000000
2414.855728	4377.000000
2416.377091	4449.000000
2417.896535	4316.000000
2419.417335	4336.000000
2420.936215	4442.000000
2422.454813	4283.000000
2423.971494	4316.000000
2425.489529	4440.000000
2427.007283	4305.000000
2428.521486	4243.000000
2430.035408	4277.000000
2431.549050	4338.000000
2433.064047	4394.000000
2434.575495	4243.000000
2436.088298	4335.000000
2437.599187	4196.000000
2439.109798	4397.000000
2440.618497	4303.000000
2442.130182	4181.000000
2443.638324	4239.000000
2445.146188	4098.000000
2446.653774	4077.000000
2448.157819	4129.000000
2449.664849	4059.000000
2451.169972	4255.000000
2452.674816	4147.000000
2454.177754	4034.000000
2455.680416	4165.000000
2457.182801	4007.000000
2458.683281	4028.000000
2460.185114	3969.000000
2461.685042	4089.000000
2463.184695	4004.000000
2464.684073	4063.000000
2466.181548	3948.000000
2467.677121	3968.000000
2469.175674	4052.000000
2470.670699	3924.000000
2472.167076	3961.000000
2473.659927	4202.000000
2475.154131	4022.000000
2476.648061	3958.000000
2478.138467	4036.000000
2479.631851	3974.000000
2481.123337	4011.000000
2482.612926	3983.000000
2484.102243	3893.000000
2485.589664	3940.000000
2487.080061	3996.000000
2488.566940	3950.000000
2490.055170	3999.000000
2491.539884	4088.000000
2493.024327	3849.000000
2494.510121	3946.000000
2495.994024	3825.000000
2497.479277	3818.000000
2498.959397	3948.000000
2500.442490	4040.000000
2501.923692	3854.000000
2503.404625	3866.000000
2504.883669	3884.000000
2506.362444	3966.000000
2507.840951	3889.000000
2509.319190	3913.000000
2510.797160	3911.000000
2512.271625	3926.000000
2513.749060	3890.000000
2515.222991	3885.000000
2516.698272	3724.000000
2518.173286	3941.000000
2519.644800	3882.000000
2521.117663	3761.000000
2522.588644	3742.000000
2524.060975	3836.000000
2525.528192	3778.000000
2526.998376	3811.000000
2528.466679	3880.000000
2529.934717	3795.000000
2531.402490	3853.000000
2532.869998	3773.000000
2534.337241	3797.000000
2535.800992	3816.000000
2537.266093	3757.000000
2538.729317	3724.000000
2540.193891	3908.000000
2541.654975	3903.000000
2543.117409	3782.000000
2544.579580	4013.000000
2546.038265	3822.000000
2547.501522	3570.000000
2548.959682	3805.000000
2550.419191	3701.000000
2551.873606	3678.000000
2553.332592	3743.000000
2554.789706	3746.000000
2556.244949	3808.000000
2557.699931	3826.000000
2559.153043	3827.000000
2560.607504	3713.000000
2562.060095	3647.000000
2563.512427	3733.000000
2564.962892	3663.000000
2566.416312	3855.000000
2567.864650	3739.000000
2569.315944	3621.000000
2570.765371	3545.000000
2572.211326	3963.000000
2573.660236	3734.000000
2575.105676	3809.000000
2576.552463	3635.000000
2577.997388	3700.000000
2579.442054	3766.000000
2580.888068	3723.000000
2582.330616	3673.000000
2583.774511	3695.000000
2585.214941	3752.000000
2586.656718	3566.000000
2588.096636	3564.000000
2589.537901	3616.000000
2590.975704	3627.000000
2592.416457	3632.000000
2593.852148	3639.000000
2595.290788	3631.000000
2596.727570	3596.000000
2598.162497	3611.000000
2599.600371	3676.000000
2601.033188	3537.000000
2602.467352	3650.000000
2603.899662	3767.000000
2605.333318	3695.000000
2606.765121	3513.000000
2608.196670	3606.000000
2609.627967	3587.000000
2611.057411	3601.000000
2612.486603	3603.000000
2613.913945	3487.000000
2615.342632	3662.000000
2616.771068	3599.000000
2618.196056	3570.000000
2619.622391	3711.000000
2621.046877	3481.000000
2622.472709	3643.000000
2623.895097	3597.000000
2625.318831	3597.000000
2626.740718	3553.000000
2628.162356	3588.000000
2629.582148	3751.000000
2631.003286	3569.000000
2632.424174	3522.000000
2633.841624	3587.000000
2635.262013	3564.000000
2636.678965	3514.000000
2638.095668	3580.000000
2639.512123	3553.000000
2640.928330	3649.000000
2642.344289	3526.000000
2643.758407	3626.000000
2645.172277	3590.000000
2646.584309	3494.000000
2647.997684	3688.000000
2649.407630	3600.000000
2650.820512	3643.000000
2652.229965	3639.000000
2653.639172	3627.000000
2655.046543	3711.000000
2656.456848	3752.000000
2657.865318	3601.000000
2659.271952	3717.000000
2660.678341	3647.000000
2662.082896	3734.000000
2663.488795	3701.000000
2664.892861	3722.000000
2666.296682	3576.000000
2667.700259	3666.000000
2669.102005	3622.000000
2670.505094	3623.000000
2671.904765	3756.000000
2673.305780	3728.000000
2674.703379	3678.000000
2676.103908	3721.000000
2677.501021	3757.000000
2678.899479	3700.000000
2680.296108	3781.000000
2681.692495	3799.000000
2683.088640	3740.000000
2684.482960	3753.000000
2685.878621	3625.000000
2687.270874	3699.000000
2688.664469	3623.000000
2690.056240	3826.000000
2691.449354	3894.000000
2692.840644	3839.000000
2694.230111	3813.000000
2695.619338	3775.000000
2697.008326	3795.000000
2698.398655	3881.000000
2699.784001	3845.000000
2701.172270	3913.000000
2702.558719	3797.000000
2703.944929	3754.000000
2705.330900	3764.000000
2706.713473	3879.000000
2708.097388	3788.000000
2709.481065	3868.000000
2710.864503	3903.000000
2712.244547	3824.000000
2713.625931	3907.000000
2715.005501	3864.000000
2716.386411	3949.000000
2717.765507	3793.000000
2719.142789	3955.000000
2720.521412	3983.000000
2721.898222	3968.000000
2723.274795	3856.000000
2724.651133	4140.000000
2726.025660	4091.000000
2727.401527	4073.000000
2728.774007	3966.000000
2730.149403	4065.000000
2731.519839	4012.000000
2732.891616	4103.000000
2734.263158	4175.000000
2735.632892	3968.000000
2737.003967	4180.000000
2738.373233	4091.000000
2739.742266	4118.000000
2741.109493	4151.000000
2742.476487	4000.000000
2743.843247	4196.000000
2745.209776	4209.000000
2746.574499	4206.000000
2747.938990	4254.000000
2749.303250	4350.000000
2750.667277	4342.000000
2752.031073	4316.000000
2753.391495	4471.000000
2754.754827	4298.000000
2756.113217	4409.000000
2757.474517	4392.000000
2758.832447	4332.000000
2760.193285	4339.000000
2761.552324	4235.000000
2762.907994	4384.000000
2764.266572	4474.000000
2765.621783	4293.000000
2766.976765	4499.000000
2768.329951	4405.000000
2769.686043	4590.000000
2771.038770	4640.000000
2772.391270	4681.000000
2773.743541	4665.000000
2775.097151	4568.000000
2776.447399	4713.000000
2777.795853	4664.000000
2779.147213	4630.000000
2780.495213	4654.000000
2781.844551	4815.000000
2783.192098	4663.000000
2784.539417	4571.000000
2785.886510	4787.000000
2787.231812	4710.000000
2788.576887	4724.000000
2789.921737	4757.000000
2791.266361	5021.000000
2792.607633	4893.000000
2793.950243	4945.000000
2795.292627	5037.000000
2796.634786	5021.000000
2797.973597	5076.000000
2799.315306	5063.000000
2800.653668	5030.000000
2801.993366	5038.000000
2803.331280	5274.000000
2804.667409	5086.000000
2806.003314	5283.000000
2807.340557	5125.000000
2808.676016	5349.000000
2810.011252	5469.000000
2811.344705	5478.000000
2812.679495	5559.000000
2814.010945	5538.000000
2815.345290	5432.000000
2816.674737	5552.000000
2818.005521	5635.000000
2819.336083	5707.000000
2820.664866	5745.000000
2821.994985	5880.000000
2823.323326	5792.000000
2824.651446	5813.000000
2825.977788	5838.000000
2827.305467	6000.000000
2828.629812	6018.000000
2829.955494	5866.000000
2831.279400	6052.000000
2832.603087	6136.000000
2833.928109	6034.000000
2835.249801	6016.000000
2836.571275	6101.000000
2837.892530	6168.000000
2839.213566	6260.000000
2840.532829	6278.000000
2841.853428	6136.000000
2843.172256	6526.000000
2844.490865	6494.000000
2845.807703	6526.000000
2847.124324	6559.000000
2848.440728	6364.000000
2849.755362	6751.000000
2851.071332	6786.000000
2852.383981	6759.000000
2853.697965	7059.000000
2855.011733	6930.000000
2856.325285	6795.000000
2857.637069	7063.000000
2858.947087	7157.000000
2860.258440	7154.000000
2861.566478	7307.000000
2862.875850	7544.000000
2864.185008	7465.000000
2865.493950	7591.000000
2866.801128	7545.000000
2868.106544	7644.000000
2869.413294	7642.000000
2870.718281	7842.000000
2872.023055	7579.000000
2873.326067	8124.000000
2874.631960	8259.000000
2875.932999	8187.000000
2877.235372	8417.000000
2878.535985	8391.000000
2879.837932	8332.000000
2881.139666	8625.000000
2882.438095	8343.000000
2883.737858	8600.000000
2885.035864	8649.000000
2886.333658	8724.000000
2887.629696	9004.000000
2888.927067	9085.000000
2890.222682	9081.000000
2891.518086	9097.000000
2892.813279	9406.000000
2894.105175	9300.000000
2895.399947	9424.000000
2896.691422	9593.000000
2897.984230	9568.000000
2899.276828	9741.000000
2900.566132	9876.000000
2901.856768	9952.000000
2903.145653	10164.000000
2904.435870	10070.000000
2905.722796	10360.000000
2907.011054	10356.000000
2908.297563	10498.000000
2909.583864	10672.000000
2910.869956	10989.000000
2912.154300	10764.000000
2913.441515	11109.000000
2914.723904	11133.000000
2916.007625	11343.000000
2917.289600	11224.000000
2918.571367	11802.000000
2919.851390	11599.000000
2921.134282	11894.000000
2922.415429	11777.000000
2923.693294	12244.000000
2924.974028	12149.000000
2926.251481	12659.000000
2927.528728	12539.000000
2928.804233	12676.000000
2930.082606	12738.000000
2931.356165	12884.000000
2932.632591	13112.000000
2933.907276	13317.000000
2935.180220	13152.000000
2936.454496	13723.000000
2937.727032	13764.000000
2938.999363	14010.000000
2940.268422	14056.000000
2941.540346	14268.000000
2942.810532	14394.000000
2944.080514	14586.000000
2945.350293	15049.000000
2946.618336	15114.000000
2947.884642	15144.000000
2949.150747	15203.000000
2950.418181	15749.000000
2951.683881	15998.000000
2952.949378	15881.000000
2954.214673	16115.000000
2955.476703	16289.000000
2956.740063	16596.000000
2958.003222	16737.000000
2959.264649	17086.000000
2960.527405	17298.000000
2961.788429	17438.000000
2963.047723	17742.000000
2964.306817	18088.000000
2965.565710	18183.000000
2966.824403	18625.000000
2968.082896	18695.000000
2969.339660	18801.000000
2970.596224	18982.000000
2971.851061	19419.000000
2973.107226	19903.000000
2974.360137	19765.000000
2975.614377	20106.000000
2976.868418	20747.000000
2978.120733	20689.000000
2979.372849	20871.000000
2980.623241	21398.000000
2981.876488	21767.000000
2983.124958	22053.000000
2984.376283	22260.000000
2985.624358	22310.000000
2986.872237	22834.000000
2988.119918	23134.000000
2989.367402	23350.000000
2990.613165	23722.000000
2991.858732	23605.000000
2993.105626	24303.000000
2994.349276	24584.000000
2995.594254	24933.000000
2996.835988	24977.000000
2998.080574	25931.000000
2999.323441	26113.000000
3000.563067	26240.000000
3001.805543	26862.000000
3003.044779	26875.000000
3004.285343	27619.000000
3005.524191	28114.000000
3006.762843	28382.000000
3007.999781	28725.000000
3009.238045	28849.000000
3010.474594	29274.000000
3011.710950	29607.000000
3012.947112	30297.000000
3014.181560	30874.000000
3015.415816	30934.000000
3016.649878	32129.000000
3017.882228	32360.000000
3019.112866	32550.000000
3020.346350	32811.000000
3021.578122	33809.000000
3022.808184	33848.000000
3024.038054	34523.000000
3025.266214	34617.000000
3026.495700	35161.000000
3027.723477	36153.000000
3028.951064	36436.000000
3030.179976	36860.000000
3031.404146	37452.000000
3032.631159	38040.000000
3033.854948	38336.000000
3035.080064	39022.000000
3036.303473	39454.000000
3037.526692	39418.000000
3038.748206	40611.000000
3039.972561	41212.000000
3041.192181	41689.000000
3042.413127	42469.000000
3043.633884	42645.000000
3044.852937	43502.000000
3046.073316	43953.000000
3047.290477	44520.000000
3048.508965	45336.000000
3049.725750	46110.000000
3050.942348	46851.000000
3052.158757	47012.000000
3053.371954	47456.000000
3054.587988	48386.000000
3055.800810	48720.000000
3057.016469	49391.000000
3058.227405	49788.000000
3059.439666	50624.000000
3060.651741	51621.000000
3061.863628	51968.000000
3063.073819	52779.000000
3064.283823	53002.000000
3065.493641	53114.000000
3066.701763	53686.000000
3067.909700	54466.000000
3069.115941	54922.000000
3070.323507	55358.000000
3071.529378	55915.500000
3072.735065	56473.000000
3073.940566	57787.000000
3075.144374	57851.000000
3076.349506	58539.000000
3077.552946	59378.000000
3078.754693	59808.000000
3079.956256	60147.000000
3081.157636	60299.000000
3082.358832	60817.000000
3083.558338	61281.000000
3084.757661	60985.000000
3085.958307	62060.000000
3087.157263	62549.000000
3088.353025	62626.000000
3089.551616	63400.000000
3090.747013	63267.000000
3091.943733	63965.000000
3093.137261	64209.000000
3094.333617	64424.000000
3095.528287	64401.000000
3096.719766	64348.000000
3097.915576	64433.000000
3099.106693	64451.000000
3100.299132	64374.000000
3101.488384	64406.000000
3102.680461	64330.000000
3103.870855	64302.000000
3105.058063	64475.000000
3106.246594	64486.000000
3107.436446	64385.000000
3108.623115	64446.000000
3109.809604	64255.000000
3110.995913	64443.000000
3112.183544	64449.000000
3113.367993	64438.000000
3114.550763	64429.000000
3115.736355	64111.000000
3116.920268	64481.000000
3118.102502	64430.000000
3119.284557	64379.000000
3120.466434	64376.000000
3121.648133	64401.000000
3122.828155	64430.000000
3124.006500	64451.000000
3125.187665	64427.000000
3126.365656	64360.000000
3127.543469	64406.000000
3128.721105	64457.000000
3129.897066	64399.000000
3131.072850	64375.000000
3132.249956	64247.000000
3133.425387	64433.000000
3134.599145	64368.000000
3135.771230	64399.000000
3136.944637	64419.000000
3138.117867	64401.000000
3139.289426	64408.000000
3140.462305	64374.000000
3141.632017	64311.000000
3142.803050	64321.000000
3143.972413	64410.000000
3145.140105	64428.000000
3146.310614	64336.000000
3147.476463	64433.000000
3148.646621	64400.000000
3149.812123	64393.000000
3150.977450	64407.000000
3152.142605	64424.000000
3153.307585	64344.000000
3154.473885	64418.000000
3155.635533	64472.000000
3156.798500	64279.000000
3157.961295	64407.000000
3159.123917	64402.000000
3160.284874	64302.000000
3161.445658	64448.000000
3162.606270	64403.000000
3163.765218	64387.000000
3164.923995	64438.000000
3166.082600	64353.000000
3167.241033	64435.000000
3168.399294	64399.000000
3169.555893	64419.000000
3170.710831	64387.000000
3171.867088	64464.000000
3173.021684	64433.000000
3174.176110	64399.000000
3175.328876	64407.000000
3176.481472	64391.000000
3177.633897	64438.000000
3178.786153	64360.000000
3179.938238	64393.000000
3181.087178	64303.000000
3182.238924	64409.000000
3183.389012	64410.000000
3184.537444	64372.000000
3185.685706	64376.000000
3186.833800	64375.000000
3187.981725	64450.000000
3189.127994	64259.000000
3190.274096	64409.000000
3191.418542	64358.000000
3192.562821	64437.000000
3193.706932	64375.000000
3194.852360	64387.000000
3195.994650	64400.000000
3197.136773	64338.000000
3198.278728	64390.000000
3199.420516	64417.000000
3200.562137	64417.000000
3201.700623	64375.000000
3202.840426	64457.000000
3203.981547	64402.000000
3205.119533	64422.000000
3206.255870	64310.000000
3207.392041	64327.000000
3208.529529	64322.000000
3209.665369	64375.000000
3210.802526	64272.000000
3211.935070	64363.000000
3213.071896	64381.000000
3214.204110	64365.000000
3215.337641	64439.000000
3216.471008	64354.000000
3217.601247	64411.000000
3218.734284	64322.000000
3219.864195	64218.000000
3220.995422	64265.000000
3222.123525	64224.000000
3223.254424	64409.000000
3224.383679	64458.000000
3225.511291	64413.000000
3226.635780	64318.000000
3227.764545	64304.000000
3228.890188	64330.000000
3230.015669	64353.000000
3231.139508	64374.000000
3232.266141	64415.000000
3233.388177	64395.000000
3234.511529	64363.000000
3235.634719	64302.000000
3236.757747	64339.000000
3237.879135	64415.000000
3239.000361	64403.000000
3240.119950	64433.000000
3241.239377	64427.000000
3242.357166	64371.000000
3243.477747	64405.000000
3244.595215	64339.000000
3245.712522	64410.000000
3246.829669	64201.000000
3247.945180	64373.000000
3249.062005	64430.000000
3250.175721	64367.000000
3251.292226	64298.000000
3252.407097	64316.000000
3253.518859	64346.000000
3254.630461	64373.000000
3255.743379	64361.000000
3256.856137	64407.000000
3257.965789	64327.000000
3259.076756	64387.000000
3260.187564	64388.000000
3261.296740	64428.000000
3262.404286	64133.000000
3263.513145	64415.000000
3264.621847	64407.000000
3265.727446	64372.000000
3266.834359	64273.000000
3267.939643	63820.000000
3269.046241	64285.000000
3270.149739	64489.000000
3271.254552	64405.000000
3272.359207	64434.000000
3273.460763	64207.000000
3274.562163	64390.000000
3275.664878	64386.000000
3276.767435	64396.000000
3277.866896	64396.000000
3278.969141	64289.000000
3280.068290	64378.000000
3281.165815	64195.000000
3282.263184	64343.000000
3283.363335	64454.000000
3284.460394	64330.000000
3285.557297	64403.000000
3286.654045	64283.000000
3287.746235	64413.000000
3288.842673	64372.000000
3289.937489	64277.000000
3291.032151	64395.000000
3292.125191	64319.000000
3293.218077	64426.000000
3294.309342	64404.000000
3295.401919	64438.000000
3296.492877	64379.000000
3297.582215	64243.000000
3298.671400	64403.000000
3299.761898	64395.000000
3300.849311	64235.000000
3301.936571	64425.000000
3303.025144	64421.000000
3304.113565	64457.000000
3305.197438	64409.000000
3306.285553	64435.000000
3307.370587	64438.000000
3308.454004	64336.000000
3309.538734	64328.000000
3310.621849	64426.000000
3311.706275	64401.000000
3312.787623	64386.000000
3313.870283	64426.000000
3314.951329	64323.000000
3316.032224	64441.000000
3317.111505	64466.000000
3318.190636	64415.000000
3319.271079	64436.000000
3320.348447	64435.000000
3321.427127	64412.000000
3322.504195	64411.000000
3323.581114	64421.000000
3324.656421	64392.000000
3325.731579	64415.000000
3326.808048	64430.000000
3327.881447	64435.000000
3328.954697	64304.000000
3330.029257	64411.000000
3331.102209	64479.000000
3332.173552	64460.000000
3333.246206	64375.000000
3334.315794	64443.000000
3335.386692	64407.000000
3336.455983	64357.000000
3337.526585	64374.000000
3338.595580	64483.000000
3339.662969	64329.000000
3340.728753	64407.000000
3341.798763	64360.000000
3342.865710	64392.000000
3343.929595	64239.000000
3344.996248	64458.000000
3346.061296	64457.000000
3347.124741	64091.000000
3348.188040	64418.000000
3349.251192	64473.000000
3350.314198	64471.000000
3351.377058	64484.000000
3352.438316	64463.000000
3353.496517	64426.000000
3354.558938	64436.000000
3355.618304	64439.000000
3356.677524	64256.000000
3357.738054	64433.000000
3358.794074	64369.000000
3359.852858	64379.000000
3360.907135	64429.000000
3361.964176	64429.000000
3363.019618	64436.000000
3364.076370	64418.000000
3365.131523	64439.000000
3366.185079	64428.000000
3367.237039	64428.000000
3368.291760	64429.000000
3369.343432	64431.000000
3370.394961	64405.000000
3371.447798	64434.000000
3372.497588	64393.000000
3373.548687	64412.000000
3374.596740	64445.000000
3375.647552	64422.000000
3376.695320	64436.000000
3377.742945	64458.000000
3378.790427	64465.000000
3379.836317	64116.000000
3380.883515	64450.000000
3381.927671	64478.000000
3382.974585	64444.000000
3384.019907	64432.000000
3385.062188	64361.000000
3386.104329	64419.000000
3387.147777	64438.000000
3388.191084	64442.000000
3389.232802	64427.000000
3390.274378	64316.000000
3391.315814	64483.000000
3392.355660	64497.000000
3393.393918	64398.000000
3394.433484	64475.000000
3395.472910	64407.000000
3396.510748	64481.000000
3397.546999	64488.000000
3398.583111	64331.000000
3399.620530	64471.000000
3400.654916	64447.000000
3401.690609	64464.000000
3402.726163	64430.000000
3403.758686	64475.000000
3404.793962	64487.000000
3405.826207	64459.000000
3406.858314	64468.000000
3407.888837	64428.000000
3408.920667	64485.000000
3409.952359	64389.000000
3410.981023	64427.000000
3412.009550	64481.000000
3413.039383	64452.000000
3414.069079	64410.000000
3415.095749	64330.000000
3416.123726	64517.000000
3417.148678	64392.000000
3418.176380	64427.000000
3419.201059	64429.000000
3420.227044	64350.000000
3421.251449	64460.000000
3422.275718	64439.000000
3423.298408	64473.000000
3424.320962	64462.000000
3425.344822	64281.000000
3426.365662	64437.000000
3427.386366	64477.000000
3428.408377	64470.000000
3429.427369	64435.000000
3430.446226	64470.000000
3431.466388	64374.000000
3432.483534	64498.000000
