-116.773079	160.000000
-114.103479	279.000000
-111.436814	283.000000
-108.770901	289.000000
-106.107920	230.000000
-103.443510	236.000000
-100.782030	195.000000
-98.119121	177.000000
-95.461318	186.000000
-92.802086	198.000000
-90.143602	174.000000
-87.488042	293.000000
-84.831054	141.000000
-82.179164	259.000000
-79.525843	249.000000
-76.875443	264.000000
-74.223613	254.000000
-71.576874	304.000000
-68.928706	281.000000
-66.281280	272.000000
-63.636768	188.000000
-60.990828	265.000000
-58.349969	236.000000
-55.707681	244.000000
-53.068301	204.000000
-50.427493	232.000000
-47.787425	221.000000
-45.152429	298.000000
-42.516005	274.000000
-39.882483	334.000000
-37.247533	318.000000
-34.617648	416.000000
-31.984171	429.000000
-29.355756	394.000000
-26.728075	525.000000
-24.098965	562.000000
-21.474912	624.000000
-18.847270	720.000000
-16.224681	1039.000000
-13.602824	1536.000000
-10.981697	2443.000000
-8.361300	6299.000000
-5.743792	21876.000000
-3.124855	64365.000000
-0.508803	64272.000000
2.106520	64319.000000
4.721116	64319.000000
7.332829	8381.000000
9.945971	1427.000000
12.554079	927.000000
15.165769	630.000000
17.772428	694.000000
20.380515	520.000000
22.987878	543.000000
25.590216	485.000000
28.196132	481.000000
30.797026	427.000000
33.399348	422.000000
35.996653	354.000000
38.597533	448.000000
41.193398	439.000000
43.790692	477.000000
46.387266	481.000000
48.978831	459.000000
51.571824	364.000000
54.161956	497.000000
56.753516	479.000000
59.342216	450.000000
61.932343	454.000000
64.517471	522.000000
67.104027	504.000000
69.689869	487.000000
72.272857	545.000000
74.857271	644.000000
77.434557	601.000000
80.015409	586.000000
82.593412	565.000000
85.170705	622.000000
87.749424	562.000000
90.323161	654.000000
92.898326	731.000000
95.470647	790.000000
98.042260	815.000000
100.611033	824.000000
103.181233	1015.000000
105.748595	1131.000000
108.317382	1369.000000
110.883333	1601.000000
113.446449	2144.000000
116.013121	2613.000000
118.570572	3803.000000
121.133708	5212.000000
123.691884	7580.000000
126.253615	11354.000000
128.810389	17177.000000
131.368590	25811.000000
133.921837	38724.000000
136.474387	54886.000000
139.030487	64254.000000
141.581639	64389.000000
144.132094	64346.000000
146.681851	64396.000000
149.228789	64347.000000
151.775032	64394.000000
154.322700	64364.000000
156.869672	64444.000000
159.411709	64218.000000
161.953052	64261.000000
164.493702	64325.000000
167.035778	64255.000000
169.575042	64314.000000
172.111498	64344.000000
174.647262	64334.000000
177.184452	64282.000000
179.720951	64385.000000
182.254644	64440.000000
184.785533	64316.000000
187.315735	64410.000000
189.847361	64275.000000
192.376186	64416.000000
194.902212	64364.000000
197.427552	64285.000000
199.954318	64389.000000
202.478286	64429.000000
205.001570	64406.000000
207.524169	64423.000000
210.043975	64346.000000
212.563098	64298.000000
215.081538	64398.000000
217.601402	64434.000000
220.114265	64371.000000
222.630659	64446.000000
225.146371	64283.000000
227.657193	64184.000000
230.169440	64337.000000
232.678905	64359.000000
235.187691	64347.000000
237.695798	64401.000000
240.205330	64324.000000
242.709981	64242.000000
245.213956	64397.000000
247.719355	64419.000000
250.219879	63980.000000
252.723927	63594.000000
255.221003	62588.000000
257.721603	62059.000000
260.219431	61190.000000
262.716586	60311.000000
265.213068	59529.000000
267.704687	58806.000000
270.199826	57542.000000
272.692198	56705.000000
275.183901	56137.000000
277.672839	55134.000000
280.163202	53811.000000
282.650802	52933.000000
285.135643	52274.000000
287.623999	51258.000000
290.105415	50195.000000
292.590345	49205.000000
295.070430	49051.000000
297.554027	47911.000000
300.032781	47297.000000
302.512959	46603.000000
304.990384	46002.000000
307.467146	45461.000000
309.943245	45000.000000
312.416595	44426.000000
314.889283	44452.000000
317.361310	43970.000000
319.832676	43550.000000
322.301297	43329.000000
324.769260	43307.000000
327.238644	42745.000000
329.703206	42525.000000
332.171272	42685.000000
334.634518	42534.000000
337.097106	42533.000000
339.559038	42056.000000
342.020313	42780.000000
344.478854	42022.000000
346.938817	41994.000000
349.396047	42067.000000
351.852623	41957.000000
354.308545	42498.000000
356.761737	42025.000000
359.216352	42091.000000
361.666165	42375.000000
364.119474	41461.000000
366.567985	41561.000000
369.015844	41997.000000
371.465126	42103.000000
373.909614	42144.000000
376.355524	42086.000000
378.800784	41191.000000
381.243326	42310.000000
383.685220	41910.000000
386.126467	42053.000000
388.564998	41859.000000
391.004951	41835.000000
393.442190	41689.000000
395.876717	42219.000000
398.314732	41867.000000
400.747970	41935.000000
403.182629	41193.000000
405.612516	41888.000000
408.045888	42380.000000
410.474490	42129.000000
412.902450	42080.000000
415.331832	42370.000000
417.756448	42090.000000
420.182486	42901.000000
422.607883	41978.000000
425.032640	42525.000000
427.452639	42147.000000
429.874059	42678.000000
432.292782	42224.000000
434.712926	42127.000000
437.130375	42934.000000
439.549244	42611.000000
441.965420	42327.000000
444.376848	42356.000000
446.791754	42808.000000
449.203969	42041.000000
451.615550	42456.000000
454.026497	42543.000000
456.434758	42038.000000
458.842386	41630.000000
461.249382	41793.000000
463.655747	41849.000000
466.059429	41902.000000
468.462481	41641.000000
470.864903	41551.000000
473.266695	40666.000000
475.665810	40734.000000
478.066344	40912.000000
480.466249	41372.000000
482.861431	40163.000000
485.260080	40787.000000
487.654009	40511.000000
490.047312	40462.000000
492.439989	40312.000000
494.832041	39986.000000
497.225511	39639.000000
499.614270	39203.000000
502.000361	38805.000000
504.387873	37996.000000
506.774762	38108.000000
509.158987	37543.000000
511.544630	37405.000000
513.927612	36596.000000
516.307933	35986.000000
518.689673	36310.000000
521.068754	35527.000000
523.449254	35938.000000
525.827096	35215.000000
528.202283	34897.000000
530.576852	35062.000000
532.952839	34876.000000
535.326174	34686.000000
537.700926	34321.000000
540.070993	34546.000000
542.440444	34749.000000
544.811313	34558.000000
547.177502	33557.000000
549.545109	33860.000000
551.910070	33961.000000
554.274418	33876.000000
556.638153	33461.000000
559.003306	33746.000000
561.363787	32998.000000
563.725686	33568.000000
566.084944	32850.000000
568.441565	32764.000000
570.801630	32923.000000
573.155004	32202.000000
575.511823	32656.000000
577.866007	32014.000000
580.219583	32400.000000
582.572550	32327.000000
584.922885	31885.000000
587.274638	31946.000000
589.619714	31933.000000
591.970254	31647.000000
594.314120	31949.000000
596.663448	31498.000000
599.008127	31841.000000
601.350182	31676.000000
603.693654	31005.000000
606.034503	31308.000000
608.374750	31283.000000
610.712376	31210.000000
613.053437	30440.000000
615.389860	30908.000000
617.727700	29918.000000
620.062923	30419.000000
622.395530	30045.000000
624.729553	30301.000000
627.060962	29996.000000
629.391774	29792.000000
631.721987	30170.000000
634.051602	29694.000000
636.376595	29461.000000
638.707028	29455.000000
641.032841	29504.000000
643.356046	29349.000000
645.680668	29069.000000
648.002684	29478.000000
650.324106	29200.000000
652.642926	28996.000000
654.963161	28861.000000
657.282803	28936.000000
659.599844	28689.000000
661.916293	28774.000000
664.230144	28466.000000
666.545411	28730.000000
668.858081	28282.000000
671.172166	28362.000000
673.481651	28675.000000
675.792552	28806.000000
678.100860	28001.000000
680.408580	28260.000000
682.717714	28375.000000
685.022256	27943.000000
687.326212	27915.000000
689.629582	27658.000000
691.934366	27422.000000
694.234564	27439.000000
696.536176	27728.000000
698.837204	27135.000000
701.133649	27089.000000
703.431510	27644.000000
705.728787	26861.000000
708.025481	26553.000000
710.317599	26735.000000
712.613128	26686.000000
714.904083	26850.000000
717.196453	26766.000000
719.486248	26516.000000
721.775462	26497.000000
724.064097	26555.000000
726.350159	26521.000000
728.637636	26569.000000
730.922541	26302.000000
733.206869	26267.000000
735.488628	25861.000000
737.771801	25989.000000
740.054397	26212.000000
742.332437	26139.000000
744.611892	26003.000000
746.890771	26112.000000
749.169074	26014.000000
751.442828	25490.000000
753.717995	25963.000000
755.992589	25678.000000
758.264624	25913.000000
760.538072	25641.000000
762.808962	25430.000000
765.077296	25797.000000
767.347043	25724.000000
769.614236	25456.000000
771.880858	25332.000000
774.146910	25471.000000
776.410411	25078.000000
778.675325	25324.000000
780.939669	25556.000000
783.199484	25668.000000
785.460711	25825.000000
787.721371	25265.000000
789.979485	25010.000000
792.235054	25060.000000
794.494014	24927.000000
796.746475	25038.000000
799.004302	24620.000000
801.257611	25031.000000
803.508380	24620.000000
805.760561	24234.000000
808.010203	24616.000000
810.261258	24342.000000
812.507801	23707.000000
814.755756	24182.000000
817.001177	24108.000000
819.248009	23656.000000
821.494280	23768.000000
823.736046	23665.000000
825.981196	22993.000000
828.219873	23206.000000
830.461932	23318.000000
832.699493	22788.000000
834.938466	23004.000000
837.174912	22927.000000
839.412769	22499.000000
841.648101	22075.000000
843.880910	22631.000000
846.115130	22004.000000
848.346827	22217.000000
850.577970	21910.000000
852.808558	21961.000000
855.038592	21790.000000
857.268072	21286.000000
859.493070	21220.000000
861.721443	21142.000000
863.945337	20892.000000
866.170641	20743.000000
868.391470	20625.000000
870.615671	20815.000000
872.835399	20375.000000
875.056537	20186.000000
877.277126	20554.000000
879.495204	20254.000000
881.714692	20439.000000
883.929714	20079.000000
886.144189	19747.000000
888.358115	19934.000000
890.571495	19773.000000
892.784327	19511.000000
894.996613	19295.000000
897.206396	19205.000000
899.415634	19231.000000
901.624327	19092.000000
903.830521	19077.000000
906.038124	18929.000000
908.243229	18469.000000
910.447791	18807.000000
912.649858	18622.000000
914.853334	18306.000000
917.054316	18389.000000
919.254756	18542.000000
921.456605	18240.000000
923.652063	18218.000000
925.850880	18021.000000
928.045258	17808.000000
930.242994	17967.000000
932.436294	17786.000000
934.631003	17835.000000
936.823226	17528.000000
939.014910	17718.000000
941.206057	17717.000000
943.394721	17723.000000
945.582849	17241.000000
947.768496	17210.000000
949.957495	17250.000000
952.142071	17138.000000
954.326112	17333.000000
956.513503	17059.000000
958.692590	17349.000000
960.875028	17229.000000
963.056932	17122.000000
965.236361	17092.000000
967.413318	17049.000000
969.591683	17030.000000
971.771455	16986.000000
973.944878	16985.000000
976.121647	16955.000000
978.294009	16943.000000
980.467779	16778.000000
982.637145	16905.000000
984.809855	16954.000000
986.980100	16738.000000
989.149816	16719.000000
991.319003	16673.000000
993.483793	16674.000000
995.651924	16633.000000
997.815661	16620.000000
999.980804	16553.000000
1002.143488	16702.000000
1004.305647	16595.000000
1006.465349	16588.000000
1008.624526	16246.000000
1010.785110	16448.000000
1012.943240	16161.000000
1015.100845	16003.000000
1017.257927	16448.000000
1019.414485	16093.000000
1021.566664	16222.000000
1023.720250	15944.000000
1025.873314	16119.000000
1028.023929	16058.000000
1030.175951	16202.000000
1032.323599	16024.000000
1034.474579	15898.000000
1036.621188	16075.000000
1038.767278	15933.000000
1040.912850	16145.000000
1043.059827	15856.000000
1045.200515	16012.000000
1047.344533	15777.000000
1049.486110	15830.000000
1051.627171	15749.000000
1053.769636	15660.000000
1055.905822	15780.000000
1058.045334	15650.000000
1060.180490	15887.000000
1062.318971	15884.000000
1064.453098	15538.000000
1066.586712	15893.000000
1068.721731	15793.000000
1070.852400	15773.000000
1072.984474	15566.000000
1075.114119	15541.000000
1077.243252	15534.000000
1079.371873	15806.000000
1081.499983	15740.000000
1083.625667	15680.000000
1085.750841	15547.000000
1087.877419	15574.000000
1089.999659	15313.000000
1092.123304	15488.000000
1094.242614	15332.000000
1096.367154	15373.000000
1098.485448	15403.000000
1100.605147	15216.000000
1102.722427	15300.000000
1104.839201	15438.000000
1106.955468	15113.000000
1109.069319	15217.000000
1111.184575	15446.000000
1113.295507	15127.000000
1115.409752	14891.000000
1117.519676	15462.000000
1119.631004	15287.000000
1121.741827	15177.000000
1123.848334	15027.000000
1125.958151	15245.000000
1128.063653	15045.000000
1130.170558	15279.000000
1132.271248	15319.000000
1134.377150	15107.000000
1136.478743	15031.000000
1138.581739	15434.000000
1140.684234	15170.000000
1142.780522	15003.000000
1144.882018	15001.000000
1146.979210	14769.000000
1149.075905	14875.000000
1151.172101	14924.000000
1153.267800	14959.000000
1155.363000	14832.000000
1157.455804	15106.000000
1159.550011	15153.000000
1161.638026	14828.000000
1163.731239	15197.000000
1165.818264	14756.000000
1167.908588	14713.000000
1169.994625	14975.000000
1172.083959	15171.000000
1174.167112	14932.000000
1176.251667	15057.000000
1178.337624	15010.000000
1180.419299	14819.000000
1182.502376	14904.000000
1184.583067	14864.000000
1186.663266	14561.000000
1188.742974	14873.000000
1190.822191	14925.000000
1192.899026	14908.000000
1194.973480	14978.000000
1197.051225	14900.000000
1199.124701	14906.000000
1201.199577	14758.000000
1203.270186	14726.000000
1205.342196	14695.000000
1207.411831	14788.000000
1209.482866	14882.000000
1211.553413	14887.000000
1213.619699	14798.000000
1215.687386	14940.000000
1217.752701	14666.000000
1219.819416	14835.000000
1221.881875	14601.000000
1223.947619	14593.000000
1226.009109	14566.000000
1228.072000	14681.000000
1230.132523	14829.000000
1232.192562	14310.000000
1234.252119	14716.000000
1236.309310	14587.000000
1238.366020	14576.000000
1240.420366	14513.000000
1242.477994	14328.000000
1244.533259	14440.000000
1246.584283	14491.000000
1248.636707	14582.000000
1250.688651	14436.000000
1252.738237	14228.000000
1254.787344	14533.000000
1256.835973	14562.000000
1258.884123	14541.000000
1260.931794	14394.000000
1262.975235	14528.000000
1265.021952	14447.000000
1267.066315	14392.000000
1269.110202	14405.000000
1271.151737	14236.000000
1273.190923	13980.000000
1275.233382	14277.000000
1277.271618	14372.000000
1279.311253	14484.000000
1281.350413	14382.000000
1283.385354	14133.000000
1285.421694	14139.000000
1287.455690	14366.000000
1289.491083	14094.000000
1291.522264	14501.000000
1293.554842	14006.000000
1295.586949	14321.000000
1297.616715	14303.000000
1299.647879	14124.000000
1301.674835	14366.000000
1303.703189	14146.000000
1305.727339	14421.000000
1307.754753	14205.000000
1309.777965	14028.000000
1311.802575	14195.000000
1313.824851	14183.000000
1315.848524	13906.000000
1317.869864	13928.000000
1319.890736	14127.000000
1321.911141	13962.000000
1323.927353	14329.000000
1325.944962	13967.000000
1327.960243	13840.000000
1329.978783	13985.000000
1331.993134	13845.000000
1334.005159	13907.000000
1336.020441	13859.000000
1338.031538	13900.000000
1340.044032	13526.000000
1342.052343	13774.000000
1344.063909	13765.000000
1346.069437	13675.000000
1348.078220	13348.000000
1350.082825	13599.000000
1352.090684	13802.000000
1354.098081	13672.000000
1356.099447	13653.000000
1358.102209	13516.000000
1360.104512	13595.000000
1362.106355	13435.000000
1364.107738	13443.000000
1366.106808	13532.000000
1368.105419	13578.000000
1370.103572	13344.000000
1372.101266	13403.000000
1374.094798	13186.000000
1376.089726	13319.000000
1378.084196	12997.000000
1380.078210	13261.000000
1382.069917	13567.000000
1384.061169	13236.000000
1386.050115	13297.000000
1388.040456	13016.000000
1390.030342	13143.000000
1392.017924	13261.000000
1394.005053	13220.000000
1395.989880	12988.000000
1397.976102	13194.000000
1399.960024	12913.000000
1401.943493	13286.000000
1403.926509	13234.000000
1405.907228	13162.000000
1407.889341	13004.000000
1409.869158	12973.000000
1411.848523	13216.000000
1413.823750	13081.000000
1415.802215	13164.000000
1417.778387	13046.000000
1419.754110	13080.000000
1421.729383	13192.000000
1423.702365	13066.000000
1425.674899	13130.000000
1427.646985	13056.000000
1429.618624	13092.000000
1431.586134	13130.000000
1433.558718	12721.000000
1435.523497	12913.000000
1437.493347	13052.000000
1439.459074	13030.000000
1441.426193	12959.000000
1443.391029	12674.000000
1445.351745	13006.000000
1447.317529	12793.000000
1449.277358	12889.000000
1451.238581	12957.000000
1453.201196	12989.000000
1455.159696	13085.000000
1457.117753	12891.000000
1459.075369	13024.000000
1461.032542	13048.000000
1462.987440	13212.000000
1464.943731	13150.000000
1466.897747	13145.000000
1468.851322	13000.000000
1470.802625	13151.000000
1472.755321	12918.000000
1474.705745	13147.000000
1476.655729	13119.000000
1478.605275	13516.000000
1480.552552	12976.000000
1482.497561	13126.000000
1484.443963	13178.000000
1486.389927	13181.000000
1488.335454	13382.000000
1490.278715	13235.000000
1492.221541	13353.000000
1494.162103	13146.000000
1496.104056	13072.000000
1498.043747	13123.000000
1499.983004	13072.000000
1501.921825	13320.000000
1503.858387	12937.000000
1505.796340	13426.000000
1507.732034	13198.000000
1509.667295	13536.000000
1511.600300	13516.000000
1513.532872	13686.000000
1515.465012	13549.000000
1517.396720	13804.000000
1519.326174	13508.000000
1521.257019	13739.000000
1523.187432	13909.000000
1525.113773	13728.000000
1527.041505	13962.000000
1528.966986	13878.000000
1530.892038	13898.000000
1532.816661	14140.000000
1534.740855	13986.000000
1536.662801	14125.000000
1538.586138	14075.000000
1540.507228	14145.000000
1542.426075	14118.000000
1544.346310	14677.000000
1546.264303	14442.000000
1548.181869	14613.000000
1550.097193	14750.000000
1552.013907	14900.000000
1553.926566	15092.000000
1555.842429	14967.000000
1557.756052	15295.000000
1559.667438	15395.000000
1561.580212	15112.000000
1563.488937	15325.000000
1565.399051	15251.000000
1567.308742	15379.000000
1569.218010	16049.000000
1571.125044	15678.000000
1573.029845	16000.000000
1574.936035	15903.000000
1576.839993	16206.000000
1578.743530	16158.000000
1580.646647	16233.000000
1582.547534	16790.000000
1584.449810	16799.000000
1586.349858	16867.000000
1588.251293	17345.000000
1590.148695	17450.000000
1592.045678	17589.000000
1593.942243	18099.000000
1595.840196	18147.000000
1597.732314	18620.000000
1599.627625	18605.000000
1601.522519	18852.000000
1603.415191	19457.000000
1605.307446	19335.000000
1607.197482	19354.000000
1609.087102	20036.000000
1610.976307	19888.000000
1612.865097	20632.000000
1614.751669	20747.000000
1616.639629	20943.000000
1618.523572	20852.000000
1620.408902	21023.000000
1622.293819	21724.000000
1624.176522	21673.000000
1626.060612	21655.000000
1627.940691	21965.000000
1629.822156	22265.000000
1631.701411	22208.000000
1633.582052	22016.000000
1635.456889	22373.000000
1637.336707	22195.000000
1639.212521	22040.000000
1641.087924	22232.000000
1642.964713	21910.000000
1644.835706	22523.000000
1646.709880	22177.000000
1648.580056	21676.000000
1650.453412	21444.000000
1652.324565	21207.000000
1654.193516	21389.000000
1656.063852	21137.000000
1657.930196	20620.000000
1659.797925	20362.000000
1661.663455	20465.000000
1663.530371	20189.000000
1665.393298	19822.000000
1667.257610	19378.000000
1669.119726	19354.000000
1670.981437	19036.000000
1672.844534	18534.000000
1674.705435	18209.000000
1676.564144	18057.000000
1678.422449	17881.000000
1680.282139	17395.000000
1682.136061	16833.000000
1683.993157	16900.000000
1685.849850	16645.000000
1687.702566	16054.000000
1689.558454	16042.000000
1691.410368	15518.000000
1693.261881	15294.000000
1695.112993	14978.000000
1696.963705	14935.000000
1698.814016	14646.000000
1700.662142	14217.000000
1702.511653	14109.000000
1704.355415	13483.000000
1706.204126	13735.000000
1708.047091	13329.000000
1709.893223	12858.000000
1711.735392	12780.000000
1713.580727	12563.000000
1715.420321	12333.000000
1717.261299	12032.000000
1719.103660	11961.000000
1720.942065	11611.000000
1722.781853	11660.000000
1724.619466	11324.000000
1726.456683	11322.000000
1728.291727	11122.000000
1730.128154	10838.000000
1731.962409	10898.000000
1733.796269	10366.000000
1735.629735	10371.000000
1737.459256	10391.000000
1739.291935	10219.000000
1741.120670	9921.000000
1742.952562	10117.000000
1744.780512	10011.000000
1746.608071	9693.000000
1748.435237	9662.000000
1750.262012	9624.000000
1752.088395	9407.000000
1753.910842	9529.000000
1755.736444	9273.000000
1757.558111	9325.000000
1759.381160	9040.000000
1761.202047	8967.000000
1763.022546	8676.000000
1764.844426	9192.000000
1766.660606	8841.000000
1768.479938	8797.000000
1770.295343	8664.000000
1772.113898	8689.000000
1773.928528	8534.000000
1775.742771	8592.000000
1777.556628	8463.000000
1779.370098	8322.000000
1781.181415	8316.000000
1782.994112	8275.000000
1784.806424	8254.000000
1786.614818	8455.000000
1788.424592	8159.000000
1790.230452	8106.000000
1792.039457	8114.000000
1793.844549	8198.000000
1795.651022	8067.000000
1797.457111	8351.000000
1799.259289	7917.000000
1801.064612	8133.000000
1802.866026	7879.000000
1804.668820	7989.000000
1806.467708	7706.000000
1808.267977	7900.000000
1810.067864	7640.000000
1811.865609	7833.000000
1813.662974	7915.000000
1815.459959	7821.000000
1817.256563	7832.000000
1819.051028	7775.000000
1820.846872	7812.000000
1822.637061	7763.000000
1824.432147	7558.000000
1826.221581	7794.000000
1828.014151	7656.000000
1829.804586	7585.000000
1831.592887	7447.000000
1833.384323	7412.000000
1835.170113	7459.000000
1836.957283	7586.000000
1838.742321	7569.000000
1840.530493	7473.000000
1842.314779	7626.000000
1844.096935	7497.000000
1845.880471	7429.000000
1847.661878	7374.000000
1849.444664	7575.000000
1851.223569	7282.000000
1853.003854	7465.000000
1854.782012	7370.000000
1856.561549	7283.000000
1858.338961	7585.000000
1860.114249	7233.000000
1861.890915	7378.000000
1863.665459	7395.000000
1865.441381	7395.000000
1867.211682	7409.000000
1868.985111	7118.000000
1870.756420	7179.000000
1872.527358	7361.000000
1874.299674	7114.000000
1876.066376	7240.000000
1877.836204	7127.000000
1879.602168	7327.000000
1881.371255	7250.000000
1883.136481	7351.000000
1884.901339	7378.000000
1886.667574	7327.000000
1888.429950	7336.000000
1890.191959	7382.000000
1891.953600	7309.000000
1893.714875	7132.000000
1895.475782	7055.000000
1897.236323	7271.000000
1898.994754	7185.000000
1900.752819	7120.000000
1902.508777	7412.000000
1904.266111	7187.000000
1906.023080	7177.000000
1907.777942	7220.000000
1909.530700	7164.000000
1911.283093	7371.000000
1913.036863	7120.000000
1914.788529	7294.000000
1916.538093	7298.000000
1918.289032	6966.000000
1920.039609	7298.000000
1921.786346	7457.000000
1923.534460	6971.000000
1925.280474	7350.000000
1927.027863	7231.000000
1928.773155	7235.000000
1930.516349	7224.000000
1932.260918	7309.000000
1934.003392	7323.000000
1935.745505	7285.000000
1937.487258	7231.000000
1939.228652	7370.000000
1940.967951	7367.000000
1942.706892	7447.000000
1944.445474	7439.000000
1946.181965	7375.000000
1947.918098	7413.000000
1949.655605	7451.000000
1951.389290	7378.000000
1953.124350	7555.000000
1954.857321	7363.000000
1956.589936	7617.000000
1958.322195	7596.000000
1960.054097	7592.000000
1961.783913	7735.000000
1963.511644	7595.000000
1965.240750	7690.000000
1966.969501	7723.000000
1968.696168	7796.000000
1970.422481	7723.000000
1972.150167	7816.000000
1973.872317	7730.000000
1975.597568	7612.000000
1977.319012	7832.000000
1979.043557	7826.000000
1980.766021	7859.000000
1982.484683	7927.000000
1984.206443	8057.000000
1985.924401	7972.000000
1987.643732	7929.000000
1989.359264	7889.000000
1991.079616	8041.000000
1992.796170	8014.000000
1994.508927	8056.000000
1996.224780	8151.000000
1997.938561	8098.000000
1999.651992	8092.000000
2001.363352	8202.000000
2003.076084	8200.000000
2004.785026	8287.000000
2006.497060	8411.000000
2008.203586	8368.000000
2009.913203	8073.000000
2011.620754	8477.000000
2013.327956	8565.000000
2015.033093	8263.000000
2016.737884	8318.000000
2018.444046	8432.000000
2020.146426	8281.000000
2021.850177	8454.000000
2023.551866	8301.000000
2025.253210	8299.000000
2026.954208	8548.000000
2028.653145	8332.000000
2030.353454	8405.000000
2032.049988	8600.000000
2033.747893	8670.000000
2035.443739	8581.000000
2037.142671	8646.000000
2038.836117	8676.000000
2040.530934	8682.000000
2042.225409	8850.000000
2043.916115	8695.000000
2045.609905	8937.000000
2047.299928	8680.000000
2048.991322	8895.000000
2050.680663	8559.000000
2052.371374	8697.000000
2054.058322	8779.000000
2055.744931	8872.000000
2057.432909	8742.000000
2059.117128	8729.000000
2060.802718	8595.000000
2062.487968	8587.000000
2064.171170	8722.000000
2065.855741	8716.000000
2067.534850	8988.000000
2069.218744	8847.000000
2070.897177	8634.000000
2072.578688	8947.000000
2074.256447	8780.000000
2075.933870	8703.000000
2077.612662	8875.000000
2079.289412	8789.000000
2080.964120	9033.000000
2082.640197	8828.000000
2084.314234	8778.000000
2085.987935	8879.000000
2087.661301	8970.000000
2089.332628	8718.000000
2091.003622	8820.000000
2092.674280	8914.000000
2094.344605	8785.000000
2096.014596	8751.000000
2097.682551	8609.000000
2099.350173	8952.000000
2101.015760	9005.000000
2102.682716	9018.000000
2104.347639	9045.000000
2106.012230	9324.000000
2107.674789	9100.000000
2109.338716	9040.000000
2111.000612	8965.000000
2112.662178	9006.000000
2114.323412	9052.000000
2115.982618	8920.000000
2117.641493	9194.000000
2119.300039	9234.000000
2120.958255	8979.000000
2122.612747	9031.000000
2124.270304	9084.000000
2125.927532	9175.000000
2127.581038	9081.000000
2129.235912	9073.000000
2130.887067	9013.000000
2132.541285	8954.000000
2134.191786	8989.000000
2135.843653	9068.000000
2137.490112	9228.000000
2139.141326	8890.000000
2140.788826	8975.000000
2142.437693	9072.000000
2144.084541	9114.000000
2145.731064	8948.000000
2147.377261	8895.000000
2149.019750	8873.000000
2150.665297	8830.000000
2152.307137	8884.000000
2153.952034	8894.000000
2155.593226	8769.000000
2157.234094	8861.000000
2158.874638	8868.000000
2160.513170	8580.000000
2162.153068	8841.000000
2163.789266	8792.000000
2165.426830	8476.000000
2167.064072	8376.000000
2168.699304	8322.000000
2170.334215	8714.000000
2171.968804	8516.000000
2173.603071	8534.000000
2175.233645	8310.000000
2176.867271	8265.000000
2178.497205	8359.000000
2180.128504	8084.000000
2181.757798	8326.000000
2183.386773	8209.000000
2185.015428	8250.000000
2186.643764	8286.000000
2188.270098	8266.000000
2189.896113	7955.000000
2191.520126	8076.000000
2193.145505	8055.000000
2194.768883	8091.000000
2196.393626	7871.000000
2198.014688	7883.000000
2199.635433	8032.000000
2201.257543	7945.000000
2202.877655	7711.000000
2204.495770	7873.000000
2206.113570	7826.000000
2207.731055	7913.000000
2209.348224	7810.000000
2210.965078	7711.000000
2212.581616	7663.000000
2214.196162	7628.000000
2215.808715	7652.000000
2217.422632	7778.000000
2219.034558	7554.000000
2220.647847	7835.000000
2222.259146	7664.000000
2223.868455	7618.000000
2225.479128	7563.000000
2227.087812	7553.000000
2228.696183	7327.000000
2230.302568	7501.000000
2231.910316	7405.000000
2233.516077	7431.000000
2235.121527	7447.000000
2236.724992	7357.000000
2238.329820	7302.000000
2239.932664	7216.000000
2241.533525	7223.000000
2243.135749	7197.000000
2244.735991	7129.000000
2246.337595	7152.000000
2247.935547	7088.000000
2249.534860	7031.000000
2251.132194	7087.000000
2252.729220	7016.000000
2254.327608	6954.000000
2255.922347	7162.000000
2257.515109	6946.000000
2259.109234	7119.000000
2260.704720	6822.000000
2262.296561	6904.000000
2263.888096	6915.000000
2265.480993	6833.000000
2267.068580	6826.000000
2268.660863	6747.000000
2270.247840	6746.000000
2271.837844	6775.000000
2273.422544	6649.000000
2275.011938	6810.000000
2276.596030	6694.000000
2278.181483	6538.000000
2279.764966	6715.000000
2281.351475	6678.000000
2282.934351	6541.000000
2284.516924	6461.000000
2286.099193	6441.000000
2287.677832	6499.000000
2289.259496	6283.000000
2290.837531	6436.000000
2292.418589	6396.000000
2293.996020	6412.000000
2295.571488	6428.000000
2297.149978	6419.000000
2298.724844	6234.000000
2300.299409	6324.000000
2301.873674	6234.000000
2303.447638	6191.000000
2305.021301	6213.000000
2306.594665	6106.000000
2308.164410	6174.000000
2309.733856	6297.000000
2311.306320	6103.000000
2312.873510	6082.000000
2314.443718	5959.000000
2316.010311	6149.000000
2317.578264	5865.000000
2319.144261	5807.000000
2320.709961	6041.000000
2322.275363	6147.000000
2323.838812	6084.000000
2325.403620	6084.000000
2326.964820	6139.000000
2328.529034	6302.000000
2330.087986	6124.000000
2331.649953	6318.000000
2333.209968	5894.000000
2334.769689	5979.000000
2336.327460	5867.000000
2337.884936	5830.000000
2339.442118	5891.000000
2340.997352	5955.000000
2342.552293	5939.000000
2344.106939	5855.000000
2345.661292	5731.000000
2347.215352	6029.000000
2348.769117	5728.000000
2350.320939	5593.000000
2351.870817	5737.000000
2353.423703	5795.000000
2354.971347	5760.000000
2356.521998	5673.000000
2358.069058	5565.000000
2359.617476	5664.000000
2361.165603	5608.000000
2362.710141	5541.000000
2364.256037	5478.000000
2365.799995	5540.000000
2367.345310	5606.000000
2368.887040	5598.000000
2370.430127	5535.000000
2371.971278	5395.000000
2373.512140	5410.000000
2375.052713	5643.000000
2376.592997	5539.000000
2378.132992	5423.000000
2379.669409	5406.000000
2381.208827	5517.000000
2382.744668	5499.000000
2384.281865	5213.000000
2385.815487	5432.000000
2387.352109	5442.000000
2388.886801	5527.000000
2390.419563	5345.000000
2391.952038	5216.000000
2393.482585	5431.000000
2395.016130	5423.000000
2396.544464	5227.000000
2398.074155	5180.000000
2399.603559	5313.000000
2401.132679	5227.000000
2402.661514	5245.000000
2404.185143	5281.000000
2405.713408	5250.000000
2407.236471	5248.000000
2408.764167	5345.000000
2410.285024	5122.000000
2411.810514	5246.000000
2413.332443	5129.000000
2414.855728	5133.000000
2416.377091	5252.000000
2417.896535	5092.000000
2419.417335	5135.000000
2420.936215	5156.000000
2422.454813	5000.000000
2423.971494	5318.000000
2425.489529	4958.000000
2427.007283	5123.000000
2428.521486	5120.000000
2430.035408	5008.000000
2431.549050	5049.000000
2433.064047	5037.000000
2434.575495	4924.000000
2436.088298	5056.000000
2437.599187	5070.000000
2439.109798	5040.000000
2440.618497	4913.000000
2442.130182	4907.000000
2443.638324	4882.000000
2445.146188	4873.000000
2446.653774	4732.000000
2448.157819	4904.000000
2449.664849	4828.000000
2451.169972	4932.000000
2452.674816	4908.000000
2454.177754	4897.000000
2455.680416	4798.000000
2457.182801	4816.000000
2458.683281	4766.000000
2460.185114	4756.000000
2461.685042	4740.000000
2463.184695	4861.000000
2464.684073	4640.000000
2466.181548	4662.000000
2467.677121	4790.000000
2469.175674	4748.000000
2470.670699	4551.000000
2472.167076	4651.000000
2473.659927	4643.000000
2475.154131	4738.000000
2476.648061	4572.000000
2478.138467	4617.000000
2479.631851	4637.000000
2481.123337	4637.000000
2482.612926	4631.000000
2484.102243	4639.000000
2485.589664	4670.000000
2487.080061	4728.000000
2488.566940	4752.000000
2490.055170	4649.000000
2491.539884	4607.000000
2493.024327	4705.000000
2494.510121	4608.000000
2495.994024	4342.000000
2497.479277	4538.000000
2498.959397	4669.000000
2500.442490	4601.000000
2501.923692	4539.000000
2503.404625	4623.000000
2504.883669	4746.000000
2506.362444	4597.000000
2507.840951	4504.000000
2509.319190	4547.000000
2510.797160	4673.000000
2512.271625	4725.000000
2513.749060	4506.000000
2515.222991	4500.000000
2516.698272	4581.000000
2518.173286	4465.000000
2519.644800	4538.000000
2521.117663	4569.000000
2522.588644	4506.000000
2524.060975	4481.000000
2525.528192	4538.000000
2526.998376	4449.000000
2528.466679	4452.000000
2529.934717	4429.000000
2531.402490	4520.000000
2532.869998	4429.000000
2534.337241	4482.000000
2535.800992	4390.000000
2537.266093	4578.000000
2538.729317	4460.000000
2540.193891	4590.000000
2541.654975	4455.000000
2543.117409	4571.000000
2544.579580	4475.000000
2546.038265	4356.000000
2547.501522	4481.000000
2548.959682	4459.000000
2550.419191	4473.000000
2551.873606	4349.000000
2553.332592	4446.000000
2554.789706	4490.000000
2556.244949	4285.000000
2557.699931	4458.000000
2559.153043	4417.000000
2560.607504	4336.000000
2562.060095	4417.000000
2563.512427	4388.000000
2564.962892	4323.000000
2566.416312	4474.000000
2567.864650	4270.000000
2569.315944	4550.000000
2570.765371	4312.000000
2572.211326	4459.000000
2573.660236	4267.000000
2575.105676	4338.000000
2576.552463	4259.000000
2577.997388	4298.000000
2579.442054	4330.000000
2580.888068	4371.000000
2582.330616	4463.000000
2583.774511	4449.000000
2585.214941	4105.000000
2586.656718	4238.000000
2588.096636	4438.000000
2589.537901	4297.000000
2590.975704	4261.000000
2592.416457	4296.000000
2593.852148	4489.000000
2595.290788	4244.000000
2596.727570	4401.000000
2598.162497	4318.000000
2599.600371	4182.000000
2601.033188	4396.000000
2602.467352	4202.000000
2603.899662	4368.000000
2605.333318	4271.000000
2606.765121	4291.000000
2608.196670	4142.000000
2609.627967	4276.000000
2611.057411	4288.000000
2612.486603	4167.000000
2613.913945	4167.000000
2615.342632	4242.000000
2616.771068	4118.000000
2618.196056	4312.000000
2619.622391	4109.000000
2621.046877	4121.000000
2622.472709	4349.000000
2623.895097	4395.000000
2625.318831	4248.000000
2626.740718	4168.000000
2628.162356	4079.000000
2629.582148	4178.000000
2631.003286	4248.000000
2632.424174	4292.000000
2633.841624	4062.000000
2635.262013	4295.000000
2636.678965	4213.000000
2638.095668	4394.000000
2639.512123	4098.000000
2640.928330	4294.000000
2642.344289	4257.000000
2643.758407	4226.000000
2645.172277	4273.000000
2646.584309	4351.000000
2647.997684	4227.000000
2649.407630	4266.000000
2650.820512	4209.000000
2652.229965	4256.000000
2653.639172	4315.000000
2655.046543	4273.000000
2656.456848	4273.000000
2657.865318	4212.000000
2659.271952	4220.000000
2660.678341	4253.000000
2662.082896	4332.000000
2663.488795	4514.000000
2664.892861	4198.000000
2666.296682	4306.000000
2667.700259	4211.000000
2669.102005	4307.000000
2670.505094	4579.000000
2671.904765	4182.000000
2673.305780	4389.000000
2674.703379	4331.000000
2676.103908	4349.000000
2677.501021	4345.000000
2678.899479	4423.000000
2680.296108	4326.000000
2681.692495	4342.000000
2683.088640	4350.000000
2684.482960	4407.000000
2685.878621	4401.000000
2687.270874	4431.000000
2688.664469	4518.000000
2690.056240	4323.000000
2691.449354	4481.000000
2692.840644	4300.000000
2694.230111	4491.000000
2695.619338	4405.000000
2697.008326	4515.000000
2698.398655	4347.000000
2699.784001	4514.000000
2701.172270	4451.000000
2702.558719	4592.000000
2703.944929	4572.000000
2705.330900	4647.000000
2706.713473	4485.000000
2708.097388	4363.000000
2709.481065	4378.000000
2710.864503	4566.000000
2712.244547	4469.000000
2713.625931	4460.000000
2715.005501	4531.000000
2716.386411	4632.000000
2717.765507	4635.000000
2719.142789	4664.000000
2720.521412	4356.000000
2721.898222	4719.000000
2723.274795	4634.000000
2724.651133	4663.000000
2726.025660	4750.000000
2727.401527	4824.000000
2728.774007	4732.000000
2730.149403	4782.000000
2731.519839	4600.000000
2732.891616	4870.000000
2734.263158	4600.000000
2735.632892	4681.000000
2737.003967	4771.000000
2738.373233	4794.000000
2739.742266	4777.000000
2741.109493	4906.000000
2742.476487	4856.000000
2743.843247	4861.000000
2745.209776	4839.000000
2746.574499	5056.000000
2747.938990	4965.000000
2749.303250	4886.000000
2750.667277	4890.000000
2752.031073	4999.000000
2753.391495	4924.000000
2754.754827	4916.000000
2756.113217	5071.000000
2757.474517	5137.000000
2758.832447	5133.000000
2760.193285	5113.000000
2761.552324	5266.000000
2762.907994	5069.000000
2764.266572	5014.000000
2765.621783	5288.000000
2766.976765	4995.000000
2768.329951	5295.000000
2769.686043	5304.000000
2771.038770	5464.000000
2772.391270	5190.000000
2773.743541	5361.000000
2775.097151	5307.000000
2776.447399	5233.000000
2777.795853	5390.000000
2779.147213	5188.000000
2780.495213	5122.000000
2781.844551	5449.000000
2783.192098	5488.000000
2784.539417	5445.000000
2785.886510	5530.000000
2787.231812	5514.000000
2788.576887	5559.000000
2789.921737	5573.000000
2791.266361	5485.000000
2792.607633	5543.000000
2793.950243	5453.000000
2795.292627	5843.000000
2796.634786	5742.000000
2797.973597	5718.000000
2799.315306	5700.000000
2800.653668	5682.000000
2801.993366	5717.000000
2803.331280	5902.000000
2804.667409	5821.000000
2806.003314	5888.000000
2807.340557	5929.000000
2808.676016	6090.000000
2810.011252	6111.000000
2811.344705	6240.000000
2812.679495	6186.000000
2814.010945	6338.000000
2815.345290	6087.000000
2816.674737	6197.000000
2818.005521	6384.000000
2819.336083	6350.000000
2820.664866	6449.000000
2821.994985	6507.000000
2823.323326	6510.000000
2824.651446	6565.000000
2825.977788	6679.000000
2827.305467	6578.000000
2828.629812	6717.000000
2829.955494	6783.000000
2831.279400	6705.000000
2832.603087	6585.000000
2833.928109	6777.000000
2835.249801	6868.000000
2836.571275	7141.000000
2837.892530	6822.000000
2839.213566	7021.000000
2840.532829	7160.000000
2841.853428	7122.000000
2843.172256	7152.000000
2844.490865	7173.000000
2845.807703	7164.000000
2847.124324	7054.000000
2848.440728	7396.000000
2849.755362	7486.000000
2851.071332	7560.000000
2852.383981	7580.000000
2853.697965	7707.000000
2855.011733	7538.000000
2856.325285	7717.000000
2857.637069	7874.000000
2858.947087	7907.000000
2860.258440	8085.000000
2861.566478	8107.000000
2862.875850	8350.000000
2864.185008	8424.000000
2865.493950	8174.000000
2866.801128	8426.000000
2868.106544	8403.000000
2869.413294	8588.000000
2870.718281	8666.000000
2872.023055	8732.000000
2873.326067	8951.000000
2874.631960	9001.000000
2875.932999	9082.000000
2877.235372	9320.000000
2878.535985	9440.000000
2879.837932	9561.000000
2881.139666	9424.000000
2882.438095	9896.000000
2883.737858	9692.000000
2885.035864	9698.000000
2886.333658	9897.000000
2887.629696	9958.000000
2888.927067	9954.000000
2890.222682	10138.000000
2891.518086	10155.000000
2892.813279	10196.000000
2894.105175	10425.000000
2895.399947	10623.000000
2896.691422	10589.000000
2897.984230	10573.000000
2899.276828	10702.000000
2900.566132	11010.000000
2901.856768	11185.000000
2903.145653	11176.000000
2904.435870	11118.000000
2905.722796	11410.000000
2907.011054	11491.000000
2908.297563	11506.000000
2909.583864	11572.000000
2910.869956	11805.000000
2912.154300	11853.000000
2913.441515	11905.000000
2914.723904	12275.000000
2916.007625	12097.000000
2917.289600	12370.000000
2918.571367	12366.000000
2919.851390	12671.000000
2921.134282	12979.000000
2922.415429	13141.000000
2923.693294	13195.000000
2924.974028	13471.000000
2926.251481	13361.000000
2927.528728	13385.000000
2928.804233	13670.000000
2930.082606	14002.000000
2931.356165	13985.000000
2932.632591	14196.000000
2933.907276	14346.000000
2935.180220	14417.000000
2936.454496	14477.000000
2937.727032	14484.000000
2938.999363	14829.000000
2940.268422	15009.000000
2941.540346	15080.000000
2942.810532	15336.000000
2944.080514	15757.000000
2945.350293	15763.000000
2946.618336	15700.000000
2947.884642	16272.000000
2949.150747	16444.000000
2950.418181	16589.000000
2951.683881	16795.000000
2952.949378	16574.000000
2954.214673	17137.000000
2955.476703	17214.000000
2956.740063	17536.000000
2958.003222	17705.000000
2959.264649	18125.000000
2960.527405	18274.000000
2961.788429	18377.000000
2963.047723	18650.000000
2964.306817	19066.000000
2965.565710	19258.000000
2966.824403	19479.000000
2968.082896	19438.000000
2969.339660	19801.000000
2970.596224	19961.000000
2971.851061	20339.000000
2973.107226	20921.000000
2974.360137	21249.000000
2975.614377	21475.000000
2976.868418	21726.000000
2978.120733	22007.000000
2979.372849	22200.000000
2980.623241	22262.000000
2981.876488	22905.000000
2983.124958	22931.000000
2984.376283	23797.000000
2985.624358	23750.000000
2986.872237	24250.000000
2988.119918	24168.000000
2989.367402	24747.000000
2990.613165	24769.000000
2991.858732	25283.000000
2993.105626	25501.000000
2994.349276	26284.000000
2995.594254	26278.000000
2996.835988	26392.000000
2998.080574	27050.000000
2999.323441	27200.000000
3000.563067	27850.000000
3001.805543	28417.000000
3003.044779	28466.000000
3004.285343	28526.000000
3005.524191	29476.000000
3006.762843	29722.000000
3007.999781	29932.000000
3009.238045	30541.000000
3010.474594	31621.000000
3011.710950	31566.000000
3012.947112	31885.000000
3014.181560	32532.000000
3015.415816	32941.000000
3016.649878	33270.000000
3017.882228	34125.000000
3019.112866	34220.000000
3020.346350	34804.000000
3021.578122	34904.000000
3022.808184	35853.000000
3024.038054	36088.000000
3025.266214	36770.000000
3026.495700	37303.000000
3027.723477	37996.000000
3028.951064	38192.000000
3030.179976	38978.000000
3031.404146	39275.000000
3032.631159	40135.000000
3033.854948	40285.000000
3035.080064	41044.000000
3036.303473	41378.000000
3037.526692	41461.000000
3038.748206	42411.000000
3039.972561	43182.000000
3041.192181	44236.000000
3042.413127	44413.000000
3043.633884	44858.000000
3044.852937	45215.000000
3046.073316	46072.000000
3047.290477	46528.000000
3048.508965	47364.000000
3049.725750	47511.000000
3050.942348	48977.000000
3052.158757	48460.000000
3053.371954	50027.000000
3054.587988	50608.000000
3055.800810	50745.000000
3057.016469	51693.000000
3058.227405	51656.000000
3059.439666	52805.000000
3060.651741	53000.000000
3061.863628	53385.000000
3063.073819	54600.000000
3064.283823	54856.000000
3065.493641	55662.000000
3066.701763	56466.000000
3067.909700	55712.000000
3069.115941	57056.000000
3070.323507	57349.000000
3071.529378	58000.500000
3072.735065	58652.000000
3073.940566	59126.000000
3075.144374	59030.000000
3076.349506	59977.000000
3077.552946	60964.000000
3078.754693	61274.000000
3079.956256	61533.000000
3081.157636	61713.000000
3082.358832	62078.000000
3083.558338	62506.000000
3084.757661	62391.000000
3085.958307	63290.000000
3087.157263	63916.000000
3088.353025	63855.000000
3089.551616	64436.000000
3090.747013	64208.000000
3091.943733	64454.000000
3093.137261	64411.000000
3094.333617	64494.000000
3095.528287	64364.000000
3096.719766	64393.000000
3097.915576	64447.000000
3099.106693	64495.000000
3100.299132	64363.000000
3101.488384	64465.000000
3102.680461	64334.000000
3103.870855	64391.000000
3105.058063	64457.000000
3106.246594	64509.000000
3107.436446	64400.000000
3108.623115	64468.000000
3109.809604	64291.000000
3110.995913	64480.000000
3112.183544	64448.000000
3113.367993	64459.000000
3114.550763	64408.000000
3115.736355	64133.000000
3116.920268	64440.000000
3118.102502	64475.000000
3119.284557	64433.000000
3120.466434	64413.000000
3121.648133	64440.000000
3122.828155	64431.000000
3124.006500	64415.000000
3125.187665	64412.000000
3126.365656	64398.000000
3127.543469	64483.000000
3128.721105	64433.000000
3129.897066	64481.000000
3131.072850	64416.000000
3132.249956	64276.000000
3133.425387	64403.000000
3134.599145	64352.000000
3135.771230	64374.000000
3136.944637	64439.000000
3138.117867	64442.000000
3139.289426	64441.000000
3140.462305	64338.000000
3141.632017	64450.000000
3142.803050	64371.000000
3143.972413	64444.000000
3145.140105	64404.000000
3146.310614	64330.000000
3147.476463	64423.000000
3148.646621	64471.000000
3149.812123	64330.000000
3150.977450	64455.000000
3152.142605	64441.000000
3153.307585	64401.000000
3154.473885	64419.000000
3155.635533	64472.000000
3156.798500	64311.000000
3157.961295	64412.000000
3159.123917	64402.000000
3160.284874	64327.000000
3161.445658	64460.000000
3162.606270	64461.000000
3163.765218	64428.000000
3164.923995	64456.000000
3166.082600	64305.000000
3167.241033	64463.000000
3168.399294	64362.000000
3169.555893	64425.000000
3170.710831	64412.000000
3171.867088	64512.000000
3173.021684	64361.000000
3174.176110	64456.000000
3175.328876	64422.000000
3176.481472	64409.000000
3177.633897	64406.000000
3178.786153	64428.000000
3179.938238	64432.000000
3181.087178	64288.000000
3182.238924	64418.000000
3183.389012	64414.000000
3184.537444	64408.000000
3185.685706	64473.000000
3186.833800	64422.000000
3187.981725	64444.000000
3189.127994	64299.000000
3190.274096	64471.000000
3191.418542	64412.000000
3192.562821	64460.000000
3193.706932	64360.000000
3194.852360	64417.000000
3195.994650	64391.000000
3197.136773	64373.000000
3198.278728	64404.000000
3199.420516	64451.000000
3200.562137	64428.000000
3201.700623	64353.000000
3202.840426	64444.000000
3203.981547	64457.000000
3205.119533	64405.000000
3206.255870	64329.000000
3207.392041	64328.000000
3208.529529	64369.000000
3209.665369	64390.000000
3210.802526	64348.000000
3211.935070	64418.000000
3213.071896	64471.000000
3214.204110	64370.000000
3215.337641	64506.000000
3216.471008	64354.000000
3217.601247	64410.000000
3218.734284	64427.000000
3219.864195	64278.000000
3220.995422	64249.000000
3222.123525	64262.000000
3223.254424	64373.000000
3224.383679	64461.000000
3225.511291	64401.000000
3226.635780	64362.000000
3227.764545	64371.000000
3228.890188	64402.000000
3230.015669	64336.000000
3231.139508	64350.000000
3232.266141	64449.000000
3233.388177	64453.000000
3234.511529	64367.000000
3235.634719	64359.000000
3236.757747	64399.000000
3237.879135	64418.000000
3239.000361	64416.000000
3240.119950	64475.000000
3241.239377	64385.000000
3242.357166	64447.000000
3243.477747	64399.000000
3244.595215	64387.000000
3245.712522	64433.000000
3246.829669	64208.000000
3247.945180	64413.000000
3249.062005	64461.000000
3250.175721	64353.000000
3251.292226	64394.000000
3252.407097	64310.000000
3253.518859	64386.000000
3254.630461	64408.000000
3255.743379	64428.000000
3256.856137	64461.000000
3257.965789	64434.000000
3259.076756	64371.000000
3260.187564	64415.000000
3261.296740	64394.000000
3262.404286	64220.000000
3263.513145	64423.000000
3264.621847	64425.000000
3265.727446	64453.000000
3266.834359	64248.000000
3267.939643	63840.000000
3269.046241	64335.000000
3270.149739	64422.000000
3271.254552	64354.000000
3272.359207	64402.000000
3273.460763	64225.000000
3274.562163	64371.000000
3275.664878	64434.000000
3276.767435	64371.000000
3277.866896	64430.000000
3278.969141	64364.000000
3280.068290	64405.000000
3281.165815	64261.000000
3282.263184	64369.000000
3283.363335	64385.000000
3284.460394	64387.000000
3285.557297	64366.000000
3286.654045	64318.000000
3287.746235	64524.000000
3288.842673	64404.000000
3289.937489	64243.000000
3291.032151	64394.000000
3292.125191	64305.000000
3293.218077	64471.000000
3294.309342	64400.000000
3295.401919	64481.000000
3296.492877	64341.000000
3297.582215	64296.000000
3298.671400	64431.000000
3299.761898	64407.000000
3300.849311	64290.000000
3301.936571	64476.000000
3303.025144	64404.000000
3304.113565	64471.000000
3305.197438	64421.000000
3306.285553	64430.000000
3307.370587	64448.000000
3308.454004	64383.000000
3309.538734	64331.000000
3310.621849	64426.000000
3311.706275	64443.000000
3312.787623	64437.000000
3313.870283	64419.000000
3314.951329	64373.000000
3316.032224	64435.000000
3317.111505	64501.000000
3318.190636	64440.000000
3319.271079	64461.000000
3320.348447	64382.000000
3321.427127	64459.000000
3322.504195	64402.000000
3323.581114	64471.000000
3324.656421	64416.000000
3325.731579	64422.000000
3326.808048	64431.000000
3327.881447	64462.000000
3328.954697	64391.000000
3330.029257	64465.000000
3331.102209	64463.000000
3332.173552	64475.000000
3333.246206	64447.000000
3334.315794	64429.000000
3335.386692	64424.000000
3336.455983	64351.000000
3337.526585	64443.000000
3338.595580	64431.000000
3339.662969	64426.000000
3340.728753	64435.000000
3341.798763	64413.000000
3342.865710	64427.000000
3343.929595	64215.000000
3344.996248	64480.000000
3346.061296	64455.000000
3347.124741	64138.000000
3348.188040	64439.000000
3349.251192	64459.000000
3350.314198	64448.000000
3351.377058	64493.000000
3352.438316	64487.000000
3353.496517	64487.000000
3354.558938	64431.000000
3355.618304	64465.000000
3356.677524	64338.000000
3357.738054	64483.000000
3358.794074	64391.000000
3359.852858	64457.000000
3360.907135	64442.000000
3361.964176	64456.000000
3363.019618	64449.000000
3364.076370	64433.000000
3365.131523	64498.000000
3366.185079	64474.000000
3367.237039	64428.000000
3368.291760	64500.000000
3369.343432	64440.000000
3370.394961	64428.000000
3371.447798	64449.000000
3372.497588	64465.000000
3373.548687	64396.000000
3374.596740	64535.000000
3375.647552	64472.000000
3376.695320	64500.000000
3377.742945	64450.000000
3378.790427	64447.000000
3379.836317	64169.000000
3380.883515	64485.000000
3381.927671	64506.000000
3382.974585	64440.000000
3384.019907	64397.000000
3385.062188	64390.000000
3386.104329	64476.000000
3387.147777	64460.000000
3388.191084	64440.000000
3389.232802	64506.000000
3390.274378	64341.000000
3391.315814	64505.000000
3392.355660	64508.000000
3393.393918	64443.000000
3394.433484	64479.000000
3395.472910	64446.000000
3396.510748	64466.000000
3397.546999	64495.000000
3398.583111	64413.000000
3399.620530	64491.000000
3400.654916	64461.000000
3401.690609	64520.000000
3402.726163	64471.000000
3403.758686	64552.000000
3404.793962	64449.000000
3405.826207	64520.000000
3406.858314	64492.000000
3407.888837	64451.000000
3408.920667	64470.000000
3409.952359	64444.000000
3410.981023	64408.000000
3412.009550	64525.000000
3413.039383	64507.000000
3414.069079	64422.000000
3415.095749	64356.000000
3416.123726	64519.000000
3417.148678	64354.000000
3418.176380	64485.000000
3419.201059	64485.000000
3420.227044	64373.000000
3421.251449	64477.000000
3422.275718	64486.000000
3423.298408	64490.000000
3424.320962	64504.000000
3425.344822	64300.000000
3426.365662	64492.000000
3427.386366	64447.000000
3428.408377	64490.000000
3429.427369	64370.000000
3430.446226	64531.000000
3431.466388	64360.000000
3432.483534	64507.000000
