-116.773079	656.000000
-114.103479	627.000000
-111.436814	717.000000
-108.770901	786.000000
-106.107920	718.000000
-103.443510	668.000000
-100.782030	729.000000
-98.119121	663.000000
-95.461318	814.000000
-92.802086	771.000000
-90.143602	843.000000
-87.488042	621.000000
-84.831054	779.000000
-82.179164	869.000000
-79.525843	835.000000
-76.875443	726.000000
-74.223613	890.000000
-71.576874	778.000000
-68.928706	838.000000
-66.281280	885.000000
-63.636768	875.000000
-60.990828	833.000000
-58.349969	894.000000
-55.707681	757.000000
-53.068301	1090.000000
-50.427493	968.000000
-47.787425	1004.000000
-45.152429	1107.000000
-42.516005	1234.000000
-39.882483	1203.000000
-37.247533	1395.000000
-34.617648	1364.000000
-31.984171	1525.000000
-29.355756	1693.000000
-26.728075	1971.000000
-24.098965	2114.000000
-21.474912	2255.000000
-18.847270	2853.000000
-16.224681	4066.000000
-13.602824	5765.000000
-10.981697	9823.000000
-8.361300	25105.000000
-5.743792	63491.000000
-3.124855	63500.000000
-0.508803	63402.000000
2.106520	63421.000000
4.721116	63414.000000
7.332829	38302.000000
9.945971	6268.000000
12.554079	3727.000000
15.165769	3003.000000
17.772428	2641.000000
20.380515	2183.000000
22.987878	2130.000000
25.590216	1993.000000
28.196132	1836.000000
30.797026	1712.000000
33.399348	1607.000000
35.996653	1709.000000
38.597533	1654.000000
41.193398	1841.000000
43.790692	1630.000000
46.387266	1663.000000
48.978831	1749.000000
51.571824	1700.000000
54.161956	1684.000000
56.753516	1778.000000
59.342216	1622.000000
61.932343	1990.000000
64.517471	1890.000000
67.104027	2027.000000
69.689869	2011.000000
72.272857	2006.000000
74.857271	2043.000000
77.434557	1965.000000
80.015409	2089.000000
82.593412	2209.000000
85.170705	2339.000000
87.749424	2549.000000
90.323161	2598.000000
92.898326	2588.000000
95.470647	2784.000000
98.042260	3119.000000
100.611033	3457.000000
103.181233	4064.000000
105.748595	4614.000000
108.317382	5395.000000
110.883333	6533.000000
113.446449	8258.000000
116.013121	10874.000000
118.570572	14883.000000
121.133708	21278.000000
123.691884	30998.000000
126.253615	44499.000000
128.810389	59431.000000
131.368590	63625.000000
133.921837	63551.000000
136.474387	63463.000000
139.030487	63208.000000
141.581639	63546.000000
144.132094	63658.000000
146.681851	63669.000000
149.228789	63693.000000
151.775032	63740.000000
154.322700	63714.000000
156.869672	63695.000000
159.411709	63038.000000
161.953052	63028.000000
164.493702	63585.000000
167.035778	63353.000000
169.575042	63393.000000
172.111498	63489.000000
174.647262	63659.000000
177.184452	63330.000000
179.720951	63698.000000
182.254644	63850.000000
184.785533	63590.000000
187.315735	63705.000000
189.847361	63570.000000
192.376186	63729.000000
194.902212	63652.000000
197.427552	63149.000000
199.954318	63672.000000
202.478286	63787.000000
205.001570	63800.000000
207.524169	63792.000000
210.043975	63742.000000
212.563098	63198.000000
215.081538	63785.000000
217.601402	63720.000000
220.114265	63679.000000
222.630659	63765.000000
225.146371	63474.000000
227.657193	63048.000000
230.169440	63631.000000
232.678905	63475.000000
235.187691	63662.000000
237.695798	63661.000000
240.205330	63639.000000
242.709981	63181.000000
245.213956	63759.000000
247.719355	63841.000000
250.219879	63576.000000
252.723927	63513.000000
255.221003	63728.000000
257.721603	63813.000000
260.219431	63220.000000
262.716586	63446.000000
265.213068	63288.000000
267.704687	63684.000000
270.199826	63830.000000
272.692198	63824.000000
275.183901	63778.000000
277.672839	63776.000000
280.163202	63689.000000
282.650802	63355.000000
285.135643	63675.000000
287.623999	63787.000000
290.105415	63713.000000
292.590345	63546.000000
295.070430	63457.000000
297.554027	63781.000000
300.032781	63731.000000
302.512959	63802.000000
304.990384	63676.000000
307.467146	63418.000000
309.943245	63716.000000
312.416595	63595.000000
314.889283	63696.000000
317.361310	63788.000000
319.832676	63836.000000
322.301297	63430.000000
324.769260	63707.000000
327.238644	63334.000000
329.703206	63505.000000
332.171272	63756.000000
334.634518	63786.000000
337.097106	63699.000000
339.559038	63492.000000
342.020313	63730.000000
344.478854	63323.000000
346.938817	63717.000000
349.396047	63363.000000
351.852623	63760.000000
354.308545	63830.000000
356.761737	62647.000000
359.216352	63760.000000
361.666165	63513.000000
364.119474	63745.000000
366.567985	63789.000000
369.015844	63737.000000
371.465126	63858.000000
373.909614	63434.000000
376.355524	63660.000000
378.800784	63556.000000
381.243326	63428.000000
383.685220	63188.000000
386.126467	63391.000000
388.564998	63831.000000
391.004951	63646.000000
393.442190	63843.000000
395.876717	63858.000000
398.314732	63873.000000
400.747970	63659.000000
403.182629	63638.000000
405.612516	63623.000000
408.045888	63830.000000
410.474490	63684.000000
412.902450	63651.000000
415.331832	63821.000000
417.756448	63727.000000
420.182486	63195.000000
422.607883	63937.000000
425.032640	63499.000000
427.452639	63850.000000
429.874059	63633.000000
432.292782	63853.000000
434.712926	63728.000000
437.130375	63739.000000
439.549244	63865.000000
441.965420	63892.000000
444.376848	63632.000000
446.791754	63785.000000
449.203969	63869.000000
451.615550	63740.000000
454.026497	63876.000000
456.434758	63907.000000
458.842386	63806.000000
461.249382	63472.000000
463.655747	63892.000000
466.059429	63909.000000
468.462481	63557.000000
470.864903	63800.000000
473.266695	63560.000000
475.665810	63781.000000
478.066344	63528.000000
480.466249	63944.000000
482.861431	63276.000000
485.260080	63911.000000
487.654009	63676.000000
490.047312	63899.000000
492.439989	63120.000000
494.832041	63263.000000
497.225511	63643.000000
499.614270	63681.000000
502.000361	63523.000000
504.387873	63511.000000
506.774762	63625.000000
509.158987	63671.000000
511.544630	63884.000000
513.927612	63851.000000
516.307933	63903.000000
518.689673	63380.000000
521.068754	63339.000000
523.449254	63755.000000
525.827096	63929.000000
528.202283	63841.000000
530.576852	63630.000000
532.952839	63695.000000
535.326174	63525.000000
537.700926	63816.000000
540.070993	63710.000000
542.440444	63816.000000
544.811313	63591.000000
547.177502	63952.000000
549.545109	63756.000000
551.910070	63858.000000
554.274418	63796.000000
556.638153	63809.000000
559.003306	63664.000000
561.363787	63897.000000
563.725686	63607.000000
566.084944	63879.000000
568.441565	63740.000000
570.801630	63883.000000
573.155004	63500.000000
575.511823	63853.000000
577.866007	63883.000000
580.219583	63983.000000
582.572550	63909.000000
584.922885	63747.000000
587.274638	63788.000000
589.619714	63689.000000
591.970254	63797.000000
594.314120	63752.000000
596.663448	63901.000000
599.008127	63833.000000
601.350182	63562.000000
603.693654	63784.000000
606.034503	63822.000000
608.374750	63870.000000
610.712376	63680.000000
613.053437	63698.000000
615.389860	63946.000000
617.727700	63760.000000
620.062923	63465.000000
622.395530	63973.000000
624.729553	63639.000000
627.060962	63914.000000
629.391774	63712.000000
631.721987	63804.000000
634.051602	63960.000000
636.376595	63589.000000
638.707028	63895.000000
641.032841	63193.000000
643.356046	63874.000000
645.680668	63875.000000
648.002684	63960.000000
650.324106	63437.000000
652.642926	63600.000000
654.963161	63564.000000
657.282803	63851.000000
659.599844	63951.000000
661.916293	62818.000000
664.230144	63815.000000
666.545411	63802.000000
668.858081	63639.000000
671.172166	63877.000000
673.481651	63820.000000
675.792552	63985.000000
678.100860	63782.000000
680.408580	63437.000000
682.717714	63530.000000
685.022256	63672.000000
687.326212	64046.000000
689.629582	63653.000000
691.934366	63870.000000
694.234564	63963.000000
696.536176	63673.000000
698.837204	63733.000000
701.133649	63860.000000
703.431510	63955.000000
705.728787	63675.000000
708.025481	63826.000000
710.317599	63584.000000
712.613128	63708.000000
714.904083	63989.000000
717.196453	63833.000000
719.486248	63818.000000
721.775462	63882.000000
724.064097	63777.000000
726.350159	63822.000000
728.637636	63654.000000
730.922541	63827.000000
733.206869	63818.000000
735.488628	63780.000000
737.771801	63762.000000
740.054397	63941.000000
742.332437	63897.000000
744.611892	63699.000000
746.890771	63945.000000
749.169074	63957.000000
751.442828	63554.000000
753.717995	63758.000000
755.992589	63967.000000
758.264624	63848.000000
760.538072	63966.000000
762.808962	63871.000000
765.077296	63896.000000
767.347043	63651.000000
769.614236	63785.000000
771.880858	63703.000000
774.146910	63693.000000
776.410411	63866.000000
778.675325	63879.000000
780.939669	63638.000000
783.199484	63667.000000
785.460711	63764.000000
787.721371	63260.000000
789.979485	63685.000000
792.235054	63926.000000
794.494014	63795.000000
796.746475	63805.000000
799.004302	63680.000000
801.257611	63968.000000
803.508380	63495.000000
805.760561	63807.000000
808.010203	63308.000000
810.261258	63907.000000
812.507801	63868.000000
814.755756	63923.000000
817.001177	63695.000000
819.248009	63539.000000
821.494280	63757.000000
823.736046	63943.000000
825.981196	63891.000000
828.219873	63889.000000
830.461932	63611.000000
832.699493	63878.000000
834.938466	63595.000000
837.174912	63825.000000
839.412769	63838.000000
841.648101	64009.000000
843.880910	64017.000000
846.115130	63849.000000
848.346827	63808.000000
850.577970	64014.000000
852.808558	63690.000000
855.038592	63916.000000
857.268072	63258.000000
859.493070	63845.000000
861.721443	63403.000000
863.945337	63896.000000
866.170641	63628.000000
868.391470	63864.000000
870.615671	63961.000000
872.835399	62832.000000
875.056537	63932.000000
877.277126	63672.000000
879.495204	63145.000000
881.714692	63456.000000
883.929714	62210.000000
886.144189	62910.000000
888.358115	62926.000000
890.571495	62560.000000
892.784327	62508.000000
894.996613	62348.000000
897.206396	62235.000000
899.415634	61750.000000
901.624327	60904.000000
903.830521	61129.000000
906.038124	61804.000000
908.243229	60697.000000
910.447791	60487.000000
912.649858	60434.000000
914.853334	60676.000000
917.054316	61161.000000
919.254756	59519.000000
921.456605	59651.000000
923.652063	60597.000000
925.850880	59756.000000
928.045258	59707.000000
930.242994	59253.000000
932.436294	59050.000000
934.631003	58874.000000
936.823226	59552.000000
939.014910	58703.000000
941.206057	59354.000000
943.394721	59353.000000
945.582849	58077.000000
947.768496	59537.000000
949.957495	57282.000000
952.142071	59187.000000
954.326112	58220.000000
956.513503	57798.000000
958.692590	57330.000000
960.875028	58147.000000
963.056932	58617.000000
965.236361	59311.000000
967.413318	58103.000000
969.591683	57868.000000
971.771455	57914.000000
973.944878	58054.000000
976.121647	57392.000000
978.294009	58807.000000
980.467779	58568.000000
982.637145	57840.000000
984.809855	58117.000000
986.980100	57482.000000
989.149816	57078.000000
991.319003	57326.000000
993.483793	56912.000000
995.651924	57534.000000
997.815661	57321.000000
999.980804	57121.000000
1002.143488	56709.000000
1004.305647	57015.000000
1006.465349	56457.000000
1008.624526	56026.000000
1010.785110	56293.000000
1012.943240	56972.000000
1015.100845	54436.000000
1017.257927	54756.000000
1019.414485	55875.000000
1021.566664	56252.000000
1023.720250	56078.000000
1025.873314	55908.000000
1028.023929	55758.000000
1030.175951	55695.000000
1032.323599	56018.000000
1034.474579	55849.000000
1036.621188	56064.000000
1038.767278	55826.000000
1040.912850	54576.000000
1043.059827	54733.000000
1045.200515	54937.000000
1047.344533	54484.000000
1049.486110	54393.000000
1051.627171	55289.000000
1053.769636	54848.000000
1055.905822	55318.000000
1058.045334	55402.000000
1060.180490	55872.000000
1062.318971	55678.000000
1064.453098	55432.000000
1066.586712	55241.000000
1068.721731	54425.000000
1070.852400	54960.000000
1072.984474	54978.000000
1075.114119	54910.000000
1077.243252	54986.000000
1079.371873	54794.000000
1081.499983	54970.000000
1083.625667	54127.000000
1085.750841	53667.000000
1087.877419	54139.000000
1089.999659	54508.000000
1092.123304	54885.000000
1094.242614	54113.000000
1096.367154	53966.000000
1098.485448	54403.000000
1100.605147	53876.000000
1102.722427	54094.000000
1104.839201	53621.000000
1106.955468	54105.000000
1109.069319	53480.000000
1111.184575	52889.000000
1113.295507	53247.000000
1115.409752	53164.000000
1117.519676	53914.000000
1119.631004	53850.000000
1121.741827	53541.000000
1123.848334	52673.000000
1125.958151	54350.000000
1128.063653	54109.000000
1130.170558	53939.000000
1132.271248	53156.000000
1134.377150	52895.000000
1136.478743	51806.000000
1138.581739	53632.000000
1140.684234	53185.000000
1142.780522	53310.000000
1144.882018	53021.000000
1146.979210	53359.000000
1149.075905	52983.000000
1151.172101	52368.000000
1153.267800	53454.000000
1155.363000	52556.000000
1157.455804	53267.000000
1159.550011	52948.000000
1161.638026	52867.000000
1163.731239	53411.000000
1165.818264	53464.000000
1167.908588	51835.000000
1169.994625	52824.000000
1172.083959	53510.000000
1174.167112	52899.000000
1176.251667	52706.000000
1178.337624	53083.000000
1180.419299	52970.000000
1182.502376	53336.000000
1184.583067	52856.000000
1186.663266	52907.000000
1188.742974	52372.000000
1190.822191	52542.000000
1192.899026	52472.000000
1194.973480	52528.000000
1197.051225	52633.000000
1199.124701	52324.000000
1201.199577	52671.000000
1203.270186	52132.000000
1205.342196	52432.000000
1207.411831	51636.000000
1209.482866	52056.000000
1211.553413	53017.000000
1213.619699	52790.000000
1215.687386	51638.000000
1217.752701	52338.000000
1219.819416	52783.000000
1221.881875	52320.000000
1223.947619	51844.000000
1226.009109	52419.000000
1228.072000	52487.000000
1230.132523	52063.000000
1232.192562	50718.000000
1234.252119	52264.000000
1236.309310	51917.000000
1238.366020	52353.000000
1240.420366	51517.000000
1242.477994	51677.000000
1244.533259	51605.000000
1246.584283	52265.000000
1248.636707	51808.000000
1250.688651	51432.000000
1252.738237	51966.000000
1254.787344	50506.000000
1256.835973	51856.000000
1258.884123	51600.000000
1260.931794	51857.000000
1262.975235	50741.000000
1265.021952	51126.000000
1267.066315	51636.000000
1269.110202	51211.000000
1271.151737	51578.000000
1273.190923	51126.000000
1275.233382	51153.000000
1277.271618	52040.000000
1279.311253	51511.000000
1281.350413	50999.000000
1283.385354	51825.000000
1285.421694	50938.000000
1287.455690	50188.000000
1289.491083	50911.000000
1291.522264	51078.000000
1293.554842	50256.000000
1295.586949	50533.000000
1297.616715	50234.000000
1299.647879	51744.000000
1301.674835	50649.000000
1303.703189	50488.000000
1305.727339	51548.000000
1307.754753	50903.000000
1309.777965	50817.000000
1311.802575	50731.000000
1313.824851	51273.000000
1315.848524	50382.000000
1317.869864	50591.000000
1319.890736	51024.000000
1321.911141	50951.000000
1323.927353	50779.000000
1325.944962	49725.000000
1327.960243	49831.000000
1329.978783	49668.000000
1331.993134	50091.000000
1334.005159	49413.000000
1336.020441	49742.000000
1338.031538	48895.000000
1340.044032	49646.000000
1342.052343	50157.000000
1344.063909	48738.000000
1346.069437	49505.000000
1348.078220	48982.000000
1350.082825	49155.000000
1352.090684	48750.000000
1354.098081	49750.000000
1356.099447	47825.000000
1358.102209	49111.000000
1360.104512	48901.000000
1362.106355	48439.000000
1364.107738	49081.000000
1366.106808	48228.000000
1368.105419	49130.000000
1370.103572	48312.000000
1372.101266	48096.000000
1374.094798	47834.000000
1376.089726	47474.000000
1378.084196	47799.000000
1380.078210	47576.000000
1382.069917	47865.000000
1384.061169	47869.000000
1386.050115	47902.000000
1388.040456	47671.000000
1390.030342	47296.000000
1392.017924	47885.000000
1394.005053	47738.000000
1395.989880	47535.000000
1397.976102	47503.000000
1399.960024	47528.000000
1401.943493	47462.000000
1403.926509	47189.000000
1405.907228	47389.000000
1407.889341	47402.000000
1409.869158	46824.000000
1411.848523	47141.000000
1413.823750	47492.000000
1415.802215	47540.000000
1417.778387	46937.000000
1419.754110	47106.000000
1421.729383	47540.000000
1423.702365	47190.000000
1425.674899	46890.000000
1427.646985	46672.000000
1429.618624	47323.000000
1431.586134	46772.000000
1433.558718	47248.000000
1435.523497	46861.000000
1437.493347	46656.000000
1439.459074	47473.000000
1441.426193	47289.000000
1443.391029	46628.000000
1445.351745	46688.000000
1447.317529	47060.000000
1449.277358	47024.000000
1451.238581	46958.000000
1453.201196	46192.000000
1455.159696	46732.000000
1457.117753	47551.000000
1459.075369	48210.000000
1461.032542	47389.000000
1462.987440	47494.000000
1464.943731	47559.000000
1466.897747	47463.000000
1468.851322	47225.000000
1470.802625	47858.000000
1472.755321	47998.000000
1474.705745	46714.000000
1476.655729	48117.000000
1478.605275	47934.000000
1480.552552	47421.000000
1482.497561	47667.000000
1484.443963	48117.000000
1486.389927	47944.000000
1488.335454	48640.000000
1490.278715	47541.000000
1492.221541	48341.000000
1494.162103	48148.000000
1496.104056	48397.000000
1498.043747	48752.000000
1499.983004	47908.000000
1501.921825	48466.000000
1503.858387	48202.000000
1505.796340	48117.000000
1507.732034	49118.000000
1509.667295	49130.000000
1511.600300	48472.000000
1513.532872	48769.000000
1515.465012	49728.000000
1517.396720	49193.000000
1519.326174	50038.000000
1521.257019	49490.000000
1523.187432	49820.000000
1525.113773	49652.000000
1527.041505	50044.000000
1528.966986	50131.000000
1530.892038	50666.000000
1532.816661	51200.000000
1534.740855	50526.000000
1536.662801	51718.000000
1538.586138	50993.000000
1540.507228	50855.000000
1542.426075	52157.000000
1544.346310	52585.000000
1546.264303	51753.000000
1548.181869	52911.000000
1550.097193	53419.000000
1552.013907	53254.000000
1553.926566	53740.000000
1555.842429	52309.000000
1557.756052	54649.000000
1559.667438	54159.000000
1561.580212	54370.000000
1563.488937	54692.000000
1565.399051	54964.000000
1567.308742	55010.000000
1569.218010	56425.000000
1571.125044	56545.000000
1573.029845	56675.000000
1574.936035	57142.000000
1576.839993	57216.000000
1578.743530	57840.000000
1580.646647	57760.000000
1582.547534	58291.000000
1584.449810	59194.000000
1586.349858	59842.000000
1588.251293	60141.000000
1590.148695	60096.000000
1592.045678	60121.000000
1593.942243	60361.000000
1595.840196	61414.000000
1597.732314	62762.000000
1599.627625	62132.000000
1601.522519	63177.000000
1603.415191	61642.000000
1605.307446	63685.000000
1607.197482	63342.000000
1609.087102	63901.000000
1610.976307	63866.000000
1612.865097	64045.000000
1614.751669	64166.000000
1616.639629	63801.000000
1618.523572	64210.000000
1620.408902	63817.000000
1622.293819	64120.000000
1624.176522	64067.000000
1626.060612	64054.000000
1627.940691	64055.000000
1629.822156	64152.000000
1631.701411	64084.000000
1633.582052	63903.000000
1635.456889	64137.000000
1637.336707	64071.000000
1639.212521	64208.000000
1641.087924	63913.000000
1642.964713	63865.000000
1644.835706	63542.000000
1646.709880	64041.000000
1648.580056	63943.000000
1650.453412	63978.000000
1652.324565	63850.000000
1654.193516	63733.000000
1656.063852	63882.000000
1657.930196	64057.000000
1659.797925	63774.000000
1661.663455	63913.000000
1663.530371	63988.000000
1665.393298	64147.000000
1667.257610	63485.000000
1669.119726	62725.000000
1670.981437	62733.000000
1672.844534	62495.000000
1674.705435	62233.000000
1676.564144	60647.000000
1678.422449	60010.000000
1680.282139	59837.000000
1682.136061	59475.000000
1683.993157	58862.000000
1685.849850	58695.000000
1687.702566	56989.000000
1689.558454	57018.000000
1691.410368	56101.000000
1693.261881	56164.000000
1695.112993	54207.000000
1696.963705	53694.000000
1698.814016	53215.000000
1700.662142	52268.000000
1702.511653	51678.000000
1704.355415	50555.000000
1706.204126	49679.000000
1708.047091	48739.000000
1709.893223	47820.000000
1711.735392	47187.000000
1713.580727	46672.000000
1715.420321	44721.000000
1717.261299	44662.000000
1719.103660	44100.000000
1720.942065	42496.000000
1722.781853	42713.000000
1724.619466	42090.000000
1726.456683	41491.000000
1728.291727	40848.000000
1730.128154	40373.000000
1731.962409	39768.000000
1733.796269	38888.000000
1735.629735	38571.000000
1737.459256	38146.000000
1739.291935	36621.000000
1741.120670	37022.000000
1742.952562	36276.000000
1744.780512	36293.000000
1746.608071	35057.000000
1748.435237	35230.000000
1750.262012	34863.000000
1752.088395	34769.000000
1753.910842	34413.000000
1755.736444	33576.000000
1757.558111	33861.000000
1759.381160	33525.000000
1761.202047	32769.000000
1763.022546	32734.000000
1764.844426	32670.000000
1766.660606	31860.000000
1768.479938	31759.000000
1770.295343	31586.000000
1772.113898	31413.000000
1773.928528	30665.000000
1775.742771	31062.000000
1777.556628	30553.000000
1779.370098	30987.000000
1781.181415	29984.000000
1782.994112	29984.000000
1784.806424	30325.000000
1786.614818	29509.000000
1788.424592	30293.000000
1790.230452	29390.000000
1792.039457	29537.000000
1793.844549	29369.000000
1795.651022	28998.000000
1797.457111	28908.000000
1799.259289	28923.000000
1801.064612	28955.000000
1802.866026	28430.000000
1804.668820	28683.000000
1806.467708	28536.000000
1808.267977	27695.000000
1810.067864	28113.000000
1811.865609	27655.000000
1813.662974	27917.000000
1815.459959	27588.000000
1817.256563	27951.000000
1819.051028	27436.000000
1820.846872	27295.000000
1822.637061	27399.000000
1824.432147	27545.000000
1826.221581	27175.000000
1828.014151	26974.000000
1829.804586	27015.000000
1831.592887	27191.000000
1833.384323	26506.000000
1835.170113	26557.000000
1836.957283	26629.000000
1838.742321	26857.000000
1840.530493	26707.000000
1842.314779	26831.000000
1844.096935	26372.000000
1845.880471	26470.000000
1847.661878	26379.000000
1849.444664	26155.000000
1851.223569	26509.000000
1853.003854	26315.000000
1854.782012	26205.000000
1856.561549	26055.000000
1858.338961	26233.000000
1860.114249	26132.000000
1861.890915	25914.000000
1863.665459	26044.000000
1865.441381	25724.000000
1867.211682	26180.000000
1868.985111	25562.000000
1870.756420	26437.000000
1872.527358	25842.000000
1874.299674	25799.000000
1876.066376	26162.000000
1877.836204	25676.000000
1879.602168	25838.000000
1881.371255	26215.000000
1883.136481	25883.000000
1884.901339	26100.000000
1886.667574	25834.000000
1888.429950	25808.000000
1890.191959	25605.000000
1891.953600	25751.000000
1893.714875	25906.000000
1895.475782	25805.000000
1897.236323	25714.000000
1898.994754	25988.000000
1900.752819	25873.000000
1902.508777	25624.000000
1904.266111	25782.000000
1906.023080	25811.000000
1907.777942	25942.000000
1909.530700	25550.000000
1911.283093	25662.000000
1913.036863	25958.000000
1914.788529	26027.000000
1916.538093	26025.000000
1918.289032	25601.000000
1920.039609	25782.000000
1921.786346	26277.000000
1923.534460	26191.000000
1925.280474	26275.000000
1927.027863	26426.000000
1928.773155	25851.000000
1930.516349	26340.000000
1932.260918	26064.000000
1934.003392	26081.000000
1935.745505	26495.000000
1937.487258	26653.000000
1939.228652	26404.000000
1940.967951	26959.000000
1942.706892	26388.000000
1944.445474	26751.000000
1946.181965	26594.000000
1947.918098	26843.500000
1949.655605	27093.000000
1951.389290	27267.000000
1953.124350	26671.000000
1954.857321	26814.000000
1956.589936	27181.000000
1958.322195	26916.000000
1960.054097	27366.000000
1961.783913	27539.000000
1963.511644	27867.000000
1965.240750	27546.000000
1966.969501	27786.000000
1968.696168	28038.000000
1970.422481	28018.000000
1972.150167	28025.000000
1973.872317	28201.000000
1975.597568	27654.000000
1977.319012	28013.000000
1979.043557	28631.000000
1980.766021	28957.000000
1982.484683	28896.000000
1984.206443	29029.000000
1985.924401	28688.000000
1987.643732	28710.000000
1989.359264	29200.000000
1991.079616	29224.000000
1992.796170	29282.000000
1994.508927	29574.000000
1996.224780	29890.000000
1997.938561	29352.000000
1999.651992	29619.000000
2001.363352	29589.000000
2003.076084	30219.000000
2004.785026	30255.000000
2006.497060	30096.000000
2008.203586	29998.000000
2009.913203	30210.000000
2011.620754	30013.000000
2013.327956	30595.000000
2015.033093	30628.000000
2016.737884	30675.000000
2018.444046	31005.000000
2020.146426	30732.000000
2021.850177	31266.000000
2023.551866	30864.000000
2025.253210	31144.000000
2026.954208	31120.000000
2028.653145	31242.000000
2030.353454	31457.000000
2032.049988	31166.000000
2033.747893	31817.000000
2035.443739	31562.000000
2037.142671	32142.000000
2038.836117	32193.000000
2040.530934	31666.000000
2042.225409	32326.000000
2043.916115	32168.000000
2045.609905	32587.000000
2047.299928	32808.000000
2048.991322	32167.000000
2050.680663	32510.000000
2052.371374	32338.000000
2054.058322	32327.000000
2055.744931	32578.000000
2057.432909	32595.000000
2059.117128	32353.000000
2060.802718	32484.000000
2062.487968	32854.000000
2064.171170	32479.000000
2065.855741	32856.000000
2067.534850	32416.000000
2069.218744	32662.000000
2070.897177	32360.000000
2072.578688	32737.000000
2074.256447	32723.000000
2075.933870	32750.000000
2077.612662	32777.000000
2079.289412	32990.000000
2080.964120	32604.000000
2082.640197	32823.000000
2084.314234	33077.000000
2085.987935	32745.000000
2087.661301	32488.000000
2089.332628	32868.000000
2091.003622	33495.000000
2092.674280	32946.000000
2094.344605	33056.000000
2096.014596	33402.000000
2097.682551	33361.000000
2099.350173	32967.000000
2101.015760	32987.000000
2102.682716	33894.000000
2104.347639	33635.000000
2106.012230	33423.000000
2107.674789	33419.000000
2109.338716	34195.000000
2111.000612	33564.000000
2112.662178	33832.000000
2114.323412	34295.000000
2115.982618	34005.000000
2117.641493	33659.000000
2119.300039	33530.000000
2120.958255	33872.000000
2122.612747	33539.000000
2124.270304	33094.000000
2125.927532	33465.000000
2127.581038	33381.000000
2129.235912	33518.000000
2130.887067	33165.000000
2132.541285	33195.000000
2134.191786	33324.000000
2135.843653	33669.000000
2137.490112	32388.000000
2139.141326	33109.000000
2140.788826	33227.000000
2142.437693	32710.000000
2144.084541	33110.000000
2145.731064	33468.000000
2147.377261	32906.000000
2149.019750	32937.000000
2150.665297	32445.000000
2152.307137	32495.000000
2153.952034	32630.000000
2155.593226	32343.000000
2157.234094	32544.000000
2158.874638	32268.000000
2160.513170	32165.000000
2162.153068	31991.000000
2163.789266	31967.000000
2165.426830	31640.000000
2167.064072	31045.000000
2168.699304	31488.000000
2170.334215	30965.000000
2171.968804	31132.000000
2173.603071	31054.000000
2175.233645	31083.000000
2176.867271	31075.000000
2178.497205	30314.000000
2180.128504	30926.000000
2181.757798	31281.000000
2183.386773	30871.000000
2185.015428	30217.000000
2186.643764	30280.000000
2188.270098	30415.000000
2189.896113	29998.000000
2191.520126	29956.000000
2193.145505	29962.000000
2194.768883	29598.000000
2196.393626	30137.000000
2198.014688	29649.000000
2199.635433	29778.000000
2201.257543	28751.000000
2202.877655	29399.000000
2204.495770	29417.000000
2206.113570	29432.000000
2207.731055	28517.000000
2209.348224	28397.000000
2210.965078	28628.000000
2212.581616	28590.000000
2214.196162	28822.000000
2215.808715	28516.000000
2217.422632	28160.000000
2219.034558	28084.000000
2220.647847	28069.000000
2222.259146	28208.000000
2223.868455	27514.000000
2225.479128	27678.000000
2227.087812	27896.000000
2228.696183	27528.000000
2230.302568	27234.000000
2231.910316	27254.000000
2233.516077	27193.000000
2235.121527	27169.000000
2236.724992	27096.000000
2238.329820	26835.000000
2239.932664	26705.000000
2241.533525	26682.000000
2243.135749	26342.000000
2244.735991	26499.000000
2246.337595	26276.000000
2247.935547	26426.000000
2249.534860	26083.000000
2251.132194	26155.000000
2252.729220	25998.000000
2254.327608	26011.000000
2255.922347	26075.000000
2257.515109	25855.000000
2259.109234	25598.000000
2260.704720	25662.000000
2262.296561	25358.000000
2263.888096	25205.000000
2265.480993	24368.000000
2267.068580	24645.000000
2268.660863	25175.000000
2270.247840	25146.000000
2271.837844	24928.000000
2273.422544	24609.000000
2275.011938	24560.000000
2276.596030	24357.000000
2278.181483	24017.000000
2279.764966	24039.000000
2281.351475	24000.000000
2282.934351	23841.000000
2284.516924	23596.000000
2286.099193	23878.000000
2287.677832	23464.000000
2289.259496	23401.000000
2290.837531	23232.000000
2292.418589	23264.000000
2293.996020	23016.000000
2295.571488	22768.000000
2297.149978	22443.000000
2298.724844	22930.000000
2300.299409	22542.000000
2301.873674	22288.000000
2303.447638	22648.000000
2305.021301	22279.000000
2306.594665	21857.000000
2308.164410	22257.000000
2309.733856	22138.000000
2311.306320	22050.000000
2312.873510	21952.000000
2314.443718	21802.000000
2316.010311	21565.000000
2317.578264	21961.000000
2319.144261	22083.000000
2320.709961	21675.000000
2322.275363	22023.000000
2323.838812	21722.000000
2325.403620	22106.000000
2326.964820	23021.000000
2328.529034	22836.000000
2330.087986	23249.000000
2331.649953	22073.000000
2333.209968	21674.000000
2334.769689	21618.000000
2336.327460	21354.000000
2337.884936	20990.000000
2339.442118	21190.000000
2340.997352	21055.000000
2342.552293	20966.000000
2344.106939	20849.000000
2345.661292	21034.000000
2347.215352	21051.000000
2348.769117	20933.000000
2350.320939	20737.000000
2351.870817	20802.000000
2353.423703	20415.000000
2354.971347	20071.000000
2356.521998	20268.000000
2358.069058	20332.000000
2359.617476	19775.000000
2361.165603	20257.000000
2362.710141	19932.000000
2364.256037	20032.000000
2365.799995	19872.000000
2367.345310	20007.000000
2368.887040	19719.000000
2370.430127	20042.000000
2371.971278	19472.000000
2373.512140	19559.000000
2375.052713	19511.000000
2376.592997	19515.000000
2378.132992	19757.000000
2379.669409	19364.000000
2381.208827	19379.000000
2382.744668	19525.000000
2384.281865	19073.000000
2385.815487	19416.000000
2387.352109	18812.000000
2388.886801	19127.000000
2390.419563	18680.000000
2391.952038	19118.000000
2393.482585	19006.000000
2395.016130	19310.000000
2396.544464	19046.000000
2398.074155	19154.000000
2399.603559	19243.000000
2401.132679	18738.000000
2402.661514	18633.000000
2404.185143	18683.000000
2405.713408	18249.000000
2407.236471	18705.000000
2408.764167	18615.000000
2410.285024	18338.000000
2411.810514	18686.000000
2413.332443	18326.000000
2414.855728	18378.000000
2416.377091	18105.000000
2417.896535	18319.000000
2419.417335	18282.000000
2420.936215	18427.000000
2422.454813	18295.000000
2423.971494	17612.000000
2425.489529	18075.000000
2427.007283	17975.000000
2428.521486	18317.000000
2430.035408	17640.000000
2431.549050	18409.000000
2433.064047	17795.000000
2434.575495	17873.000000
2436.088298	17929.000000
2437.599187	17659.000000
2439.109798	17545.000000
2440.618497	17877.000000
2442.130182	17720.000000
2443.638324	17350.000000
2445.146188	17599.000000
2446.653774	17408.000000
2448.157819	17444.000000
2449.664849	17444.000000
2451.169972	17411.000000
2452.674816	17411.000000
2454.177754	17264.000000
2455.680416	17129.000000
2457.182801	17040.000000
2458.683281	16979.000000
2460.185114	16918.000000
2461.685042	16912.000000
2463.184695	16895.000000
2464.684073	16873.000000
2466.181548	16464.000000
2467.677121	16930.000000
2469.175674	16610.000000
2470.670699	16603.000000
2472.167076	16620.000000
2473.659927	16619.000000
2475.154131	16417.000000
2476.648061	16386.000000
2478.138467	16582.000000
2479.631851	16409.000000
2481.123337	16420.000000
2482.612926	16298.000000
2484.102243	16273.000000
2485.589664	16374.000000
2487.080061	16418.000000
2488.566940	16341.000000
2490.055170	16661.000000
2491.539884	16388.000000
2493.024327	16285.000000
2494.510121	16425.000000
2495.994024	15988.000000
2497.479277	15944.000000
2498.959397	16448.000000
2500.442490	16316.000000
2501.923692	15847.000000
2503.404625	16250.000000
2504.883669	16676.000000
2506.362444	15812.000000
2507.840951	16124.000000
2509.319190	16141.000000
2510.797160	16003.000000
2512.271625	16163.000000
2513.749060	15928.000000
2515.222991	16123.000000
2516.698272	16112.000000
2518.173286	16003.000000
2519.644800	15822.000000
2521.117663	16109.000000
2522.588644	15873.000000
2524.060975	15985.000000
2525.528192	15994.000000
2526.998376	15855.000000
2528.466679	16026.000000
2529.934717	16120.000000
2531.402490	15969.000000
2532.869998	15935.000000
2534.337241	15781.000000
2535.800992	15983.000000
2537.266093	15746.000000
2538.729317	15762.000000
2540.193891	15954.000000
2541.654975	15722.000000
2543.117409	15777.000000
2544.579580	15874.000000
2546.038265	15857.000000
2547.501522	16183.000000
2548.959682	15781.000000
2550.419191	15842.000000
2551.873606	15643.000000
2553.332592	15954.000000
2554.789706	15778.000000
2556.244949	15744.000000
2557.699931	15549.000000
2559.153043	15611.000000
2560.607504	15723.000000
2562.060095	15639.000000
2563.512427	15650.000000
2564.962892	15438.000000
2566.416312	15839.000000
2567.864650	15615.000000
2569.315944	15411.000000
2570.765371	15482.000000
2572.211326	15363.000000
2573.660236	15507.000000
2575.105676	15125.000000
2576.552463	15437.000000
2577.997388	15529.000000
2579.442054	15523.000000
2580.888068	15321.000000
2582.330616	15414.000000
2583.774511	15226.000000
2585.214941	15218.000000
2586.656718	15256.000000
2588.096636	15058.000000
2589.537901	15265.000000
2590.975704	15288.000000
2592.416457	15229.000000
2593.852148	15617.000000
2595.290788	15209.000000
2596.727570	15340.000000
2598.162497	15034.000000
2599.600371	15166.000000
2601.033188	15303.000000
2602.467352	15228.000000
2603.899662	15266.000000
2605.333318	15311.000000
2606.765121	15057.000000
2608.196670	15485.000000
2609.627967	15354.000000
2611.057411	15393.000000
2612.486603	15176.000000
2613.913945	15034.000000
2615.342632	15335.000000
2616.771068	15306.000000
2618.196056	15206.000000
2619.622391	15149.000000
2621.046877	14989.000000
2622.472709	15241.000000
2623.895097	15193.000000
2625.318831	15119.000000
2626.740718	14939.000000
2628.162356	15180.000000
2629.582148	15059.000000
2631.003286	15106.000000
2632.424174	15129.000000
2633.841624	15045.000000
2635.262013	14974.000000
2636.678965	14871.000000
2638.095668	15063.000000
2639.512123	15208.000000
2640.928330	15171.000000
2642.344289	15161.000000
2643.758407	15195.000000
2645.172277	14849.000000
2646.584309	15080.000000
2647.997684	14943.000000
2649.407630	15292.000000
2650.820512	15561.000000
2652.229965	15657.000000
2653.639172	15100.000000
2655.046543	15314.000000
2656.456848	15551.000000
2657.865318	15244.000000
2659.271952	15304.000000
2660.678341	15476.000000
2662.082896	15252.000000
2663.488795	15379.000000
2664.892861	15307.000000
2666.296682	15634.000000
2667.700259	15325.000000
2669.102005	15562.000000
2670.505094	15893.000000
2671.904765	15702.000000
2673.305780	15423.000000
2674.703379	15537.000000
2676.103908	15577.000000
2677.501021	15919.000000
2678.899479	15591.000000
2680.296108	15931.000000
2681.692495	15500.000000
2683.088640	15720.000000
2684.482960	15791.000000
2685.878621	15767.000000
2687.270874	15777.000000
2688.664469	16074.000000
2690.056240	15747.000000
2691.449354	15775.000000
2692.840644	15877.000000
2694.230111	15809.000000
2695.619338	15682.000000
2697.008326	15834.000000
2698.398655	15713.000000
2699.784001	15849.000000
2701.172270	16044.000000
2702.558719	16199.000000
2703.944929	15940.000000
2705.330900	16158.000000
2706.713473	16262.000000
2708.097388	16034.000000
2709.481065	16257.000000
2710.864503	16344.000000
2712.244547	16506.000000
2713.625931	16611.000000
2715.005501	16667.000000
2716.386411	16645.000000
2717.765507	16660.000000
2719.142789	16801.000000
2720.521412	16669.000000
2721.898222	16802.000000
2723.274795	16902.000000
2724.651133	17002.000000
2726.025660	16916.000000
2727.401527	16905.000000
2728.774007	16953.000000
2730.149403	17129.000000
2731.519839	17329.000000
2732.891616	17266.000000
2734.263158	17196.000000
2735.632892	17152.000000
2737.003967	17500.000000
2738.373233	17538.000000
2739.742266	17658.000000
2741.109493	17658.000000
2742.476487	17595.000000
2743.843247	18030.000000
2745.209776	17596.000000
2746.574499	17989.000000
2747.938990	18194.000000
2749.303250	18362.000000
2750.667277	18215.000000
2752.031073	18430.000000
2753.391495	18298.000000
2754.754827	18123.000000
2756.113217	18547.000000
2757.474517	18581.000000
2758.832447	18786.000000
2760.193285	18595.000000
2761.552324	18463.000000
2762.907994	18671.000000
2764.266572	18780.000000
2765.621783	18953.000000
2766.976765	18811.000000
2768.329951	19246.000000
2769.686043	19391.000000
2771.038770	19754.000000
2772.391270	19468.000000
2773.743541	19636.000000
2775.097151	19697.000000
2776.447399	19648.000000
2777.795853	19981.000000
2779.147213	19728.000000
2780.495213	19909.000000
2781.844551	20320.000000
2783.192098	20365.000000
2784.539417	20272.000000
2785.886510	20454.000000
2787.231812	20385.000000
2788.576887	20312.000000
2789.921737	20564.000000
2791.266361	20767.000000
2792.607633	20511.000000
2793.950243	20966.000000
2795.292627	21314.000000
2796.634786	21237.000000
2797.973597	21276.000000
2799.315306	21763.000000
2800.653668	21557.000000
2801.993366	21915.000000
2803.331280	21969.000000
2804.667409	22262.000000
2806.003314	22100.000000
2807.340557	22526.000000
2808.676016	22715.000000
2810.011252	22996.000000
2811.344705	22787.000000
2812.679495	22944.000000
2814.010945	23383.000000
2815.345290	23841.000000
2816.674737	23350.000000
2818.005521	24341.000000
2819.336083	24032.000000
2820.664866	24293.000000
2821.994985	24349.000000
2823.323326	24553.000000
2824.651446	24929.000000
2825.977788	25013.000000
2827.305467	25280.000000
2828.629812	25362.000000
2829.955494	25064.000000
2831.279400	25574.000000
2832.603087	25640.000000
2833.928109	25978.000000
2835.249801	26205.000000
2836.571275	26590.000000
2837.892530	26259.000000
2839.213566	26917.000000
2840.532829	27223.000000
2841.853428	27770.000000
2843.172256	27597.000000
2844.490865	27921.000000
2845.807703	28002.000000
2847.124324	27685.000000
2848.440728	28439.000000
2849.755362	28706.000000
2851.071332	28828.000000
2852.383981	29682.000000
2853.697965	29732.000000
2855.011733	30045.000000
2856.325285	29803.000000
2857.637069	30590.000000
2858.947087	30447.000000
2860.258440	31003.000000
2861.566478	31248.000000
2862.875850	31655.000000
2864.185008	32125.000000
2865.493950	32499.000000
2866.801128	32831.000000
2868.106544	32431.000000
2869.413294	33271.000000
2870.718281	34100.000000
2872.023055	34012.000000
2873.326067	34573.000000
2874.631960	34678.000000
2875.932999	35469.000000
2877.235372	35432.000000
2878.535985	36649.000000
2879.837932	36291.000000
2881.139666	35880.000000
2882.438095	36990.000000
2883.737858	36940.000000
2885.035864	37611.000000
2886.333658	37889.000000
2887.629696	38940.000000
2888.927067	39251.000000
2890.222682	38828.000000
2891.518086	39211.000000
2892.813279	40142.000000
2894.105175	40682.000000
2895.399947	40686.000000
2896.691422	40855.000000
2897.984230	42012.000000
2899.276828	41494.000000
2900.566132	42137.000000
2901.856768	42627.000000
2903.145653	42604.000000
2904.435870	43778.000000
2905.722796	43953.000000
2907.011054	44642.000000
2908.297563	44524.000000
2909.583864	44773.000000
2910.869956	46635.000000
2912.154300	46094.000000
2913.441515	46065.000000
2914.723904	47002.000000
2916.007625	47032.000000
2917.289600	48827.000000
2918.571367	47761.000000
2919.851390	48788.000000
2921.134282	49727.000000
2922.415429	48555.000000
2923.693294	50157.000000
2924.974028	50892.000000
2926.251481	51154.000000
2927.528728	51869.000000
2928.804233	50788.000000
2930.082606	52604.000000
2931.356165	51434.000000
2932.632591	52986.000000
2933.907276	53594.000000
2935.180220	54187.000000
2936.454496	55028.000000
2937.727032	56329.000000
2938.999363	54851.000000
2940.268422	55921.000000
2941.540346	56616.000000
2942.810532	56280.000000
2944.080514	57084.000000
2945.350293	56815.000000
2946.618336	57705.000000
2947.884642	58235.000000
2949.150747	59306.000000
2950.418181	59227.000000
2951.683881	60635.000000
2952.949378	56642.000000
2954.214673	60343.000000
2955.476703	59953.000000
2956.740063	61300.000000
2958.003222	60989.000000
2959.264649	61765.000000
2960.527405	62547.000000
2961.788429	61680.000000
2963.047723	63506.000000
2964.306817	63574.000000
2965.565710	62778.000000
2966.824403	63734.000000
2968.082896	63858.000000
2969.339660	63881.000000
2970.596224	63808.000000
2971.851061	63320.000000
2973.107226	63912.000000
2974.360137	63301.000000
2975.614377	64028.000000
2976.868418	63656.000000
2978.120733	63671.000000
2979.372849	63966.000000
2980.623241	63798.000000
2981.876488	63362.000000
2983.124958	63841.000000
2984.376283	63503.000000
2985.624358	63888.000000
2986.872237	63819.000000
2988.119918	63680.000000
2989.367402	63600.000000
2990.613165	63377.000000
2991.858732	63744.000000
2993.105626	63973.000000
2994.349276	63350.000000
2995.594254	63907.000000
2996.835988	63868.000000
2998.080574	63921.000000
2999.323441	63720.000000
3000.563067	63888.000000
3001.805543	63871.000000
3003.044779	63819.000000
3004.285343	63814.000000
3005.524191	63047.000000
3006.762843	63912.000000
3007.999781	63949.000000
3009.238045	63777.000000
3010.474594	64012.000000
3011.710950	63267.000000
3012.947112	63925.000000
3014.181560	63946.000000
3015.415816	63702.000000
3016.649878	63814.000000
3017.882228	63783.000000
3019.112866	63958.000000
3020.346350	63826.000000
3021.578122	63923.000000
3022.808184	63952.000000
3024.038054	63829.000000
3025.266214	63852.000000
3026.495700	63423.000000
3027.723477	63955.000000
3028.951064	63626.000000
3030.179976	63752.000000
3031.404146	63840.000000
3032.631159	63401.000000
3033.854948	64051.000000
3035.080064	63672.000000
3036.303473	63914.000000
3037.526692	63539.000000
3038.748206	63754.000000
3039.972561	63721.000000
3041.192181	63848.000000
3042.413127	63836.000000
3043.633884	63751.000000
3044.852937	63910.000000
3046.073316	63306.000000
3047.290477	63655.000000
3048.508965	63672.000000
3049.725750	63945.000000
3050.942348	63789.000000
3052.158757	63934.000000
3053.371954	63877.000000
3054.587988	63887.000000
3055.800810	63880.000000
3057.016469	64050.000000
3058.227405	63743.000000
3059.439666	63580.000000
3060.651741	63741.000000
3061.863628	63575.000000
3063.073819	63951.000000
3064.283823	63997.000000
3065.493641	63864.000000
3066.701763	64020.000000
3067.909700	64031.000000
3069.115941	63881.000000
3070.323507	63850.000000
3071.529378	63779.000000
3072.735065	63708.000000
3073.940566	63929.000000
3075.144374	63860.000000
3076.349506	64008.000000
3077.552946	64022.000000
3078.754693	63513.000000
3079.956256	63972.000000
3081.157636	63671.000000
3082.358832	63932.000000
3083.558338	63790.000000
3084.757661	63704.000000
3085.958307	63903.000000
3087.157263	63537.000000
3088.353025	63869.000000
3089.551616	63777.000000
3090.747013	62985.000000
3091.943733	63887.000000
3093.137261	63966.000000
3094.333617	64046.000000
3095.528287	63650.000000
3096.719766	63764.000000
3097.915576	63979.000000
3099.106693	64005.000000
3100.299132	63628.000000
3101.488384	63809.000000
3102.680461	63591.000000
3103.870855	63691.000000
3105.058063	63990.000000
3106.246594	63986.000000
3107.436446	63858.000000
3108.623115	63997.000000
3109.809604	63313.000000
3110.995913	63887.000000
3112.183544	64064.000000
3113.367993	63897.000000
3114.550763	63934.000000
3115.736355	62710.000000
3116.920268	63981.000000
3118.102502	64014.000000
3119.284557	63962.000000
3120.466434	63791.000000
3121.648133	63924.000000
3122.828155	63872.000000
3124.006500	63890.000000
3125.187665	63929.000000
3126.365656	63715.000000
3127.543469	63882.000000
3128.721105	63991.000000
3129.897066	63801.000000
3131.072850	63894.000000
3132.249956	63325.000000
3133.425387	63980.000000
3134.599145	63549.000000
3135.771230	63788.000000
3136.944637	63811.000000
3138.117867	63900.000000
3139.289426	63844.000000
3140.462305	63680.000000
3141.632017	63616.000000
3142.803050	63609.000000
3143.972413	63958.000000
3145.140105	63999.000000
3146.310614	63482.000000
3147.476463	64013.000000
3148.646621	63924.000000
3149.812123	63628.000000
3150.977450	63967.000000
3152.142605	63908.000000
3153.307585	63670.000000
3154.473885	63943.000000
3155.635533	63954.000000
3156.798500	63491.000000
3157.961295	63870.000000
3159.123917	63856.000000
3160.284874	63237.000000
3161.445658	63988.000000
3162.606270	63817.000000
3163.765218	63928.000000
3164.923995	63950.000000
3166.082600	63446.000000
3167.241033	63922.000000
3168.399294	63814.000000
3169.555893	63888.000000
3170.710831	63788.000000
3171.867088	63923.000000
3173.021684	63836.000000
3174.176110	63843.000000
3175.328876	63857.000000
3176.481472	63778.000000
3177.633897	63847.000000
3178.786153	63576.000000
3179.938238	63957.000000
3181.087178	63604.000000
3182.238924	63946.000000
3183.389012	63561.000000
3184.537444	63725.000000
3185.685706	63934.000000
3186.833800	63921.000000
3187.981725	63883.000000
3189.127994	63504.000000
3190.274096	63976.000000
3191.418542	63902.000000
3192.562821	63972.000000
3193.706932	63739.000000
3194.852360	63888.000000
3195.994650	63773.000000
3197.136773	63683.000000
3198.278728	63715.000000
3199.420516	63777.000000
3200.562137	63927.000000
3201.700623	63684.000000
3202.840426	63917.000000
3203.981547	63677.000000
3205.119533	63740.000000
3206.255870	63451.000000
3207.392041	63653.000000
3208.529529	63560.000000
3209.665369	63814.000000
3210.802526	63430.000000
3211.935070	63773.000000
3213.071896	63898.000000
3214.204110	63665.000000
3215.337641	63945.000000
3216.471008	63844.000000
3217.601247	63850.000000
3218.734284	63908.000000
3219.864195	63196.000000
3220.995422	63294.000000
3222.123525	63228.000000
3223.254424	63960.000000
3224.383679	63920.000000
3225.511291	63753.000000
3226.635780	63415.000000
3227.764545	63717.000000
3228.890188	63610.000000
3230.015669	63675.000000
3231.139508	63666.000000
3232.266141	63909.000000
3233.388177	63830.000000
3234.511529	63788.000000
3235.634719	63419.000000
3236.757747	63534.000000
3237.879135	63922.000000
3239.000361	63920.000000
3240.119950	63916.000000
3241.239377	63905.000000
3242.357166	63799.000000
3243.477747	63748.000000
3244.595215	63594.000000
3245.712522	63839.000000
3246.829669	62882.000000
3247.945180	63863.000000
3249.062005	63948.000000
3250.175721	63682.000000
3251.292226	63545.000000
3252.407097	63526.000000
3253.518859	63787.000000
3254.630461	63845.000000
3255.743379	63679.000000
3256.856137	63932.000000
3257.965789	63657.000000
3259.076756	63821.000000
3260.187564	63862.000000
3261.296740	63831.000000
3262.404286	62924.000000
3263.513145	63778.000000
3264.621847	63844.000000
3265.727446	63880.000000
3266.834359	63145.000000
3267.939643	61607.000000
3269.046241	63455.000000
3270.149739	63877.000000
3271.254552	63600.000000
3272.359207	63926.000000
3273.460763	63243.000000
3274.562163	63667.000000
3275.664878	63806.000000
3276.767435	63845.000000
3277.866896	63731.000000
3278.969141	63517.000000
3280.068290	63679.000000
3281.165815	63306.000000
3282.263184	63592.000000
3283.363335	63831.000000
3284.460394	63712.000000
3285.557297	63847.000000
3286.654045	63485.000000
3287.746235	63915.000000
3288.842673	63727.000000
3289.937489	63363.000000
3291.032151	63749.000000
3292.125191	63508.000000
3293.218077	63873.000000
3294.309342	63921.000000
3295.401919	63939.000000
3296.492877	63576.000000
3297.582215	63330.000000
3298.671400	63820.000000
3299.761898	63882.000000
3300.849311	63351.000000
3301.936571	63912.000000
3303.025144	63820.000000
3304.113565	63986.000000
3305.197438	63856.000000
3306.285553	63837.000000
3307.370587	63985.000000
3308.454004	63664.000000
3309.538734	63684.000000
3310.621849	63786.000000
3311.706275	63888.000000
3312.787623	63804.000000
3313.870283	63935.000000
3314.951329	63690.000000
3316.032224	63934.000000
3317.111505	63926.000000
3318.190636	63921.000000
3319.271079	63877.000000
3320.348447	63756.000000
3321.427127	63991.000000
3322.504195	63938.000000
3323.581114	63984.000000
3324.656421	63882.000000
3325.731579	63942.000000
3326.808048	64069.000000
3327.881447	63953.000000
3328.954697	63895.000000
3330.029257	63967.000000
3331.102209	64072.000000
3332.173552	64002.000000
3333.246206	63936.000000
3334.315794	63855.000000
3335.386692	63911.000000
3336.455983	63626.000000
3337.526585	63806.000000
3338.595580	63968.000000
3339.662969	63769.000000
3340.728753	63841.000000
3341.798763	63828.000000
3342.865710	63833.000000
3343.929595	63221.000000
3344.996248	63998.000000
3346.061296	64010.000000
3347.124741	62738.000000
3348.188040	64012.000000
3349.251192	63926.000000
3350.314198	64106.000000
3351.377058	64021.000000
3352.438316	64086.000000
3353.496517	64050.000000
3354.558938	63968.000000
3355.618304	63805.000000
3356.677524	63350.000000
3357.738054	64009.000000
3358.794074	63838.000000
3359.852858	63772.000000
3360.907135	63944.000000
3361.964176	63971.000000
3363.019618	64060.000000
3364.076370	63949.000000
3365.131523	64031.000000
3366.185079	64040.000000
3367.237039	63893.000000
3368.291760	64048.000000
3369.343432	63974.000000
3370.394961	63787.000000
3371.447798	63961.000000
3372.497588	64002.000000
3373.548687	63851.000000
3374.596740	64131.000000
3375.647552	64103.000000
3376.695320	64158.000000
3377.742945	64128.000000
3378.790427	64077.000000
3379.836317	62843.000000
3380.883515	63943.000000
3381.927671	64054.000000
3382.974585	63844.000000
3384.019907	63872.000000
3385.062188	63623.000000
3386.104329	63999.000000
3387.147777	63975.000000
3388.191084	64117.000000
3389.232802	64114.000000
3390.274378	63565.000000
3391.315814	64091.000000
3392.355660	64165.000000
3393.393918	63838.000000
3394.433484	64074.000000
3395.472910	63858.000000
3396.510748	64105.000000
3397.546999	64102.000000
3398.583111	63602.000000
3399.620530	63989.000000
3400.654916	64066.000000
3401.690609	64186.000000
3402.726163	64118.000000
3403.758686	64217.000000
3404.793962	64190.000000
3405.826207	64115.000000
3406.858314	64210.000000
3407.888837	63951.000000
3408.920667	64140.000000
3409.952359	63765.000000
3410.981023	63739.000000
3412.009550	64117.000000
3413.039383	64151.000000
3414.069079	63706.000000
3415.095749	63596.000000
3416.123726	64087.000000
3417.148678	63624.000000
3418.176380	64059.000000
3419.201059	64016.000000
3420.227044	63738.000000
3421.251449	64091.000000
3422.275718	63992.000000
3423.298408	64095.000000
3424.320962	64170.000000
3425.344822	63478.000000
3426.365662	64137.000000
3427.386366	64135.000000
3428.408377	64039.000000
3429.427369	63950.000000
3430.446226	64179.000000
3431.466388	63794.000000
3432.483534	64193.000000
