-116.773079	184.000000
-114.103479	215.000000
-111.436814	201.000000
-108.770901	247.000000
-106.107920	142.000000
-103.443510	191.000000
-100.782030	193.000000
-98.119121	187.000000
-95.461318	286.000000
-92.802086	160.000000
-90.143602	174.000000
-87.488042	153.000000
-84.831054	243.000000
-82.179164	234.000000
-79.525843	211.000000
-76.875443	245.000000
-74.223613	200.000000
-71.576874	166.000000
-68.928706	320.000000
-66.281280	210.000000
-63.636768	231.000000
-60.990828	221.000000
-58.349969	226.000000
-55.707681	227.000000
-53.068301	302.000000
-50.427493	288.000000
-47.787425	255.000000
-45.152429	233.000000
-42.516005	324.000000
-39.882483	320.000000
-37.247533	341.000000
-34.617648	342.000000
-31.984171	409.000000
-29.355756	446.000000
-26.728075	527.000000
-24.098965	559.000000
-21.474912	584.000000
-18.847270	751.000000
-16.224681	896.000000
-13.602824	1094.000000
-10.981697	1897.000000
-8.361300	4415.000000
-5.743792	16197.000000
-3.124855	57546.000000
-0.508803	64302.000000
2.106520	64332.000000
4.721116	64344.000000
7.332829	12013.000000
9.945971	1674.000000
12.554079	972.000000
15.165769	710.000000
17.772428	584.000000
20.380515	552.000000
22.987878	581.000000
25.590216	533.000000
28.196132	464.000000
30.797026	461.000000
33.399348	471.000000
35.996653	374.000000
38.597533	331.000000
41.193398	363.000000
43.790692	361.000000
46.387266	342.000000
48.978831	364.000000
51.571824	399.000000
54.161956	376.000000
56.753516	467.000000
59.342216	403.000000
61.932343	457.000000
64.517471	418.000000
67.104027	519.000000
69.689869	428.000000
72.272857	541.000000
74.857271	499.000000
77.434557	478.000000
80.015409	498.000000
82.593412	565.000000
85.170705	515.000000
87.749424	632.000000
90.323161	603.000000
92.898326	632.000000
95.470647	599.000000
98.042260	760.000000
100.611033	788.000000
103.181233	917.000000
105.748595	1120.000000
108.317382	1262.000000
110.883333	1551.000000
113.446449	1931.000000
116.013121	2417.000000
118.570572	3445.000000
121.133708	4822.000000
123.691884	6848.000000
126.253615	10418.000000
128.810389	15579.000000
131.368590	23481.000000
133.921837	35046.000000
136.474387	50060.000000
139.030487	62446.000000
141.581639	64348.000000
144.132094	64360.000000
146.681851	64349.000000
149.228789	64343.000000
151.775032	64406.000000
154.322700	64395.000000
156.869672	64360.000000
159.411709	64233.000000
161.953052	64270.000000
164.493702	64332.000000
167.035778	64328.000000
169.575042	64311.000000
172.111498	64319.000000
174.647262	64382.000000
177.184452	64298.000000
179.720951	64405.000000
182.254644	64400.000000
184.785533	64326.000000
187.315735	64387.000000
189.847361	64370.000000
192.376186	64397.000000
194.902212	64405.000000
197.427552	64235.000000
199.954318	64356.000000
202.478286	64365.000000
205.001570	64423.000000
207.524169	64423.000000
210.043975	64372.000000
212.563098	64292.000000
215.081538	64407.000000
217.601402	64362.000000
220.114265	64364.000000
222.630659	64418.000000
225.146371	64329.000000
227.657193	64182.000000
230.169440	64354.000000
232.678905	64314.000000
235.187691	64312.000000
237.695798	64359.000000
240.205330	64384.000000
242.709981	64285.000000
245.213956	63848.000000
247.719355	63454.000000
250.219879	62411.000000
252.723927	61938.000000
255.221003	60532.000000
257.721603	60428.000000
260.219431	59508.000000
262.716586	58526.000000
265.213068	58088.000000
267.704687	57319.000000
270.199826	56209.000000
272.692198	55344.000000
275.183901	54478.000000
277.672839	53753.000000
280.163202	52677.000000
282.650802	51605.000000
285.135643	50183.000000
287.623999	49863.000000
290.105415	49060.000000
292.590345	47911.000000
295.070430	47729.000000
297.554027	46874.000000
300.032781	46511.000000
302.512959	45822.000000
304.990384	45289.000000
307.467146	44411.000000
309.943245	43726.000000
312.416595	43448.000000
314.889283	43390.000000
317.361310	42591.000000
319.832676	42526.000000
322.301297	42176.000000
324.769260	43091.000000
327.238644	42303.000000
329.703206	41901.000000
332.171272	41977.000000
334.634518	41977.000000
337.097106	42154.000000
339.559038	41438.000000
342.020313	41917.000000
344.478854	41635.000000
346.938817	41513.000000
349.396047	41838.000000
351.852623	41711.000000
354.308545	41410.000000
356.761737	41488.000000
359.216352	41291.000000
361.666165	41599.000000
364.119474	41714.000000
366.567985	41622.000000
369.015844	41943.000000
371.465126	41308.000000
373.909614	41846.000000
376.355524	41425.000000
378.800784	41356.000000
381.243326	41924.000000
383.685220	42117.000000
386.126467	41575.000000
388.564998	41798.000000
391.004951	41804.000000
393.442190	41781.000000
395.876717	41489.000000
398.314732	42157.000000
400.747970	41966.000000
403.182629	41335.000000
405.612516	41887.000000
408.045888	42123.000000
410.474490	42103.000000
412.902450	41818.000000
415.331832	42354.000000
417.756448	41802.000000
420.182486	41934.000000
422.607883	41950.000000
425.032640	42107.000000
427.452639	41712.000000
429.874059	42657.000000
432.292782	42700.000000
434.712926	41923.000000
437.130375	42418.000000
439.549244	42352.000000
441.965420	42794.000000
444.376848	42754.000000
446.791754	42468.000000
449.203969	42468.000000
451.615550	42309.000000
454.026497	42848.000000
456.434758	42514.000000
458.842386	42193.000000
461.249382	42365.000000
463.655747	41517.000000
466.059429	41311.000000
468.462481	41626.000000
470.864903	41303.000000
473.266695	41077.000000
475.665810	41254.000000
478.066344	41064.000000
480.466249	40986.000000
482.861431	40664.000000
485.260080	41153.000000
487.654009	40686.000000
490.047312	41105.000000
492.439989	40499.000000
494.832041	40473.000000
497.225511	39879.000000
499.614270	39318.000000
502.000361	38961.000000
504.387873	38767.000000
506.774762	38345.000000
509.158987	37720.000000
511.544630	37389.000000
513.927612	37197.000000
516.307933	36426.000000
518.689673	37244.000000
521.068754	36440.000000
523.449254	36584.000000
525.827096	35641.000000
528.202283	36400.000000
530.576852	35516.000000
532.952839	35985.000000
535.326174	35489.000000
537.700926	35393.000000
540.070993	34989.000000
542.440444	35449.000000
544.811313	35325.000000
547.177502	34831.000000
549.545109	35429.000000
551.910070	35453.000000
554.274418	35637.000000
556.638153	35642.000000
559.003306	35656.000000
561.363787	35519.000000
563.725686	35697.000000
566.084944	34708.000000
568.441565	34283.000000
570.801630	33961.000000
573.155004	34154.000000
575.511823	34198.000000
577.866007	33784.000000
580.219583	33338.000000
582.572550	33373.000000
584.922885	33506.000000
587.274638	33378.000000
589.619714	33369.000000
591.970254	32707.000000
594.314120	32932.000000
596.663448	32987.000000
599.008127	32794.000000
601.350182	32865.000000
603.693654	32488.000000
606.034503	32587.000000
608.374750	32657.000000
610.712376	32426.000000
613.053437	32132.000000
615.389860	31956.000000
617.727700	31850.000000
620.062923	31579.000000
622.395530	31564.000000
624.729553	31239.000000
627.060962	31597.000000
629.391774	31102.000000
631.721987	31500.000000
634.051602	31078.000000
636.376595	30998.000000
638.707028	31099.000000
641.032841	31110.000000
643.356046	31060.000000
645.680668	31180.000000
648.002684	30809.000000
650.324106	30925.000000
652.642926	31188.000000
654.963161	31375.000000
657.282803	30610.000000
659.599844	30554.000000
661.916293	30279.000000
664.230144	30351.000000
666.545411	30354.000000
668.858081	30308.000000
671.172166	30412.000000
673.481651	30650.000000
675.792552	30250.000000
678.100860	30166.000000
680.408580	30041.000000
682.717714	29873.000000
685.022256	29564.000000
687.326212	29554.000000
689.629582	29604.000000
691.934366	29252.000000
694.234564	29255.000000
696.536176	29495.000000
698.837204	29290.000000
701.133649	28961.000000
703.431510	29313.000000
705.728787	28822.000000
708.025481	28668.000000
710.317599	28642.000000
712.613128	28349.000000
714.904083	28393.000000
717.196453	28411.000000
719.486248	28611.000000
721.775462	28440.000000
724.064097	28510.000000
726.350159	28389.000000
728.637636	28276.000000
730.922541	28490.000000
733.206869	28315.000000
735.488628	28493.000000
737.771801	28361.000000
740.054397	28250.000000
742.332437	28126.000000
744.611892	28194.000000
746.890771	28359.000000
749.169074	28079.000000
751.442828	28126.000000
753.717995	27779.000000
755.992589	27776.000000
758.264624	27778.000000
760.538072	27563.000000
762.808962	28116.000000
765.077296	27609.000000
767.347043	27762.000000
769.614236	27522.000000
771.880858	27478.000000
774.146910	27835.000000
776.410411	27719.000000
778.675325	27336.000000
780.939669	27473.000000
783.199484	27442.000000
785.460711	27380.000000
787.721371	27587.000000
789.979485	27282.000000
792.235054	26977.000000
794.494014	26960.000000
796.746475	27673.000000
799.004302	27162.000000
801.257611	27370.000000
803.508380	26939.000000
805.760561	26743.000000
808.010203	27107.000000
810.261258	26868.000000
812.507801	26631.000000
814.755756	26531.000000
817.001177	26398.000000
819.248009	25976.000000
821.494280	26064.000000
823.736046	25889.000000
825.981196	25846.000000
828.219873	25462.000000
830.461932	25453.000000
832.699493	25799.000000
834.938466	25437.000000
837.174912	25024.000000
839.412769	24633.000000
841.648101	24257.000000
843.880910	24952.000000
846.115130	24655.000000
848.346827	24732.000000
850.577970	24468.000000
852.808558	24083.000000
855.038592	24349.000000
857.268072	23752.000000
859.493070	23775.000000
861.721443	23633.000000
863.945337	23584.000000
866.170641	23383.000000
868.391470	23717.000000
870.615671	23116.000000
872.835399	23127.000000
875.056537	22845.000000
877.277126	23514.000000
879.495204	23281.000000
881.714692	23013.000000
883.929714	22610.000000
886.144189	22611.000000
888.358115	22769.000000
890.571495	22446.000000
892.784327	22183.000000
894.996613	22074.000000
897.206396	22330.000000
899.415634	21618.000000
901.624327	21445.000000
903.830521	21817.000000
906.038124	21549.000000
908.243229	21284.000000
910.447791	21363.000000
912.649858	21236.000000
914.853334	21369.000000
917.054316	21282.000000
919.254756	20955.000000
921.456605	21044.000000
923.652063	20751.000000
925.850880	20856.000000
928.045258	20603.000000
930.242994	20788.000000
932.436294	20541.000000
934.631003	20820.000000
936.823226	20613.000000
939.014910	20572.000000
941.206057	20571.000000
943.394721	20335.000000
945.582849	20255.000000
947.768496	20397.000000
949.957495	19940.000000
952.142071	20255.000000
954.326112	20024.000000
956.513503	20255.000000
958.692590	19975.000000
960.875028	20003.000000
963.056932	20376.000000
965.236361	19967.000000
967.413318	20192.000000
969.591683	20171.000000
971.771455	19820.000000
973.944878	19651.000000
976.121647	19788.000000
978.294009	20015.000000
980.467779	19622.000000
982.637145	19767.000000
984.809855	19742.000000
986.980100	19795.000000
989.149816	19406.000000
991.319003	19766.000000
993.483793	19236.000000
995.651924	19626.000000
997.815661	19712.000000
999.980804	19310.000000
1002.143488	19538.000000
1004.305647	19343.000000
1006.465349	19799.000000
1008.624526	19483.000000
1010.785110	19252.000000
1012.943240	18942.000000
1015.100845	19212.000000
1017.257927	19235.000000
1019.414485	19144.000000
1021.566664	19051.000000
1023.720250	18816.000000
1025.873314	19087.000000
1028.023929	18766.000000
1030.175951	19183.000000
1032.323599	19058.000000
1034.474579	19057.000000
1036.621188	18890.000000
1038.767278	19322.000000
1040.912850	18920.000000
1043.059827	18804.000000
1045.200515	18847.000000
1047.344533	18568.000000
1049.486110	18689.000000
1051.627171	18451.000000
1053.769636	18436.000000
1055.905822	18477.000000
1058.045334	18364.000000
1060.180490	18407.000000
1062.318971	18772.000000
1064.453098	18551.000000
1066.586712	18571.000000
1068.721731	18219.000000
1070.852400	18896.000000
1072.984474	18443.000000
1075.114119	18850.000000
1077.243252	18795.000000
1079.371873	18690.000000
1081.499983	18711.000000
1083.625667	18598.000000
1085.750841	18564.000000
1087.877419	18714.000000
1089.999659	18640.000000
1092.123304	18506.000000
1094.242614	18410.000000
1096.367154	18280.000000
1098.485448	18120.000000
1100.605147	18157.000000
1102.722427	18276.000000
1104.839201	18268.000000
1106.955468	18399.000000
1109.069319	18246.000000
1111.184575	18163.000000
1113.295507	18307.000000
1115.409752	18007.000000
1117.519676	18240.000000
1119.631004	17820.000000
1121.741827	18118.000000
1123.848334	17695.000000
1125.958151	18202.000000
1128.063653	17753.000000
1130.170558	18174.000000
1132.271248	17972.000000
1134.377150	17938.000000
1136.478743	18152.000000
1138.581739	18061.000000
1140.684234	17852.000000
1142.780522	17981.000000
1144.882018	18024.000000
1146.979210	17684.000000
1149.075905	18052.000000
1151.172101	18233.000000
1153.267800	18104.000000
1155.363000	18017.000000
1157.455804	17783.000000
1159.550011	17915.000000
1161.638026	17905.000000
1163.731239	17780.000000
1165.818264	17799.000000
1167.908588	17822.000000
1169.994625	18059.000000
1172.083959	18115.000000
1174.167112	17587.000000
1176.251667	17570.000000
1178.337624	17538.000000
1180.419299	17772.000000
1182.502376	17534.000000
1184.583067	17860.000000
1186.663266	17740.000000
1188.742974	17678.000000
1190.822191	17679.000000
1192.899026	17499.000000
1194.973480	17547.000000
1197.051225	18078.000000
1199.124701	17802.000000
1201.199577	17734.000000
1203.270186	17674.000000
1205.342196	17580.000000
1207.411831	17866.000000
1209.482866	17548.000000
1211.553413	17788.000000
1213.619699	17696.000000
1215.687386	17375.000000
1217.752701	17489.000000
1219.819416	18005.000000
1221.881875	17362.000000
1223.947619	17437.000000
1226.009109	17472.000000
1228.072000	17864.000000
1230.132523	17595.000000
1232.192562	17424.000000
1234.252119	17695.000000
1236.309310	17627.000000
1238.366020	17766.000000
1240.420366	17821.000000
1242.477994	17502.000000
1244.533259	18049.000000
1246.584283	17874.000000
1248.636707	17570.000000
1250.688651	17509.000000
1252.738237	17602.000000
1254.787344	17485.000000
1256.835973	17626.000000
1258.884123	17579.000000
1260.931794	17475.000000
1262.975235	17590.000000
1265.021952	17577.000000
1267.066315	17586.000000
1269.110202	17392.000000
1271.151737	17158.000000
1273.190923	17144.000000
1275.233382	17083.000000
1277.271618	17256.000000
1279.311253	17476.000000
1281.350413	17398.000000
1283.385354	17299.000000
1285.421694	17122.000000
1287.455690	17442.000000
1289.491083	17327.000000
1291.522264	17428.000000
1293.554842	17398.000000
1295.586949	17537.000000
1297.616715	17554.000000
1299.647879	17662.000000
1301.674835	17495.000000
1303.703189	17126.000000
1305.727339	17216.000000
1307.754753	17223.000000
1309.777965	17060.000000
1311.802575	17334.000000
1313.824851	17232.000000
1315.848524	16888.000000
1317.869864	17074.000000
1319.890736	16842.000000
1321.911141	16894.000000
1323.927353	17295.000000
1325.944962	16945.000000
1327.960243	17166.000000
1329.978783	16912.000000
1331.993134	17147.000000
1334.005159	17580.000000
1336.020441	18051.000000
1338.031538	18302.000000
1340.044032	17771.000000
1342.052343	18026.000000
1344.063909	17149.000000
1346.069437	16974.000000
1348.078220	16431.000000
1350.082825	16582.000000
1352.090684	16701.000000
1354.098081	16396.000000
1356.099447	16279.000000
1358.102209	16035.000000
1360.104512	16369.000000
1362.106355	16520.000000
1364.107738	16307.000000
1366.106808	16238.000000
1368.105419	16194.000000
1370.103572	16279.000000
1372.101266	16201.000000
1374.094798	16067.000000
1376.089726	16003.000000
1378.084196	15962.000000
1380.078210	16012.000000
1382.069917	16139.000000
1384.061169	16016.000000
1386.050115	16079.000000
1388.040456	16104.000000
1390.030342	15583.000000
1392.017924	15806.000000
1394.005053	15879.000000
1395.989880	15872.000000
1397.976102	16497.000000
1399.960024	15840.000000
1401.943493	16186.000000
1403.926509	15742.000000
1405.907228	15835.000000
1407.889341	15853.000000
1409.869158	15677.000000
1411.848523	16193.000000
1413.823750	16032.000000
1415.802215	15658.000000
1417.778387	15993.000000
1419.754110	15789.000000
1421.729383	15827.000000
1423.702365	15576.000000
1425.674899	15726.000000
1427.646985	15729.000000
1429.618624	15615.000000
1431.586134	15864.000000
1433.558718	15739.000000
1435.523497	15618.000000
1437.493347	15867.000000
1439.459074	15900.000000
1441.426193	16051.000000
1443.391029	15900.000000
1445.351745	15960.000000
1447.317529	15972.000000
1449.277358	15879.000000
1451.238581	15794.000000
1453.201196	15863.000000
1455.159696	15559.000000
1457.117753	15863.000000
1459.075369	15744.000000
1461.032542	15498.000000
1462.987440	15580.000000
1464.943731	15797.000000
1466.897747	15654.000000
1468.851322	16067.000000
1470.802625	15739.000000
1472.755321	15887.000000
1474.705745	15285.000000
1476.655729	15726.000000
1478.605275	16022.000000
1480.552552	15535.000000
1482.497561	15776.000000
1484.443963	15885.000000
1486.389927	15952.000000
1488.335454	16198.000000
1490.278715	15760.000000
1492.221541	16143.000000
1494.162103	15807.000000
1496.104056	16107.000000
1498.043747	15717.000000
1499.983004	15605.000000
1501.921825	16000.000000
1503.858387	15929.000000
1505.796340	16364.000000
1507.732034	15897.000000
1509.667295	16365.000000
1511.600300	16015.000000
1513.532872	16271.000000
1515.465012	16313.000000
1517.396720	16123.000000
1519.326174	16195.000000
1521.257019	16354.000000
1523.187432	16038.000000
1525.113773	16251.000000
1527.041505	16359.000000
1528.966986	16332.000000
1530.892038	16178.000000
1532.816661	16478.000000
1534.740855	16359.000000
1536.662801	16418.000000
1538.586138	16511.000000
1540.507228	16649.000000
1542.426075	16404.000000
1544.346310	16764.000000
1546.264303	17092.000000
1548.181869	17082.000000
1550.097193	17177.000000
1552.013907	17221.000000
1553.926566	17503.000000
1555.842429	17343.000000
1557.756052	17528.000000
1559.667438	17533.000000
1561.580212	17286.000000
1563.488937	17652.000000
1565.399051	17923.000000
1567.308742	17819.000000
1569.218010	18149.000000
1571.125044	18151.000000
1573.029845	18401.000000
1574.936035	18438.000000
1576.839993	18459.000000
1578.743530	18319.000000
1580.646647	18417.000000
1582.547534	18939.000000
1584.449810	18900.000000
1586.349858	19156.000000
1588.251293	19165.000000
1590.148695	19611.000000
1592.045678	19789.000000
1593.942243	19796.000000
1595.840196	19981.000000
1597.732314	20653.000000
1599.627625	20599.000000
1601.522519	20975.000000
1603.415191	21305.000000
1605.307446	21625.000000
1607.197482	21864.000000
1609.087102	22346.000000
1610.976307	22197.000000
1612.865097	22603.000000
1614.751669	22290.000000
1616.639629	22540.000000
1618.523572	22916.000000
1620.408902	23123.000000
1622.293819	23435.000000
1624.176522	23241.000000
1626.060612	23583.000000
1627.940691	23722.000000
1629.822156	23918.000000
1631.701411	23652.000000
1633.582052	23953.000000
1635.456889	23994.000000
1637.336707	23862.000000
1639.212521	23949.000000
1641.087924	23663.000000
1642.964713	23819.000000
1644.835706	23500.000000
1646.709880	23693.000000
1648.580056	23495.000000
1650.453412	23128.000000
1652.324565	22996.000000
1654.193516	23132.000000
1656.063852	22550.000000
1657.930196	22470.000000
1659.797925	22135.000000
1661.663455	22136.000000
1663.530371	21747.000000
1665.393298	21680.000000
1667.257610	21108.000000
1669.119726	21054.000000
1670.981437	20425.000000
1672.844534	20444.000000
1674.705435	20359.000000
1676.564144	20107.000000
1678.422449	19668.000000
1680.282139	19439.000000
1682.136061	19333.000000
1683.993157	18604.000000
1685.849850	18839.000000
1687.702566	18257.000000
1689.558454	18336.000000
1691.410368	18117.000000
1693.261881	17705.000000
1695.112993	17548.000000
1696.963705	17338.000000
1698.814016	16859.000000
1700.662142	16903.000000
1702.511653	16423.000000
1704.355415	15997.000000
1706.204126	15736.000000
1708.047091	15908.000000
1709.893223	15546.000000
1711.735392	15265.000000
1713.580727	15157.000000
1715.420321	14657.000000
1717.261299	14477.000000
1719.103660	14208.000000
1720.942065	14093.000000
1722.781853	13810.000000
1724.619466	13757.000000
1726.456683	13542.000000
1728.291727	13505.000000
1730.128154	13160.000000
1731.962409	12805.000000
1733.796269	12992.000000
1735.629735	12881.000000
1737.459256	12651.000000
1739.291935	12571.000000
1741.120670	12587.000000
1742.952562	12260.000000
1744.780512	12226.000000
1746.608071	12008.000000
1748.435237	12189.000000
1750.262012	11752.000000
1752.088395	11905.000000
1753.910842	11780.000000
1755.736444	11675.000000
1757.558111	11491.000000
1759.381160	11459.000000
1761.202047	11343.000000
1763.022546	11271.000000
1764.844426	11204.000000
1766.660606	11119.000000
1768.479938	11110.000000
1770.295343	11035.000000
1772.113898	11122.000000
1773.928528	11007.000000
1775.742771	11116.000000
1777.556628	10766.000000
1779.370098	10984.000000
1781.181415	10560.000000
1782.994112	10772.000000
1784.806424	10715.000000
1786.614818	10456.000000
1788.424592	10421.000000
1790.230452	10361.000000
1792.039457	10609.000000
1793.844549	10418.000000
1795.651022	10555.000000
1797.457111	10635.000000
1799.259289	10415.000000
1801.064612	10399.000000
1802.866026	10304.000000
1804.668820	10200.000000
1806.467708	10296.000000
1808.267977	10526.000000
1810.067864	10295.000000
1811.865609	10286.000000
1813.662974	10461.000000
1815.459959	10080.000000
1817.256563	10232.000000
1819.051028	10208.000000
1820.846872	9892.000000
1822.637061	10225.000000
1824.432147	9887.000000
1826.221581	10071.000000
1828.014151	10069.000000
1829.804586	9853.000000
1831.592887	10017.000000
1833.384323	9800.000000
1835.170113	10050.000000
1836.957283	10265.000000
1838.742321	9605.000000
1840.530493	9741.000000
1842.314779	9577.000000
1844.096935	9724.000000
1845.880471	9847.000000
1847.661878	9593.000000
1849.444664	9643.000000
1851.223569	9765.000000
1853.003854	9763.000000
1854.782012	9640.000000
1856.561549	9476.000000
1858.338961	9626.000000
1860.114249	9904.000000
1861.890915	9794.000000
1863.665459	9691.000000
1865.441381	9532.000000
1867.211682	9592.000000
1868.985111	9599.000000
1870.756420	9642.000000
1872.527358	9658.000000
1874.299674	9647.000000
1876.066376	9657.000000
1877.836204	9641.000000
1879.602168	9484.000000
1881.371255	9618.000000
1883.136481	9578.000000
1884.901339	9590.000000
1886.667574	9615.000000
1888.429950	9747.000000
1890.191959	9427.000000
1891.953600	9754.000000
1893.714875	9736.000000
1895.475782	9585.000000
1897.236323	9526.000000
1898.994754	9556.000000
1900.752819	9541.000000
1902.508777	9429.000000
1904.266111	9447.000000
1906.023080	9540.000000
1907.777942	9651.000000
1909.530700	9416.000000
1911.283093	9769.000000
1913.036863	9412.000000
1914.788529	9614.000000
1916.538093	9487.000000
1918.289032	9352.000000
1920.039609	9375.000000
1921.786346	9344.000000
1923.534460	9420.000000
1925.280474	9282.000000
1927.027863	9569.000000
1928.773155	9638.000000
1930.516349	9541.000000
1932.260918	9424.000000
1934.003392	9566.000000
1935.745505	9441.000000
1937.487258	9700.000000
1939.228652	9573.000000
1940.967951	9551.000000
1942.706892	9564.000000
1944.445474	9685.000000
1946.181965	9667.000000
1947.918098	9703.500000
1949.655605	9740.000000
1951.389290	9591.000000
1953.124350	9819.000000
1954.857321	9750.000000
1956.589936	9669.000000
1958.322195	9769.000000
1960.054097	9772.000000
1961.783913	9788.000000
1963.511644	9742.000000
1965.240750	9769.000000
1966.969501	9893.000000
1968.696168	10011.000000
1970.422481	10090.000000
1972.150167	9818.000000
1973.872317	9901.000000
1975.597568	10008.000000
1977.319012	9880.000000
1979.043557	10086.000000
1980.766021	9795.000000
1982.484683	10192.000000
1984.206443	10145.000000
1985.924401	10013.000000
1987.643732	10178.000000
1989.359264	10132.000000
1991.079616	10161.000000
1992.796170	10274.000000
1994.508927	10219.000000
1996.224780	10090.000000
1997.938561	10025.000000
1999.651992	10623.000000
2001.363352	10268.000000
2003.076084	10285.000000
2004.785026	10398.000000
2006.497060	10185.000000
2008.203586	10452.000000
2009.913203	10355.000000
2011.620754	10549.000000
2013.327956	10306.000000
2015.033093	10325.000000
2016.737884	10469.000000
2018.444046	10404.000000
2020.146426	10482.000000
2021.850177	10602.000000
2023.551866	10606.000000
2025.253210	10649.000000
2026.954208	10327.000000
2028.653145	10505.000000
2030.353454	10622.000000
2032.049988	10806.000000
2033.747893	10603.000000
2035.443739	10620.000000
2037.142671	10834.000000
2038.836117	10653.000000
2040.530934	10780.000000
2042.225409	10818.000000
2043.916115	10837.000000
2045.609905	10966.000000
2047.299928	10849.000000
2048.991322	10939.000000
2050.680663	10766.000000
2052.371374	10911.000000
2054.058322	10742.000000
2055.744931	10713.000000
2057.432909	10719.000000
2059.117128	10908.000000
2060.802718	10572.000000
2062.487968	10818.000000
2064.171170	10705.000000
2065.855741	10818.000000
2067.534850	10641.000000
2069.218744	10666.000000
2070.897177	10866.000000
2072.578688	10621.000000
2074.256447	10736.000000
2075.933870	10943.000000
2077.612662	10694.000000
2079.289412	10751.000000
2080.964120	10844.000000
2082.640197	10885.000000
2084.314234	10835.000000
2085.987935	10595.000000
2087.661301	10970.000000
2089.332628	10881.000000
2091.003622	10947.000000
2092.674280	10868.000000
2094.344605	10904.000000
2096.014596	10923.000000
2097.682551	10895.000000
2099.350173	10722.000000
2101.015760	10845.000000
2102.682716	10747.000000
2104.347639	10795.000000
2106.012230	11180.000000
2107.674789	10692.000000
2109.338716	11115.000000
2111.000612	11190.000000
2112.662178	10914.000000
2114.323412	10887.000000
2115.982618	11260.000000
2117.641493	11053.000000
2119.300039	11078.000000
2120.958255	10872.000000
2122.612747	10956.000000
2124.270304	11117.000000
2125.927532	10939.000000
2127.581038	10942.000000
2129.235912	10869.000000
2130.887067	10873.000000
2132.541285	10891.000000
2134.191786	10775.000000
2135.843653	10909.000000
2137.490112	10680.000000
2139.141326	10883.000000
2140.788826	10797.000000
2142.437693	10794.000000
2144.084541	10969.000000
2145.731064	10783.000000
2147.377261	10782.000000
2149.019750	10877.000000
2150.665297	10692.000000
2152.307137	10625.000000
2153.952034	10675.000000
2155.593226	10742.000000
2157.234094	10602.000000
2158.874638	10626.000000
2160.513170	10475.000000
2162.153068	10670.000000
2163.789266	10504.000000
2165.426830	10475.000000
2167.064072	10326.000000
2168.699304	10382.000000
2170.334215	10358.000000
2171.968804	10297.000000
2173.603071	10169.000000
2175.233645	10349.000000
2176.867271	10472.000000
2178.497205	10235.000000
2180.128504	10416.000000
2181.757798	10107.000000
2183.386773	10108.000000
2185.015428	10059.000000
2186.643764	10003.000000
2188.270098	10168.000000
2189.896113	10130.000000
2191.520126	10105.000000
2193.145505	9693.000000
2194.768883	9850.000000
2196.393626	9865.000000
2198.014688	9985.000000
2199.635433	9808.000000
2201.257543	9907.000000
2202.877655	9804.000000
2204.495770	9553.000000
2206.113570	9753.000000
2207.731055	9628.000000
2209.348224	9667.000000
2210.965078	9452.000000
2212.581616	9551.000000
2214.196162	9417.000000
2215.808715	9601.000000
2217.422632	9592.000000
2219.034558	9337.000000
2220.647847	9632.000000
2222.259146	9536.000000
2223.868455	9519.000000
2225.479128	9465.000000
2227.087812	9207.000000
2228.696183	9165.000000
2230.302568	9205.000000
2231.910316	9296.000000
2233.516077	9159.000000
2235.121527	9126.000000
2236.724992	8991.000000
2238.329820	9227.000000
2239.932664	9496.000000
2241.533525	9230.000000
2243.135749	9315.000000
2244.735991	9134.000000
2246.337595	8998.000000
2247.935547	9239.000000
2249.534860	8939.000000
2251.132194	9077.000000
2252.729220	9028.000000
2254.327608	8922.000000
2255.922347	8958.000000
2257.515109	8926.000000
2259.109234	8773.000000
2260.704720	9101.000000
2262.296561	8812.000000
2263.888096	8882.000000
2265.480993	8749.000000
2267.068580	8785.000000
2268.660863	8543.000000
2270.247840	8873.000000
2271.837844	8506.000000
2273.422544	8542.000000
2275.011938	8495.000000
2276.596030	8635.000000
2278.181483	8471.000000
2279.764966	8474.000000
2281.351475	8317.000000
2282.934351	8240.000000
2284.516924	8406.000000
2286.099193	8247.000000
2287.677832	8364.000000
2289.259496	8113.000000
2290.837531	8324.000000
2292.418589	8220.000000
2293.996020	8289.500000
2295.571488	8359.000000
2297.149978	8077.000000
2298.724844	8091.000000
2300.299409	7999.000000
2301.873674	7897.000000
2303.447638	7856.000000
2305.021301	8030.000000
2306.594665	7968.000000
2308.164410	7801.000000
2309.733856	7873.000000
2311.306320	8077.000000
2312.873510	7954.000000
2314.443718	7793.000000
2316.010311	7665.000000
2317.578264	7787.000000
2319.144261	7767.000000
2320.709961	7944.000000
2322.275363	7685.000000
2323.838812	7591.000000
2325.403620	7996.000000
2326.964820	7988.000000
2328.529034	8102.000000
2330.087986	8151.000000
2331.649953	7884.000000
2333.209968	7883.000000
2334.769689	7463.000000
2336.327460	7636.000000
2337.884936	7772.000000
2339.442118	7747.000000
2340.997352	7726.000000
2342.552293	7801.000000
2344.106939	7584.000000
2345.661292	7457.000000
2347.215352	7740.000000
2348.769117	7332.000000
2350.320939	7451.000000
2351.870817	7549.000000
2353.423703	7611.000000
2354.971347	7723.000000
2356.521998	7391.000000
2358.069058	7498.000000
2359.617476	7649.000000
2361.165603	7441.000000
2362.710141	7526.000000
2364.256037	7359.000000
2365.799995	7325.000000
2367.345310	7521.000000
2368.887040	7155.000000
2370.430127	7184.000000
2371.971278	7244.000000
2373.512140	7282.000000
2375.052713	7241.000000
2376.592997	7217.000000
2378.132992	7272.000000
2379.669409	7151.000000
2381.208827	7130.000000
2382.744668	7202.000000
2384.281865	7189.000000
2385.815487	7353.000000
2387.352109	7066.000000
2388.886801	7214.000000
2390.419563	6881.000000
2391.952038	7073.000000
2393.482585	7045.000000
2395.016130	7218.000000
2396.544464	7137.000000
2398.074155	7084.000000
2399.603559	6969.000000
2401.132679	6875.000000
2402.661514	6979.000000
2404.185143	6877.000000
2405.713408	7122.000000
2407.236471	7103.000000
2408.764167	6706.000000
2410.285024	6881.000000
2411.810514	6909.000000
2413.332443	6986.000000
2414.855728	6984.000000
2416.377091	6840.000000
2417.896535	6619.000000
2419.417335	6763.000000
2420.936215	6793.000000
2422.454813	6841.000000
2423.971494	6723.000000
2425.489529	6815.000000
2427.007283	6590.000000
2428.521486	6679.000000
2430.035408	6897.000000
2431.549050	6795.000000
2433.064047	6702.000000
2434.575495	6816.000000
2436.088298	6596.000000
2437.599187	6452.000000
2439.109798	6862.000000
2440.618497	6566.000000
2442.130182	6452.000000
2443.638324	6755.000000
2445.146188	6645.000000
2446.653774	6726.000000
2448.157819	6506.000000
2449.664849	6641.000000
2451.169972	6738.000000
2452.674816	6567.000000
2454.177754	6502.000000
2455.680416	6280.000000
2457.182801	6565.000000
2458.683281	6306.000000
2460.185114	6308.000000
2461.685042	6352.000000
2463.184695	6455.000000
2464.684073	6529.000000
2466.181548	6434.000000
2467.677121	6153.000000
2469.175674	6364.000000
2470.670699	6350.000000
2472.167076	6401.000000
2473.659927	6404.000000
2475.154131	6361.000000
2476.648061	6349.000000
2478.138467	6236.000000
2479.631851	6190.000000
2481.123337	6298.000000
2482.612926	6252.000000
2484.102243	6207.000000
2485.589664	6189.000000
2487.080061	6212.000000
2488.566940	6128.000000
2490.055170	6273.000000
2491.539884	6338.000000
2493.024327	6261.000000
2494.510121	6167.000000
2495.994024	6166.000000
2497.479277	6193.000000
2498.959397	6121.000000
2500.442490	6062.000000
2501.923692	6254.000000
2503.404625	6206.000000
2504.883669	6137.000000
2506.362444	6206.000000
2507.840951	6010.000000
2509.319190	6120.000000
2510.797160	6179.000000
2512.271625	6309.000000
2513.749060	6208.000000
2515.222991	6294.000000
2516.698272	5998.000000
2518.173286	6199.000000
2519.644800	6201.000000
2521.117663	6145.000000
2522.588644	6067.000000
2524.060975	5950.000000
2525.528192	6058.000000
2526.998376	5924.000000
2528.466679	6059.000000
2529.934717	5994.000000
2531.402490	6061.000000
2532.869998	6006.000000
2534.337241	6096.000000
2535.800992	6063.000000
2537.266093	6288.000000
2538.729317	6118.000000
2540.193891	6033.000000
2541.654975	6099.000000
2543.117409	6064.000000
2544.579580	5815.000000
2546.038265	6031.000000
2547.501522	5905.000000
2548.959682	6080.000000
2550.419191	6087.000000
2551.873606	6024.000000
2553.332592	6059.000000
2554.789706	5995.000000
2556.244949	5991.000000
2557.699931	5920.000000
2559.153043	5897.000000
2560.607504	6006.000000
2562.060095	6194.000000
2563.512427	5990.000000
2564.962892	6105.000000
2566.416312	6121.000000
2567.864650	5938.000000
2569.315944	5961.000000
2570.765371	5924.000000
2572.211326	5935.000000
2573.660236	5731.000000
2575.105676	5931.000000
2576.552463	6008.000000
2577.997388	5619.000000
2579.442054	6109.000000
2580.888068	5944.000000
2582.330616	5932.000000
2583.774511	5726.000000
2585.214941	5839.000000
2586.656718	5889.000000
2588.096636	5667.000000
2589.537901	5924.000000
2590.975704	5824.000000
2592.416457	5894.000000
2593.852148	5832.000000
2595.290788	5952.000000
2596.727570	5823.000000
2598.162497	5634.000000
2599.600371	5906.000000
2601.033188	5921.000000
2602.467352	5773.000000
2603.899662	5778.000000
2605.333318	5718.000000
2606.765121	5840.000000
2608.196670	5755.000000
2609.627967	5677.000000
2611.057411	5862.000000
2612.486603	5615.000000
2613.913945	5755.000000
2615.342632	5580.000000
2616.771068	5667.000000
2618.196056	5434.000000
2619.622391	5721.000000
2621.046877	5692.000000
2622.472709	5825.000000
2623.895097	5810.000000
2625.318831	5664.000000
2626.740718	5715.000000
2628.162356	5805.000000
2629.582148	5759.000000
2631.003286	5656.000000
2632.424174	5681.000000
2633.841624	5855.000000
2635.262013	5775.000000
2636.678965	5581.000000
2638.095668	5646.000000
2639.512123	5637.000000
2640.928330	5858.000000
2642.344289	5668.000000
2643.758407	5633.000000
2645.172277	5710.000000
2646.584309	5565.000000
2647.997684	5644.000000
2649.407630	5682.000000
2650.820512	5657.000000
2652.229965	5688.000000
2653.639172	5739.000000
2655.046543	5744.000000
2656.456848	5656.000000
2657.865318	5871.000000
2659.271952	5667.000000
2660.678341	5550.000000
2662.082896	5783.000000
2663.488795	5895.000000
2664.892861	5848.000000
2666.296682	5770.000000
2667.700259	5834.000000
2669.102005	5814.000000
2670.505094	5748.000000
2671.904765	5720.000000
2673.305780	5730.000000
2674.703379	5795.000000
2676.103908	5684.000000
2677.501021	5796.000000
2678.899479	5639.000000
2680.296108	5769.000000
2681.692495	5760.000000
2683.088640	5695.000000
2684.482960	5753.000000
2685.878621	5750.000000
2687.270874	5658.000000
2688.664469	5731.000000
2690.056240	5703.000000
2691.449354	5751.000000
2692.840644	5588.000000
2694.230111	5715.000000
2695.619338	5714.000000
2697.008326	5802.000000
2698.398655	5603.000000
2699.784001	5817.000000
2701.172270	5634.000000
2702.558719	5695.000000
2703.944929	5690.000000
2705.330900	5590.000000
2706.713473	5712.000000
2708.097388	5783.000000
2709.481065	5642.000000
2710.864503	5876.000000
2712.244547	5660.000000
2713.625931	5699.000000
2715.005501	5794.000000
2716.386411	5809.000000
2717.765507	5945.000000
2719.142789	5745.000000
2720.521412	5865.000000
2721.898222	5874.000000
2723.274795	5931.000000
2724.651133	5871.000000
2726.025660	5953.000000
2727.401527	5977.000000
2728.774007	5986.000000
2730.149403	5752.000000
2731.519839	5838.000000
2732.891616	5779.000000
2734.263158	5961.000000
2735.632892	5905.000000
2737.003967	6059.000000
2738.373233	5946.000000
2739.742266	5892.000000
2741.109493	6125.000000
2742.476487	6147.000000
2743.843247	6138.000000
2745.209776	6022.000000
2746.574499	6094.000000
2747.938990	6090.000000
2749.303250	6028.000000
2750.667277	6248.000000
2752.031073	6128.000000
2753.391495	6142.000000
2754.754827	6127.000000
2756.113217	6211.000000
2757.474517	6059.000000
2758.832447	6147.000000
2760.193285	6034.000000
2761.552324	6123.000000
2762.907994	6164.000000
2764.266572	6181.000000
2765.621783	6276.000000
2766.976765	6280.000000
2768.329951	6208.000000
2769.686043	6275.000000
2771.038770	6407.000000
2772.391270	6429.000000
2773.743541	6329.000000
2775.097151	6337.000000
2776.447399	6458.000000
2777.795853	6354.000000
2779.147213	6373.000000
2780.495213	6540.000000
2781.844551	6487.000000
2783.192098	6240.000000
2784.539417	6410.000000
2785.886510	6559.000000
2787.231812	6560.000000
2788.576887	6738.000000
2789.921737	6474.000000
2791.266361	6680.000000
2792.607633	6724.000000
2793.950243	6579.000000
2795.292627	6580.000000
2796.634786	6724.000000
2797.973597	6806.000000
2799.315306	6635.000000
2800.653668	6620.000000
2801.993366	6873.000000
2803.331280	6737.000000
2804.667409	6824.000000
2806.003314	6956.000000
2807.340557	6973.000000
2808.676016	7035.000000
2810.011252	7082.000000
2811.344705	7114.000000
2812.679495	7115.000000
2814.010945	7063.000000
2815.345290	6854.000000
2816.674737	7205.000000
2818.005521	7356.000000
2819.336083	7186.000000
2820.664866	7444.000000
2821.994985	7231.000000
2823.323326	7433.000000
2824.651446	7357.000000
2825.977788	7316.000000
2827.305467	7462.000000
2828.629812	7191.000000
2829.955494	7479.000000
2831.279400	7587.000000
2832.603087	7615.000000
2833.928109	7730.000000
2835.249801	7666.000000
2836.571275	7782.000000
2837.892530	7922.000000
2839.213566	8058.000000
2840.532829	7904.000000
2841.853428	7774.000000
2843.172256	7900.000000
2844.490865	8026.000000
2845.807703	7977.000000
2847.124324	8047.000000
2848.440728	8301.000000
2849.755362	8195.000000
2851.071332	8298.000000
2852.383981	8143.000000
2853.697965	8316.000000
2855.011733	8585.000000
2856.325285	8480.000000
2857.637069	8598.000000
2858.947087	8612.000000
2860.258440	8585.000000
2861.566478	8753.000000
2862.875850	8701.000000
2864.185008	8930.000000
2865.493950	8957.000000
2866.801128	9057.000000
2868.106544	9018.000000
2869.413294	9321.000000
2870.718281	9524.000000
2872.023055	9407.000000
2873.326067	9716.000000
2874.631960	9506.000000
2875.932999	9679.000000
2877.235372	9792.000000
2878.535985	9828.000000
2879.837932	9906.000000
2881.139666	10038.000000
2882.438095	10000.000000
2883.737858	9979.000000
2885.035864	10032.000000
2886.333658	10570.000000
2887.629696	10202.000000
2888.927067	10313.000000
2890.222682	10406.000000
2891.518086	10721.000000
2892.813279	10724.000000
2894.105175	10700.000000
2895.399947	10729.000000
2896.691422	10980.000000
2897.984230	11025.000000
2899.276828	11097.000000
2900.566132	11378.000000
2901.856768	11035.000000
2903.145653	11407.000000
2904.435870	11516.000000
2905.722796	11679.000000
2907.011054	11822.000000
2908.297563	11894.000000
2909.583864	11904.000000
2910.869956	11921.000000
2912.154300	12237.000000
2913.441515	12229.000000
2914.723904	12374.000000
2916.007625	12386.000000
2917.289600	12593.000000
2918.571367	12701.000000
2919.851390	13099.000000
2921.134282	12942.000000
2922.415429	13062.000000
2923.693294	13371.000000
2924.974028	13444.000000
2926.251481	13578.000000
2927.528728	13992.000000
2928.804233	13721.000000
2930.082606	13772.000000
2931.356165	13979.000000
2932.632591	14360.000000
2933.907276	14283.000000
2935.180220	14643.000000
2936.454496	14739.000000
2937.727032	14847.000000
2938.999363	15182.000000
2940.268422	15051.000000
2941.540346	15244.000000
2942.810532	15635.000000
2944.080514	15616.000000
2945.350293	15856.000000
2946.618336	16082.000000
2947.884642	16117.000000
2949.150747	16560.000000
2950.418181	16647.000000
2951.683881	16697.000000
2952.949378	17026.000000
2954.214673	17259.000000
2955.476703	17275.000000
2956.740063	17310.000000
2958.003222	18284.000000
2959.264649	18202.000000
2960.527405	18291.000000
2961.788429	18590.000000
2963.047723	18670.000000
2964.306817	19172.000000
2965.565710	19172.000000
2966.824403	19458.000000
2968.082896	19660.000000
2969.339660	19812.000000
2970.596224	20313.000000
2971.851061	20192.000000
2973.107226	20564.000000
2974.360137	21162.000000
2975.614377	20993.000000
2976.868418	21003.000000
2978.120733	21757.000000
2979.372849	22103.000000
2980.623241	21936.000000
2981.876488	22313.000000
2983.124958	22958.000000
2984.376283	22807.000000
2985.624358	23139.000000
2986.872237	23262.000000
2988.119918	23517.000000
2989.367402	24119.000000
2990.613165	24364.000000
2991.858732	24532.000000
2993.105626	24914.000000
2994.349276	25245.000000
2995.594254	25498.000000
2996.835988	26531.000000
2998.080574	26359.000000
2999.323441	26595.000000
3000.563067	26810.000000
3001.805543	27380.000000
3003.044779	27497.000000
3004.285343	27560.000000
3005.524191	28259.000000
3006.762843	28701.000000
3007.999781	28837.000000
3009.238045	29537.000000
3010.474594	30005.000000
3011.710950	29690.000000
3012.947112	30534.000000
3014.181560	30655.000000
3015.415816	31210.000000
3016.649878	32385.000000
3017.882228	32328.000000
3019.112866	32394.000000
3020.346350	33259.000000
3021.578122	33720.000000
3022.808184	33588.000000
3024.038054	34838.000000
3025.266214	34806.000000
3026.495700	34956.000000
3027.723477	35661.000000
3028.951064	36104.000000
3030.179976	36746.000000
3031.404146	37077.000000
3032.631159	37819.000000
3033.854948	38025.000000
3035.080064	38817.000000
3036.303473	39825.000000
3037.526692	39492.000000
3038.748206	40436.000000
3039.972561	40909.000000
3041.192181	41551.000000
3042.413127	41856.000000
3043.633884	42638.000000
3044.852937	43371.000000
3046.073316	43453.000000
3047.290477	44232.000000
3048.508965	44769.000000
3049.725750	45214.000000
3050.942348	46254.000000
3052.158757	46462.000000
3053.371954	46565.000000
3054.587988	47695.000000
3055.800810	48305.000000
3057.016469	49122.000000
3058.227405	48761.000000
3059.439666	49839.000000
3060.651741	50858.000000
3061.863628	50876.000000
3063.073819	51077.000000
3064.283823	52263.000000
3065.493641	52910.000000
3066.701763	53750.000000
3067.909700	53126.000000
3069.115941	54564.000000
3070.323507	54520.000000
3071.529378	54924.000000
3072.735065	55328.000000
3073.940566	56786.000000
3075.144374	56615.000000
3076.349506	57675.000000
3077.552946	58821.000000
3078.754693	58585.000000
3079.956256	59102.000000
3081.157636	59709.000000
3082.358832	60320.000000
3083.558338	60665.000000
3084.757661	60185.000000
3085.958307	61122.000000
3087.157263	61953.000000
3088.353025	61787.000000
3089.551616	62475.000000
3090.747013	62809.000000
3091.943733	63381.000000
3093.137261	63661.000000
3094.333617	64126.000000
3095.528287	64196.000000
3096.719766	64378.000000
3097.915576	64469.000000
3099.106693	64468.000000
3100.299132	64401.000000
3101.488384	64448.000000
3102.680461	64338.000000
3103.870855	64421.000000
3105.058063	64499.000000
3106.246594	64501.000000
3107.436446	64401.000000
3108.623115	64471.000000
3109.809604	64311.000000
3110.995913	64454.000000
3112.183544	64455.000000
3113.367993	64415.000000
3114.550763	64460.000000
3115.736355	64038.000000
3116.920268	64480.000000
3118.102502	64488.000000
3119.284557	64442.000000
3120.466434	64396.000000
3121.648133	64412.000000
3122.828155	64466.000000
3124.006500	64457.000000
3125.187665	64461.000000
3126.365656	64443.000000
3127.543469	64422.000000
3128.721105	64442.000000
3129.897066	64395.000000
3131.072850	64407.000000
3132.249956	64282.000000
3133.425387	64442.000000
3134.599145	64363.000000
3135.771230	64424.000000
3136.944637	64460.000000
3138.117867	64438.000000
3139.289426	64443.000000
3140.462305	64414.000000
3141.632017	64390.000000
3142.803050	64377.000000
3143.972413	64405.000000
3145.140105	64484.000000
3146.310614	64333.000000
3147.476463	64488.000000
3148.646621	64437.000000
3149.812123	64377.000000
3150.977450	64440.000000
3152.142605	64453.000000
3153.307585	64412.000000
3154.473885	64445.000000
3155.635533	64475.000000
3156.798500	64341.000000
3157.961295	64409.000000
3159.123917	64459.000000
3160.284874	64283.000000
3161.445658	64446.000000
3162.606270	64435.000000
3163.765218	64467.000000
3164.923995	64462.000000
3166.082600	64366.000000
3167.241033	64433.000000
3168.399294	64448.000000
3169.555893	64450.000000
3170.710831	64454.000000
3171.867088	64431.000000
3173.021684	64423.000000
3174.176110	64440.000000
3175.328876	64422.000000
3176.481472	64437.000000
3177.633897	64370.000000
3178.786153	64390.000000
3179.938238	64469.000000
3181.087178	64393.000000
3182.238924	64481.000000
3183.389012	64375.000000
3184.537444	64406.000000
3185.685706	64445.000000
3186.833800	64457.000000
3187.981725	64459.000000
3189.127994	64346.000000
3190.274096	64433.000000
3191.418542	64471.000000
3192.562821	64465.000000
3193.706932	64422.000000
3194.852360	64449.000000
3195.994650	64421.000000
3197.136773	64418.000000
3198.278728	64441.000000
3199.420516	64399.000000
3200.562137	64423.000000
3201.700623	64417.000000
3202.840426	64438.000000
3203.981547	64385.000000
3205.119533	64398.000000
3206.255870	64370.000000
3207.392041	64387.000000
3208.529529	64281.000000
3209.665369	64457.000000
3210.802526	64319.000000
3211.935070	64376.000000
3213.071896	64416.000000
3214.204110	64361.000000
3215.337641	64427.000000
3216.471008	64430.000000
3217.601247	64466.000000
3218.734284	64373.000000
3219.864195	64285.000000
3220.995422	64314.000000
3222.123525	64289.000000
3223.254424	64414.000000
3224.383679	64521.000000
3225.511291	64397.000000
3226.635780	64347.000000
3227.764545	64351.000000
3228.890188	64381.000000
3230.015669	64405.000000
3231.139508	64405.000000
3232.266141	64460.000000
3233.388177	64426.000000
3234.511529	64443.000000
3235.634719	64347.000000
3236.757747	64379.000000
3237.879135	64446.000000
3239.000361	64444.000000
3240.119950	64474.000000
3241.239377	64426.000000
3242.357166	64440.000000
3243.477747	64408.000000
3244.595215	64374.000000
3245.712522	64484.000000
3246.829669	64175.000000
3247.945180	64425.000000
3249.062005	64422.000000
3250.175721	64410.000000
3251.292226	64380.000000
3252.407097	64292.000000
3253.518859	64403.000000
3254.630461	64472.000000
3255.743379	64369.000000
3256.856137	64475.000000
3257.965789	64424.000000
3259.076756	64396.000000
3260.187564	64426.000000
3261.296740	64433.000000
3262.404286	64222.000000
3263.513145	64421.000000
3264.621847	64394.000000
3265.727446	64472.000000
3266.834359	64245.000000
3267.939643	63814.000000
3269.046241	64373.000000
3270.149739	64484.000000
3271.254552	64390.000000
3272.359207	64411.000000
3273.460763	64255.000000
3274.562163	64347.000000
3275.664878	64450.000000
3276.767435	64458.000000
3277.866896	64384.000000
3278.969141	64328.000000
3280.068290	64372.000000
3281.165815	64274.000000
3282.263184	64325.000000
3283.363335	64423.000000
3284.460394	64370.000000
3285.557297	64437.000000
3286.654045	64379.000000
3287.746235	64491.000000
3288.842673	64412.000000
3289.937489	64302.000000
3291.032151	64383.000000
3292.125191	64380.000000
3293.218077	64440.000000
3294.309342	64431.000000
3295.401919	64461.000000
3296.492877	64376.000000
3297.582215	64274.000000
3298.671400	64425.000000
3299.761898	64442.000000
3300.849311	64267.000000
3301.936571	64420.000000
3303.025144	64430.000000
3304.113565	64439.000000
3305.197438	64446.000000
3306.285553	64420.000000
3307.370587	64463.000000
3308.454004	64381.000000
3309.538734	64386.000000
3310.621849	64467.000000
3311.706275	64421.000000
3312.787623	64422.000000
3313.870283	64459.000000
3314.951329	64383.000000
3316.032224	64476.000000
3317.111505	64419.000000
3318.190636	64438.000000
3319.271079	64472.000000
3320.348447	64376.000000
3321.427127	64458.000000
3322.504195	64446.000000
3323.581114	64451.000000
3324.656421	64409.000000
3325.731579	64430.000000
3326.808048	64500.000000
3327.881447	64471.000000
3328.954697	64418.000000
3330.029257	64447.000000
3331.102209	64486.000000
3332.173552	64454.000000
3333.246206	64482.000000
3334.315794	64415.000000
3335.386692	64406.000000
3336.455983	64389.000000
3337.526585	64438.000000
3338.595580	64481.000000
3339.662969	64398.000000
3340.728753	64443.000000
3341.798763	64423.000000
3342.865710	64417.000000
3343.929595	64265.000000
3344.996248	64497.000000
3346.061296	64490.000000
3347.124741	64134.000000
3348.188040	64483.000000
3349.251192	64457.000000
3350.314198	64493.000000
3351.377058	64533.000000
3352.438316	64492.000000
3353.496517	64454.000000
3354.558938	64431.000000
3355.618304	64417.000000
3356.677524	64319.000000
3357.738054	64496.000000
3358.794074	64400.000000
3359.852858	64442.000000
3360.907135	64427.000000
3361.964176	64458.000000
3363.019618	64485.000000
3364.076370	64464.000000
3365.131523	64536.000000
3366.185079	64490.000000
3367.237039	64448.000000
3368.291760	64449.000000
3369.343432	64397.000000
3370.394961	64404.000000
3371.447798	64464.000000
3372.497588	64482.000000
3373.548687	64475.000000
3374.596740	64525.000000
3375.647552	64487.000000
3376.695320	64468.000000
3377.742945	64464.000000
3378.790427	64508.000000
3379.836317	64113.000000
3380.883515	64476.000000
3381.927671	64471.000000
3382.974585	64414.000000
3384.019907	64443.000000
3385.062188	64383.000000
3386.104329	64471.000000
3387.147777	64468.000000
3388.191084	64494.000000
3389.232802	64512.000000
3390.274378	64300.000000
3391.315814	64444.000000
3392.355660	64491.000000
3393.393918	64417.000000
3394.433484	64487.000000
3395.472910	64440.000000
3396.510748	64555.000000
3397.546999	64512.000000
3398.583111	64345.000000
3399.620530	64452.000000
3400.654916	64471.000000
3401.690609	64484.000000
3402.726163	64533.000000
3403.758686	64517.000000
3404.793962	64531.000000
3405.826207	64516.000000
3406.858314	64503.000000
3407.888837	64463.000000
3408.920667	64485.000000
3409.952359	64440.000000
3410.981023	64383.000000
3412.009550	64524.000000
3413.039383	64500.000000
3414.069079	64383.000000
3415.095749	64375.000000
3416.123726	64448.000000
3417.148678	64403.000000
3418.176380	64448.000000
3419.201059	64500.000000
3420.227044	64364.000000
3421.251449	64513.000000
3422.275718	64508.000000
3423.298408	64539.000000
3424.320962	64526.000000
3425.344822	64341.000000
3426.365662	64477.000000
3427.386366	64547.000000
3428.408377	64506.000000
3429.427369	64444.000000
3430.446226	64483.000000
3431.466388	64449.000000
3432.483534	64484.000000
