-116.773079	192.000000
-114.103479	137.000000
-111.436814	30.000000
-108.770901	83.000000
-106.107920	60.000000
-103.443510	161.000000
-100.782030	84.000000
-98.119121	114.000000
-95.461318	128.000000
-92.802086	76.000000
-90.143602	142.000000
-87.488042	120.000000
-84.831054	121.000000
-82.179164	106.000000
-79.525843	122.000000
-76.875443	69.000000
-74.223613	122.000000
-71.576874	143.000000
-68.928706	113.000000
-66.281280	111.000000
-63.636768	83.000000
-60.990828	150.000000
-58.349969	103.000000
-55.707681	97.000000
-53.068301	118.000000
-50.427493	166.000000
-47.787425	141.000000
-45.152429	152.000000
-42.516005	125.000000
-39.882483	153.000000
-37.247533	189.000000
-34.617648	151.000000
-31.984171	220.000000
-29.355756	197.000000
-26.728075	323.000000
-24.098965	307.000000
-21.474912	304.000000
-18.847270	337.000000
-16.224681	440.000000
-13.602824	700.000000
-10.981697	1062.000000
-8.361300	2528.000000
-5.743792	8538.000000
-3.124855	31272.000000
-0.508803	64448.000000
2.106520	64449.000000
4.721116	41458.000000
7.332829	3106.000000
9.945971	848.000000
12.554079	429.000000
15.165769	329.000000
17.772428	359.000000
20.380515	291.000000
22.987878	323.000000
25.590216	269.000000
28.196132	187.000000
30.797026	224.000000
33.399348	230.000000
35.996653	201.000000
38.597533	225.000000
41.193398	221.000000
43.790692	233.000000
46.387266	203.000000
48.978831	197.000000
51.571824	284.000000
54.161956	217.000000
56.753516	216.000000
59.342216	302.000000
61.932343	214.000000
64.517471	283.000000
67.104027	205.000000
69.689869	236.000000
72.272857	237.000000
74.857271	294.000000
77.434557	300.000000
80.015409	271.000000
82.593412	346.000000
85.170705	245.000000
87.749424	245.000000
90.323161	384.000000
92.898326	370.000000
95.470647	434.000000
98.042260	345.000000
100.611033	447.000000
103.181233	446.000000
105.748595	541.000000
108.317382	663.000000
110.883333	813.000000
113.446449	937.000000
116.013121	1277.000000
118.570572	1739.000000
121.133708	2368.000000
123.691884	3377.000000
126.253615	5161.000000
128.810389	7562.000000
131.368590	11628.000000
133.921837	17632.000000
136.474387	25597.000000
139.030487	35234.000000
141.581639	45438.000000
144.132094	54428.000000
146.681851	59559.000000
149.228789	62153.000000
151.775032	63408.000000
154.322700	64391.000000
156.869672	64490.000000
159.411709	64096.000000
161.953052	64161.000000
164.493702	63734.000000
167.035778	63496.000000
169.575042	63412.000000
172.111498	62787.000000
174.647262	62522.000000
177.184452	61786.000000
179.720951	61296.000000
182.254644	61217.000000
184.785533	60282.000000
187.315735	59794.000000
189.847361	58703.000000
192.376186	58314.000000
194.902212	57534.000000
197.427552	56753.000000
199.954318	55779.000000
202.478286	54512.000000
205.001570	53729.000000
207.524169	52201.000000
210.043975	51214.000000
212.563098	49874.000000
215.081538	48422.000000
217.601402	47743.000000
220.114265	46836.000000
222.630659	45487.000000
225.146371	43971.000000
227.657193	42952.000000
230.169440	42102.000000
232.678905	41229.000000
235.187691	40593.000000
237.695798	39596.000000
240.205330	38560.000000
242.709981	38045.000000
245.213956	36688.000000
247.719355	36265.000000
250.219879	34968.000000
252.723927	34539.000000
255.221003	33599.000000
257.721603	32891.000000
260.219431	32324.000000
262.716586	31207.000000
265.213068	30828.000000
267.704687	30148.000000
270.199826	29329.000000
272.692198	28506.000000
275.183901	28242.000000
277.672839	27586.000000
280.163202	26734.000000
282.650802	26197.000000
285.135643	25633.000000
287.623999	25307.000000
290.105415	24983.000000
292.590345	23909.000000
295.070430	23959.000000
297.554027	23301.000000
300.032781	23208.000000
302.512959	23214.000000
304.990384	22921.000000
307.467146	22594.000000
309.943245	22524.000000
312.416595	22268.000000
314.889283	22237.000000
317.361310	21457.000000
319.832676	21667.000000
322.301297	21399.000000
324.769260	21456.000000
327.238644	21193.000000
329.703206	21434.000000
332.171272	21500.000000
334.634518	21192.000000
337.097106	21392.000000
339.559038	20937.000000
342.020313	21086.000000
344.478854	20936.000000
346.938817	21235.000000
349.396047	20934.000000
351.852623	21071.000000
354.308545	21283.000000
356.761737	21258.000000
359.216352	20960.000000
361.666165	20891.000000
364.119474	21210.000000
366.567985	21042.000000
369.015844	20845.000000
371.465126	21170.000000
373.909614	21165.000000
376.355524	20711.000000
378.800784	20709.000000
381.243326	21221.000000
383.685220	21117.000000
386.126467	20961.000000
388.564998	20773.000000
391.004951	20853.000000
393.442190	21075.000000
395.876717	20781.000000
398.314732	21092.000000
400.747970	21235.000000
403.182629	20792.000000
405.612516	21396.000000
408.045888	21194.000000
410.474490	21201.000000
412.902450	21169.000000
415.331832	21161.000000
417.756448	21514.000000
420.182486	21673.000000
422.607883	21136.000000
425.032640	21419.000000
427.452639	21261.000000
429.874059	21375.000000
432.292782	21517.000000
434.712926	21505.000000
437.130375	21462.000000
439.549244	21447.000000
441.965420	21576.000000
444.376848	21367.000000
446.791754	21632.000000
449.203969	21427.000000
451.615550	21431.000000
454.026497	21521.000000
456.434758	21267.000000
458.842386	21611.000000
461.249382	21389.000000
463.655747	20954.000000
466.059429	20991.000000
468.462481	21164.000000
470.864903	21127.000000
473.266695	20877.000000
475.665810	20881.000000
478.066344	20706.000000
480.466249	20840.000000
482.861431	20966.000000
485.260080	20724.000000
487.654009	20803.000000
490.047312	21171.000000
492.439989	20451.000000
494.832041	20271.000000
497.225511	20040.000000
499.614270	19821.000000
502.000361	19768.000000
504.387873	19822.000000
506.774762	19316.000000
509.158987	18934.000000
511.544630	18837.000000
513.927612	18456.000000
516.307933	18518.000000
518.689673	18764.000000
521.068754	18482.000000
523.449254	18483.000000
525.827096	18193.000000
528.202283	18383.000000
530.576852	18134.000000
532.952839	17819.000000
535.326174	17948.000000
537.700926	18010.000000
540.070993	18364.000000
542.440444	18195.000000
544.811313	17860.000000
547.177502	17622.000000
549.545109	17928.000000
551.910070	17840.000000
554.274418	17960.000000
556.638153	18172.000000
559.003306	18298.000000
561.363787	18094.000000
563.725686	17798.000000
566.084944	17590.000000
568.441565	17341.000000
570.801630	17547.000000
573.155004	17201.000000
575.511823	17139.000000
577.866007	16884.000000
580.219583	16963.000000
582.572550	16838.000000
584.922885	16852.000000
587.274638	16844.000000
589.619714	16860.000000
591.970254	16636.000000
594.314120	16421.000000
596.663448	16525.000000
599.008127	16786.000000
601.350182	16928.000000
603.693654	16764.000000
606.034503	16687.000000
608.374750	16484.000000
610.712376	16733.000000
613.053437	16392.000000
615.389860	16099.000000
617.727700	16176.000000
620.062923	15912.000000
622.395530	16103.000000
624.729553	16020.000000
627.060962	16092.000000
629.391774	15916.000000
631.721987	15690.000000
634.051602	16082.000000
636.376595	15842.000000
638.707028	16080.000000
641.032841	15672.000000
643.356046	15553.000000
645.680668	15995.000000
648.002684	15920.000000
650.324106	15788.000000
652.642926	15658.000000
654.963161	15551.000000
657.282803	15870.000000
659.599844	15690.000000
661.916293	15628.000000
664.230144	15293.000000
666.545411	15568.000000
668.858081	15659.000000
671.172166	15367.000000
673.481651	15558.000000
675.792552	15191.000000
678.100860	15400.000000
680.408580	15152.000000
682.717714	15218.000000
685.022256	15377.000000
687.326212	15042.000000
689.629582	15037.000000
691.934366	15198.000000
694.234564	14758.000000
696.536176	15017.000000
698.837204	14721.000000
701.133649	14671.000000
703.431510	14910.000000
705.728787	14593.000000
708.025481	14781.000000
710.317599	14424.000000
712.613128	14812.000000
714.904083	14569.000000
717.196453	14745.000000
719.486248	14677.000000
721.775462	14543.000000
724.064097	14594.000000
726.350159	14473.000000
728.637636	14415.000000
730.922541	14335.000000
733.206869	14537.000000
735.488628	14420.000000
737.771801	14096.000000
740.054397	14442.000000
742.332437	14519.000000
744.611892	14533.000000
746.890771	14362.000000
749.169074	14292.000000
751.442828	14483.000000
753.717995	14428.000000
755.992589	14326.000000
758.264624	14247.000000
760.538072	14198.000000
762.808962	14270.000000
765.077296	14204.000000
767.347043	14156.000000
769.614236	14055.000000
771.880858	14209.000000
774.146910	14067.000000
776.410411	13921.000000
778.675325	13888.000000
780.939669	13986.000000
783.199484	13976.000000
785.460711	14364.000000
787.721371	14055.000000
789.979485	14144.000000
792.235054	14037.000000
794.494014	14364.000000
796.746475	13738.000000
799.004302	13968.000000
801.257611	13816.000000
803.508380	13759.000000
805.760561	13718.000000
808.010203	13633.000000
810.261258	13800.000000
812.507801	13549.000000
814.755756	13429.000000
817.001177	13299.000000
819.248009	13107.000000
821.494280	13446.000000
823.736046	13101.000000
825.981196	13081.000000
828.219873	13073.000000
830.461932	13034.000000
832.699493	13023.000000
834.938466	13097.000000
837.174912	12659.000000
839.412769	12829.000000
841.648101	12767.000000
843.880910	12756.000000
846.115130	12728.000000
848.346827	12490.000000
850.577970	12386.000000
852.808558	12284.000000
855.038592	12818.000000
857.268072	12380.000000
859.493070	12367.000000
861.721443	12124.000000
863.945337	12326.000000
866.170641	12178.000000
868.391470	12006.000000
870.615671	11820.000000
872.835399	11910.000000
875.056537	11749.000000
877.277126	11725.000000
879.495204	11656.000000
881.714692	11768.000000
883.929714	11783.000000
886.144189	11655.000000
888.358115	11543.000000
890.571495	11514.000000
892.784327	11152.000000
894.996613	11341.000000
897.206396	11234.000000
899.415634	11120.000000
901.624327	11205.000000
903.830521	11124.000000
906.038124	10891.000000
908.243229	10973.000000
910.447791	11081.000000
912.649858	10976.000000
914.853334	10762.000000
917.054316	10842.000000
919.254756	10691.000000
921.456605	10970.000000
923.652063	10814.000000
925.850880	10683.000000
928.045258	10705.000000
930.242994	10391.000000
932.436294	10983.000000
934.631003	10845.000000
936.823226	10612.000000
939.014910	10741.000000
941.206057	10720.000000
943.394721	10346.000000
945.582849	10463.000000
947.768496	10440.000000
949.957495	10511.000000
952.142071	10462.000000
954.326112	10366.000000
956.513503	10364.000000
958.692590	10268.000000
960.875028	10349.000000
963.056932	10516.000000
965.236361	10379.000000
967.413318	10186.000000
969.591683	10226.000000
971.771455	10389.000000
973.944878	10450.000000
976.121647	10368.000000
978.294009	10135.000000
980.467779	10241.000000
982.637145	10318.000000
984.809855	10332.000000
986.980100	10246.000000
989.149816	10178.000000
991.319003	10170.000000
993.483793	9985.000000
995.651924	10228.000000
997.815661	9974.000000
999.980804	10261.000000
1002.143488	9867.000000
1004.305647	10187.000000
1006.465349	10083.000000
1008.624526	10157.000000
1010.785110	10101.000000
1012.943240	10105.000000
1015.100845	9900.000000
1017.257927	9824.000000
1019.414485	9773.000000
1021.566664	9798.000000
1023.720250	9857.000000
1025.873314	9904.000000
1028.023929	9660.000000
1030.175951	9802.000000
1032.323599	10012.000000
1034.474579	9925.000000
1036.621188	9629.000000
1038.767278	9856.000000
1040.912850	9962.000000
1043.059827	9740.000000
1045.200515	9711.000000
1047.344533	9648.000000
1049.486110	9744.000000
1051.627171	9487.000000
1053.769636	9789.000000
1055.905822	9596.000000
1058.045334	9761.000000
1060.180490	9610.000000
1062.318971	9594.000000
1064.453098	9541.000000
1066.586712	9683.000000
1068.721731	9498.000000
1070.852400	9642.000000
1072.984474	9635.000000
1075.114119	9645.000000
1077.243252	9847.000000
1079.371873	9671.000000
1081.499983	9519.000000
1083.625667	9796.000000
1085.750841	9548.000000
1087.877419	9740.000000
1089.999659	9643.000000
1092.123304	9680.000000
1094.242614	9536.000000
1096.367154	9559.000000
1098.485448	9218.000000
1100.605147	9472.000000
1102.722427	9464.000000
1104.839201	9391.000000
1106.955468	9519.000000
1109.069319	9487.000000
1111.184575	9428.000000
1113.295507	9242.000000
1115.409752	9470.000000
1117.519676	9464.000000
1119.631004	9338.000000
1121.741827	9402.000000
1123.848334	9291.000000
1125.958151	9561.000000
1128.063653	9454.000000
1130.170558	9200.000000
1132.271248	9477.000000
1134.377150	9184.000000
1136.478743	9373.000000
1138.581739	9651.000000
1140.684234	9396.000000
1142.780522	9497.000000
1144.882018	9114.000000
1146.979210	9341.000000
1149.075905	9135.000000
1151.172101	9290.000000
1153.267800	9101.000000
1155.363000	9404.000000
1157.455804	9057.000000
1159.550011	9326.000000
1161.638026	9323.000000
1163.731239	9287.000000
1165.818264	9220.000000
1167.908588	9369.000000
1169.994625	9353.000000
1172.083959	9122.000000
1174.167112	9114.000000
1176.251667	9344.000000
1178.337624	9138.000000
1180.419299	9065.000000
1182.502376	9487.000000
1184.583067	9195.000000
1186.663266	9124.000000
1188.742974	9315.000000
1190.822191	9191.000000
1192.899026	9282.000000
1194.973480	9142.000000
1197.051225	9055.000000
1199.124701	9256.000000
1201.199577	9120.000000
1203.270186	9081.000000
1205.342196	9112.000000
1207.411831	9185.000000
1209.482866	9095.000000
1211.553413	9186.000000
1213.619699	9115.000000
1215.687386	9134.000000
1217.752701	9175.000000
1219.819416	9043.000000
1221.881875	9130.000000
1223.947619	9082.000000
1226.009109	9232.000000
1228.072000	9333.000000
1230.132523	8918.000000
1232.192562	8973.000000
1234.252119	9177.000000
1236.309310	9346.000000
1238.366020	9125.000000
1240.420366	9201.000000
1242.477994	9281.000000
1244.533259	9170.000000
1246.584283	9285.000000
1248.636707	9034.000000
1250.688651	9115.000000
1252.738237	9039.000000
1254.787344	9157.000000
1256.835973	9202.000000
1258.884123	9077.000000
1260.931794	9167.000000
1262.975235	9142.000000
1265.021952	9188.000000
1267.066315	9069.000000
1269.110202	8861.000000
1271.151737	8948.000000
1273.190923	8661.000000
1275.233382	8763.000000
1277.271618	8839.000000
1279.311253	8845.000000
1281.350413	8664.000000
1283.385354	8703.000000
1285.421694	8848.000000
1287.455690	8932.000000
1289.491083	9047.000000
1291.522264	8899.000000
1293.554842	9061.000000
1295.586949	9144.000000
1297.616715	9032.000000
1299.647879	9014.000000
1301.674835	9097.000000
1303.703189	8783.000000
1305.727339	8968.000000
1307.754753	9035.000000
1309.777965	8893.000000
1311.802575	8579.000000
1313.824851	8769.000000
1315.848524	8727.000000
1317.869864	8806.000000
1319.890736	8665.000000
1321.911141	8913.000000
1323.927353	8829.000000
1325.944962	8739.000000
1327.960243	8957.000000
1329.978783	8835.000000
1331.993134	8891.000000
1334.005159	9112.000000
1336.020441	9382.000000
1338.031538	9391.000000
1340.044032	9392.000000
1342.052343	9177.000000
1344.063909	8908.000000
1346.069437	8843.000000
1348.078220	8664.000000
1350.082825	8532.000000
1352.090684	8469.000000
1354.098081	8570.000000
1356.099447	8332.000000
1358.102209	8408.000000
1360.104512	8389.000000
1362.106355	8485.000000
1364.107738	8537.000000
1366.106808	8514.000000
1368.105419	8410.000000
1370.103572	8374.000000
1372.101266	8439.000000
1374.094798	8444.000000
1376.089726	8287.000000
1378.084196	8139.000000
1380.078210	8466.000000
1382.069917	8224.000000
1384.061169	8397.000000
1386.050115	8325.000000
1388.040456	8256.000000
1390.030342	7981.000000
1392.017924	8146.000000
1394.005053	8328.000000
1395.989880	8189.000000
1397.976102	8294.000000
1399.960024	8275.000000
1401.943493	8239.000000
1403.926509	8198.000000
1405.907228	8047.000000
1407.889341	8292.000000
1409.869158	8055.000000
1411.848523	8128.000000
1413.823750	8185.000000
1415.802215	8062.000000
1417.778387	8428.000000
1419.754110	8206.000000
1421.729383	8090.000000
1423.702365	8085.000000
1425.674899	8139.000000
1427.646985	8155.000000
1429.618624	8181.000000
1431.586134	8167.000000
1433.558718	8228.000000
1435.523497	8088.000000
1437.493347	8128.000000
1439.459074	8223.000000
1441.426193	8078.000000
1443.391029	8394.000000
1445.351745	8300.000000
1447.317529	8157.000000
1449.277358	8210.000000
1451.238581	8252.000000
1453.201196	8243.000000
1455.159696	8064.000000
1457.117753	8215.000000
1459.075369	8154.000000
1461.032542	8062.000000
1462.987440	8252.000000
1464.943731	8116.000000
1466.897747	8130.000000
1468.851322	8271.000000
1470.802625	7974.000000
1472.755321	8124.000000
1474.705745	8231.000000
1476.655729	7981.000000
1478.605275	8126.000000
1480.552552	8251.000000
1482.497561	8264.000000
1484.443963	8278.000000
1486.389927	8211.000000
1488.335454	8217.000000
1490.278715	8102.000000
1492.221541	8182.000000
1494.162103	8055.000000
1496.104056	8162.000000
1498.043747	8209.000000
1499.983004	8157.000000
1501.921825	8222.000000
1503.858387	8174.000000
1505.796340	8300.000000
1507.732034	8314.000000
1509.667295	8151.000000
1511.600300	8257.000000
1513.532872	8233.000000
1515.465012	8374.000000
1517.396720	8281.000000
1519.326174	8261.000000
1521.257019	8405.000000
1523.187432	8528.000000
1525.113773	8306.000000
1527.041505	8216.000000
1528.966986	8299.000000
1530.892038	8399.000000
1532.816661	8397.000000
1534.740855	8493.000000
1536.662801	8455.000000
1538.586138	8342.000000
1540.507228	8292.000000
1542.426075	8446.000000
1544.346310	8595.000000
1546.264303	8647.000000
1548.181869	8730.000000
1550.097193	8956.000000
1552.013907	8940.000000
1553.926566	8787.000000
1555.842429	8762.000000
1557.756052	9055.000000
1559.667438	9101.000000
1561.580212	9012.000000
1563.488937	9034.000000
1565.399051	9275.000000
1567.308742	9044.000000
1569.218010	9317.000000
1571.125044	9178.000000
1573.029845	9211.000000
1574.936035	9302.000000
1576.839993	9254.000000
1578.743530	9519.000000
1580.646647	9525.000000
1582.547534	9534.000000
1584.449810	9731.000000
1586.349858	9794.000000
1588.251293	9837.000000
1590.148695	9967.000000
1592.045678	9869.000000
1593.942243	10032.000000
1595.840196	10271.000000
1597.732314	10199.000000
1599.627625	10501.000000
1601.522519	10673.000000
1603.415191	10692.000000
1605.307446	10978.000000
1607.197482	10940.000000
1609.087102	11309.000000
1610.976307	11453.000000
1612.865097	11482.000000
1614.751669	11633.000000
1616.639629	11592.000000
1618.523572	11626.000000
1620.408902	11703.000000
1622.293819	11769.000000
1624.176522	11815.000000
1626.060612	11846.000000
1627.940691	11848.000000
1629.822156	12317.000000
1631.701411	12121.000000
1633.582052	11937.000000
1635.456889	12130.000000
1637.336707	12194.000000
1639.212521	12023.000000
1641.087924	12335.000000
1642.964713	11959.000000
1644.835706	11937.000000
1646.709880	12008.000000
1648.580056	11827.000000
1650.453412	11584.000000
1652.324565	11917.000000
1654.193516	11509.000000
1656.063852	11432.000000
1657.930196	11386.000000
1659.797925	11476.000000
1661.663455	11301.000000
1663.530371	11291.000000
1665.393298	10690.000000
1667.257610	10563.000000
1669.119726	10622.000000
1670.981437	10198.000000
1672.844534	10438.000000
1674.705435	10223.000000
1676.564144	10128.000000
1678.422449	10155.000000
1680.282139	9845.000000
1682.136061	9643.000000
1683.993157	9586.000000
1685.849850	9452.000000
1687.702566	9460.000000
1689.558454	9378.000000
1691.410368	9270.000000
1693.261881	9015.000000
1695.112993	8887.000000
1696.963705	8694.000000
1698.814016	8676.000000
1700.662142	8711.000000
1702.511653	8520.000000
1704.355415	8263.000000
1706.204126	8137.000000
1708.047091	7976.000000
1709.893223	7850.000000
1711.735392	7860.000000
1713.580727	7570.000000
1715.420321	7631.000000
1717.261299	7297.000000
1719.103660	7451.000000
1720.942065	7149.000000
1722.781853	7145.000000
1724.619466	6926.000000
1726.456683	6855.000000
1728.291727	6744.000000
1730.128154	6740.000000
1731.962409	6841.000000
1733.796269	6661.000000
1735.629735	6514.000000
1737.459256	6600.000000
1739.291935	6440.000000
1741.120670	6398.000000
1742.952562	6331.000000
1744.780512	6321.000000
1746.608071	6223.000000
1748.435237	6234.000000
1750.262012	6218.000000
1752.088395	6041.000000
1753.910842	6029.000000
1755.736444	6039.000000
1757.558111	5944.000000
1759.381160	6127.000000
1761.202047	5881.000000
1763.022546	5918.000000
1764.844426	5790.000000
1766.660606	5812.000000
1768.479938	5766.000000
1770.295343	5826.000000
1772.113898	5595.000000
1773.928528	5683.000000
1775.742771	5589.000000
1777.556628	5667.000000
1779.370098	5746.000000
1781.181415	5696.000000
1782.994112	5600.000000
1784.806424	5439.000000
1786.614818	5534.000000
1788.424592	5635.000000
1790.230452	5532.000000
1792.039457	5586.000000
1793.844549	5364.000000
1795.651022	5243.000000
1797.457111	5362.000000
1799.259289	5352.000000
1801.064612	5451.000000
1802.866026	5312.000000
1804.668820	5430.000000
1806.467708	5507.000000
1808.267977	5297.000000
1810.067864	5308.000000
1811.865609	5302.000000
1813.662974	5319.000000
1815.459959	5294.000000
1817.256563	5214.000000
1819.051028	5326.000000
1820.846872	5099.000000
1822.637061	5260.000000
1824.432147	5187.000000
1826.221581	5133.000000
1828.014151	5237.000000
1829.804586	5216.000000
1831.592887	5168.000000
1833.384323	5232.000000
1835.170113	5149.000000
1836.957283	4949.000000
1838.742321	5076.000000
1840.530493	5107.000000
1842.314779	5312.000000
1844.096935	5283.000000
1845.880471	5070.000000
1847.661878	5092.000000
1849.444664	4992.000000
1851.223569	5170.000000
1853.003854	5064.000000
1854.782012	4939.000000
1856.561549	5094.000000
1858.338961	5062.000000
1860.114249	5159.000000
1861.890915	5123.000000
1863.665459	5167.000000
1865.441381	5107.000000
1867.211682	5091.000000
1868.985111	4976.000000
1870.756420	5029.000000
1872.527358	4958.000000
1874.299674	4999.000000
1876.066376	5038.000000
1877.836204	4934.000000
1879.602168	5051.000000
1881.371255	4981.000000
1883.136481	4872.000000
1884.901339	4955.000000
1886.667574	4977.000000
1888.429950	4937.000000
1890.191959	4971.000000
1891.953600	4886.000000
1893.714875	4886.000000
1895.475782	4908.000000
1897.236323	4973.000000
1898.994754	4986.000000
1900.752819	5000.000000
1902.508777	4859.000000
1904.266111	4897.000000
1906.023080	4792.000000
1907.777942	4876.000000
1909.530700	4794.000000
1911.283093	4754.000000
1913.036863	4865.000000
1914.788529	4928.000000
1916.538093	4918.000000
1918.289032	4897.000000
1920.039609	4817.000000
1921.786346	4905.000000
1923.534460	4890.000000
1925.280474	4971.000000
1927.027863	5099.000000
1928.773155	4877.000000
1930.516349	5085.000000
1932.260918	5008.000000
1934.003392	4879.000000
1935.745505	4916.000000
1937.487258	4978.000000
1939.228652	4941.000000
1940.967951	4980.000000
1942.706892	4998.000000
1944.445474	5006.000000
1946.181965	4988.000000
1947.918098	5073.500000
1949.655605	5159.000000
1951.389290	5047.000000
1953.124350	4857.000000
1954.857321	5142.000000
1956.589936	5053.000000
1958.322195	5103.000000
1960.054097	5136.000000
1961.783913	5175.000000
1963.511644	5083.000000
1965.240750	5142.000000
1966.969501	5084.000000
1968.696168	5236.000000
1970.422481	5052.000000
1972.150167	5102.000000
1973.872317	4998.000000
1975.597568	5170.000000
1977.319012	5309.000000
1979.043557	5288.000000
1980.766021	5201.000000
1982.484683	5321.000000
1984.206443	5331.000000
1985.924401	5205.000000
1987.643732	5304.000000
1989.359264	5273.000000
1991.079616	5325.000000
1992.796170	5213.000000
1994.508927	5339.000000
1996.224780	5486.000000
1997.938561	5153.000000
1999.651992	5310.000000
2001.363352	5179.000000
2003.076084	5366.000000
2004.785026	5364.000000
2006.497060	5411.000000
2008.203586	5273.000000
2009.913203	5354.000000
2011.620754	5459.000000
2013.327956	5438.000000
2015.033093	5420.000000
2016.737884	5480.000000
2018.444046	5392.000000
2020.146426	5454.000000
2021.850177	5258.000000
2023.551866	5502.000000
2025.253210	5654.000000
2026.954208	5462.000000
2028.653145	5541.000000
2030.353454	5555.000000
2032.049988	5545.000000
2033.747893	5621.000000
2035.443739	5427.000000
2037.142671	5551.000000
2038.836117	5400.000000
2040.530934	5525.000000
2042.225409	5613.000000
2043.916115	5716.000000
2045.609905	5494.000000
2047.299928	5590.000000
2048.991322	5583.000000
2050.680663	5765.000000
2052.371374	5601.000000
2054.058322	5529.000000
2055.744931	5505.000000
2057.432909	5578.000000
2059.117128	5639.000000
2060.802718	5390.000000
2062.487968	5547.000000
2064.171170	5442.000000
2065.855741	5332.000000
2067.534850	5503.000000
2069.218744	5568.000000
2070.897177	5590.000000
2072.578688	5423.000000
2074.256447	5512.000000
2075.933870	5514.000000
2077.612662	5500.000000
2079.289412	5495.000000
2080.964120	5510.000000
2082.640197	5580.000000
2084.314234	5521.000000
2085.987935	5526.000000
2087.661301	5461.000000
2089.332628	5554.000000
2091.003622	5496.000000
2092.674280	5689.000000
2094.344605	5593.000000
2096.014596	5587.000000
2097.682551	5501.000000
2099.350173	5556.000000
2101.015760	5561.000000
2102.682716	5645.000000
2104.347639	5746.000000
2106.012230	5601.000000
2107.674789	5594.000000
2109.338716	5793.000000
2111.000612	5584.000000
2112.662178	5615.000000
2114.323412	5709.000000
2115.982618	5786.000000
2117.641493	5524.000000
2119.300039	5695.000000
2120.958255	5744.000000
2122.612747	5597.000000
2124.270304	5563.000000
2125.927532	5700.000000
2127.581038	5576.000000
2129.235912	5673.000000
2130.887067	5493.000000
2132.541285	5628.000000
2134.191786	5482.000000
2135.843653	5642.000000
2137.490112	5730.000000
2139.141326	5517.000000
2140.788826	5600.000000
2142.437693	5635.000000
2144.084541	5653.000000
2145.731064	5566.000000
2147.377261	5561.000000
2149.019750	5500.000000
2150.665297	5582.000000
2152.307137	5415.000000
2153.952034	5465.000000
2155.593226	5483.000000
2157.234094	5668.000000
2158.874638	5478.000000
2160.513170	5580.000000
2162.153068	5571.000000
2163.789266	5503.000000
2165.426830	5441.000000
2167.064072	5479.000000
2168.699304	5431.000000
2170.334215	5367.000000
2171.968804	5340.000000
2173.603071	5282.000000
2175.233645	5412.000000
2176.867271	5158.000000
2178.497205	5216.000000
2180.128504	5270.000000
2181.757798	5235.000000
2183.386773	5178.000000
2185.015428	5186.000000
2186.643764	5322.000000
2188.270098	5305.000000
2189.896113	5075.000000
2191.520126	5054.000000
2193.145505	5239.000000
2194.768883	5116.000000
2196.393626	5081.000000
2198.014688	5040.000000
2199.635433	5239.000000
2201.257543	4966.000000
2202.877655	5100.000000
2204.495770	5061.000000
2206.113570	5030.000000
2207.731055	5012.000000
2209.348224	5007.000000
2210.965078	4964.000000
2212.581616	4892.000000
2214.196162	5127.000000
2215.808715	4978.000000
2217.422632	4974.000000
2219.034558	4884.000000
2220.647847	4783.000000
2222.259146	4963.000000
2223.868455	4866.000000
2225.479128	4699.000000
2227.087812	4663.000000
2228.696183	4774.000000
2230.302568	4756.000000
2231.910316	4885.000000
2233.516077	4800.000000
2235.121527	4685.000000
2236.724992	4684.000000
2238.329820	4736.000000
2239.932664	4833.000000
2241.533525	4668.000000
2243.135749	4657.000000
2244.735991	4612.000000
2246.337595	4609.000000
2247.935547	4610.000000
2249.534860	4693.000000
2251.132194	4714.000000
2252.729220	4501.000000
2254.327608	4449.000000
2255.922347	4668.000000
2257.515109	4615.000000
2259.109234	4559.000000
2260.704720	4604.000000
2262.296561	4569.000000
2263.888096	4302.000000
2265.480993	4528.000000
2267.068580	4490.000000
2268.660863	4461.000000
2270.247840	4595.000000
2271.837844	4342.000000
2273.422544	4576.000000
2275.011938	4491.000000
2276.596030	4458.000000
2278.181483	4510.000000
2279.764966	4479.000000
2281.351475	4260.000000
2282.934351	4249.000000
2284.516924	4232.000000
2286.099193	4341.000000
2287.677832	4268.000000
2289.259496	4246.000000
2290.837531	4307.000000
2292.418589	4266.000000
2293.996020	4288.000000
2295.571488	4310.000000
2297.149978	4045.000000
2298.724844	4181.000000
2300.299409	3971.000000
2301.873674	4269.000000
2303.447638	4160.000000
2305.021301	4173.000000
2306.594665	3997.000000
2308.164410	4069.000000
2309.733856	4077.000000
2311.306320	4110.000000
2312.873510	4037.000000
2314.443718	4018.000000
2316.010311	4051.000000
2317.578264	3941.000000
2319.144261	3992.000000
2320.709961	4091.000000
2322.275363	4018.000000
2323.838812	3988.000000
2325.403620	4051.000000
2326.964820	4218.000000
2328.529034	4308.000000
2330.087986	4219.000000
2331.649953	4184.000000
2333.209968	4122.000000
2334.769689	3818.000000
2336.327460	4018.000000
2337.884936	3854.000000
2339.442118	4062.000000
2340.997352	3921.000000
2342.552293	3895.000000
2344.106939	3779.000000
2345.661292	3933.000000
2347.215352	3891.000000
2348.769117	3911.000000
2350.320939	3868.000000
2351.870817	3932.000000
2353.423703	3957.000000
2354.971347	3926.000000
2356.521998	3844.000000
2358.069058	3928.000000
2359.617476	3809.000000
2361.165603	3858.000000
2362.710141	3805.000000
2364.256037	4014.000000
2365.799995	3761.000000
2367.345310	3900.000000
2368.887040	3822.000000
2370.430127	3798.000000
2371.971278	3771.000000
2373.512140	3752.000000
2375.052713	3824.000000
2376.592997	3819.000000
2378.132992	3634.000000
2379.669409	3782.000000
2381.208827	3729.000000
2382.744668	3676.000000
2384.281865	3722.000000
2385.815487	3571.000000
2387.352109	3681.000000
2388.886801	3768.000000
2390.419563	3733.000000
2391.952038	3695.000000
2393.482585	3634.000000
2395.016130	3656.000000
2396.544464	3610.000000
2398.074155	3755.000000
2399.603559	3816.000000
2401.132679	3669.000000
2402.661514	3709.000000
2404.185143	3561.000000
2405.713408	3644.000000
2407.236471	3668.000000
2408.764167	3593.000000
2410.285024	3608.000000
2411.810514	3569.000000
2413.332443	3602.000000
2414.855728	3657.000000
2416.377091	3534.000000
2417.896535	3567.000000
2419.417335	3722.000000
2420.936215	3530.000000
2422.454813	3582.000000
2423.971494	3629.000000
2425.489529	3548.000000
2427.007283	3619.000000
2428.521486	3521.000000
2430.035408	3454.000000
2431.549050	3447.000000
2433.064047	3543.000000
2434.575495	3453.000000
2436.088298	3497.000000
2437.599187	3575.000000
2439.109798	3410.000000
2440.618497	3551.000000
2442.130182	3445.000000
2443.638324	3616.000000
2445.146188	3478.000000
2446.653774	3325.000000
2448.157819	3378.000000
2449.664849	3403.000000
2451.169972	3496.000000
2452.674816	3459.000000
2454.177754	3387.000000
2455.680416	3237.000000
2457.182801	3292.000000
2458.683281	3358.000000
2460.185114	3314.000000
2461.685042	3352.000000
2463.184695	3507.000000
2464.684073	3144.000000
2466.181548	3181.000000
2467.677121	3225.000000
2469.175674	3201.000000
2470.670699	3316.000000
2472.167076	3208.000000
2473.659927	3232.000000
2475.154131	3165.000000
2476.648061	3390.000000
2478.138467	3310.000000
2479.631851	3398.000000
2481.123337	3145.000000
2482.612926	3427.000000
2484.102243	3262.000000
2485.589664	3299.000000
2487.080061	3199.000000
2488.566940	3351.000000
2490.055170	3172.000000
2491.539884	3291.000000
2493.024327	3072.000000
2494.510121	3292.000000
2495.994024	3246.000000
2497.479277	3086.000000
2498.959397	3182.000000
2500.442490	3128.000000
2501.923692	3104.000000
2503.404625	3305.000000
2504.883669	3138.000000
2506.362444	3167.000000
2507.840951	3334.000000
2509.319190	3216.000000
2510.797160	3299.000000
2512.271625	3089.000000
2513.749060	3198.000000
2515.222991	3179.000000
2516.698272	3279.000000
2518.173286	3136.000000
2519.644800	3293.000000
2521.117663	3295.000000
2522.588644	3036.000000
2524.060975	3270.000000
2525.528192	3068.000000
2526.998376	3200.000000
2528.466679	3130.000000
2529.934717	3082.000000
2531.402490	3161.000000
2532.869998	3306.000000
2534.337241	3131.000000
2535.800992	3085.000000
2537.266093	3205.000000
2538.729317	3161.000000
2540.193891	3228.000000
2541.654975	3082.000000
2543.117409	3205.000000
2544.579580	3129.000000
2546.038265	3155.000000
2547.501522	3130.000000
2548.959682	3023.000000
2550.419191	3100.000000
2551.873606	3095.000000
2553.332592	3186.000000
2554.789706	3081.000000
2556.244949	3163.000000
2557.699931	3196.000000
2559.153043	3202.000000
2560.607504	3209.000000
2562.060095	2958.000000
2563.512427	3036.000000
2564.962892	3026.000000
2566.416312	3050.000000
2567.864650	3042.000000
2569.315944	3046.000000
2570.765371	3080.000000
2572.211326	3098.000000
2573.660236	2945.000000
2575.105676	3181.000000
2576.552463	3199.000000
2577.997388	2934.000000
2579.442054	3019.000000
2580.888068	2985.000000
2582.330616	3013.000000
2583.774511	3054.000000
2585.214941	2997.000000
2586.656718	3048.000000
2588.096636	2948.000000
2589.537901	2947.000000
2590.975704	3005.000000
2592.416457	2985.000000
2593.852148	2952.000000
2595.290788	3095.000000
2596.727570	3013.000000
2598.162497	2915.000000
2599.600371	3040.000000
2601.033188	2965.000000
2602.467352	3126.000000
2603.899662	3029.000000
2605.333318	2993.000000
2606.765121	3038.000000
2608.196670	3031.000000
2609.627967	2956.000000
2611.057411	3014.000000
2612.486603	2947.000000
2613.913945	3061.000000
2615.342632	3050.000000
2616.771068	2848.000000
2618.196056	3006.000000
2619.622391	2914.000000
2621.046877	3005.000000
2622.472709	2879.000000
2623.895097	2922.000000
2625.318831	2949.000000
2626.740718	2851.000000
2628.162356	2930.000000
2629.582148	2908.000000
2631.003286	2881.000000
2632.424174	2993.000000
2633.841624	2947.000000
2635.262013	2972.000000
2636.678965	2878.000000
2638.095668	2935.000000
2639.512123	2928.000000
2640.928330	3022.000000
2642.344289	2952.000000
2643.758407	3085.000000
2645.172277	3027.000000
2646.584309	2967.000000
2647.997684	2965.000000
2649.407630	2900.000000
2650.820512	2864.000000
2652.229965	2824.000000
2653.639172	2859.000000
2655.046543	2867.000000
2656.456848	2926.000000
2657.865318	2925.000000
2659.271952	3040.000000
2660.678341	2902.000000
2662.082896	2952.000000
2663.488795	2896.000000
2664.892861	2977.000000
2666.296682	2918.000000
2667.700259	3027.000000
2669.102005	2825.000000
2670.505094	3042.000000
2671.904765	2911.000000
2673.305780	2963.000000
2674.703379	2906.000000
2676.103908	2975.000000
2677.501021	2826.000000
2678.899479	2930.000000
2680.296108	2996.000000
2681.692495	2945.000000
2683.088640	3070.000000
2684.482960	2793.000000
2685.878621	3018.000000
2687.270874	3056.000000
2688.664469	2949.000000
2690.056240	3089.000000
2691.449354	2893.000000
2692.840644	3053.000000
2694.230111	2923.000000
2695.619338	2921.000000
2697.008326	3113.000000
2698.398655	3001.000000
2699.784001	3119.000000
2701.172270	2980.000000
2702.558719	2959.000000
2703.944929	2898.000000
2705.330900	2891.000000
2706.713473	2850.000000
2708.097388	2906.000000
2709.481065	3072.000000
2710.864503	3072.000000
2712.244547	2993.000000
2713.625931	3015.000000
2715.005501	3211.000000
2716.386411	3084.000000
2717.765507	3130.000000
2719.142789	2949.000000
2720.521412	3129.000000
2721.898222	3000.000000
2723.274795	2944.000000
2724.651133	3051.000000
2726.025660	3092.000000
2727.401527	3167.000000
2728.774007	3128.000000
2730.149403	3109.000000
2731.519839	3037.000000
2732.891616	3015.000000
2734.263158	3069.000000
2735.632892	3018.000000
2737.003967	3151.000000
2738.373233	3153.000000
2739.742266	3135.000000
2741.109493	2991.000000
2742.476487	3005.000000
2743.843247	3050.000000
2745.209776	3141.000000
2746.574499	2942.000000
2747.938990	3153.000000
2749.303250	3241.000000
2750.667277	3139.000000
2752.031073	3027.000000
2753.391495	3111.000000
2754.754827	3131.000000
2756.113217	3206.000000
2757.474517	3164.000000
2758.832447	3187.000000
2760.193285	3132.000000
2761.552324	3226.000000
2762.907994	3270.000000
2764.266572	3116.000000
2765.621783	3176.000000
2766.976765	3286.000000
2768.329951	3279.000000
2769.686043	3311.000000
2771.038770	3285.000000
2772.391270	3294.000000
2773.743541	3238.000000
2775.097151	3230.000000
2776.447399	3392.000000
2777.795853	3229.000000
2779.147213	3247.000000
2780.495213	3339.000000
2781.844551	3249.000000
2783.192098	3328.000000
2784.539417	3287.000000
2785.886510	3403.000000
2787.231812	3260.000000
2788.576887	3388.000000
2789.921737	3303.000000
2791.266361	3406.000000
2792.607633	3338.000000
2793.950243	3466.000000
2795.292627	3419.000000
2796.634786	3378.000000
2797.973597	3494.000000
2799.315306	3377.000000
2800.653668	3434.000000
2801.993366	3551.000000
2803.331280	3598.000000
2804.667409	3573.000000
2806.003314	3605.000000
2807.340557	3433.000000
2808.676016	3576.000000
2810.011252	3661.000000
2811.344705	3507.000000
2812.679495	3713.000000
2814.010945	3507.000000
2815.345290	3692.000000
2816.674737	3585.000000
2818.005521	3787.000000
2819.336083	3637.000000
2820.664866	3764.000000
2821.994985	3703.000000
2823.323326	3749.000000
2824.651446	3770.000000
2825.977788	3786.000000
2827.305467	3741.000000
2828.629812	3918.000000
2829.955494	3885.000000
2831.279400	3987.000000
2832.603087	3852.000000
2833.928109	3917.000000
2835.249801	3883.000000
2836.571275	3849.000000
2837.892530	3946.000000
2839.213566	3934.000000
2840.532829	4053.000000
2841.853428	4015.000000
2843.172256	3967.000000
2844.490865	4153.000000
2845.807703	3973.000000
2847.124324	4232.000000
2848.440728	4190.000000
2849.755362	4249.000000
2851.071332	4111.000000
2852.383981	4040.000000
2853.697965	4265.000000
2855.011733	4277.000000
2856.325285	4247.000000
2857.637069	4244.000000
2858.947087	4378.000000
2860.258440	4440.000000
2861.566478	4311.000000
2862.875850	4446.000000
2864.185008	4569.000000
2865.493950	4563.000000
2866.801128	4800.000000
2868.106544	4793.000000
2869.413294	4767.000000
2870.718281	4659.000000
2872.023055	4828.000000
2873.326067	4786.000000
2874.631960	4895.000000
2875.932999	5017.000000
2877.235372	4832.000000
2878.535985	5024.000000
2879.837932	4838.000000
2881.139666	5082.000000
2882.438095	5059.000000
2883.737858	5034.000000
2885.035864	5168.000000
2886.333658	5103.000000
2887.629696	5156.000000
2888.927067	5261.000000
2890.222682	5144.000000
2891.518086	5278.000000
2892.813279	5422.000000
2894.105175	5520.000000
2895.399947	5435.000000
2896.691422	5588.000000
2897.984230	5663.000000
2899.276828	5397.000000
2900.566132	5642.000000
2901.856768	5539.000000
2903.145653	5539.000000
2904.435870	5687.000000
2905.722796	5863.000000
2907.011054	5789.000000
2908.297563	5832.000000
2909.583864	5952.000000
2910.869956	6070.000000
2912.154300	6126.000000
2913.441515	6213.000000
2914.723904	6170.000000
2916.007625	6303.000000
2917.289600	6251.000000
2918.571367	6392.000000
2919.851390	6612.000000
2921.134282	6644.000000
2922.415429	6652.000000
2923.693294	6636.000000
2924.974028	6666.000000
2926.251481	6534.000000
2927.528728	6794.000000
2928.804233	6795.000000
2930.082606	6994.000000
2931.356165	6961.000000
2932.632591	7095.000000
2933.907276	7021.000000
2935.180220	7216.000000
2936.454496	7248.000000
2937.727032	7331.000000
2938.999363	7492.000000
2940.268422	7542.000000
2941.540346	7638.000000
2942.810532	7854.000000
2944.080514	7768.000000
2945.350293	7950.000000
2946.618336	7867.000000
2947.884642	7989.000000
2949.150747	8052.000000
2950.418181	8154.000000
2951.683881	8265.000000
2952.949378	8440.000000
2954.214673	8551.000000
2955.476703	8900.000000
2956.740063	8906.000000
2958.003222	8758.000000
2959.264649	9132.000000
2960.527405	8962.000000
2961.788429	9424.000000
2963.047723	9439.000000
2964.306817	9572.000000
2965.565710	9426.000000
2966.824403	9643.000000
2968.082896	9692.000000
2969.339660	9838.000000
2970.596224	10178.000000
2971.851061	10183.000000
2973.107226	10288.000000
2974.360137	10552.000000
2975.614377	10379.000000
2976.868418	10747.000000
2978.120733	10589.000000
2979.372849	10957.000000
2980.623241	11014.000000
2981.876488	10936.000000
2983.124958	11181.000000
2984.376283	11289.000000
2985.624358	11505.000000
2986.872237	11723.000000
2988.119918	11648.000000
2989.367402	11993.000000
2990.613165	12221.000000
2991.858732	12285.000000
2993.105626	12282.000000
2994.349276	12373.000000
2995.594254	12504.000000
2996.835988	12687.000000
2998.080574	12999.000000
2999.323441	12978.000000
3000.563067	13358.000000
3001.805543	13383.000000
3003.044779	13922.000000
3004.285343	13880.000000
3005.524191	14271.000000
3006.762843	14027.000000
3007.999781	13989.000000
3009.238045	14426.000000
3010.474594	14660.000000
3011.710950	14996.000000
3012.947112	15003.000000
3014.181560	15169.000000
3015.415816	15449.000000
3016.649878	15955.000000
3017.882228	15618.000000
3019.112866	16340.000000
3020.346350	16221.000000
3021.578122	16295.000000
3022.808184	16573.000000
3024.038054	16984.000000
3025.266214	17420.000000
3026.495700	17331.000000
3027.723477	17679.000000
3028.951064	17865.000000
3030.179976	17930.000000
3031.404146	18237.000000
3032.631159	18864.000000
3033.854948	18830.000000
3035.080064	19303.000000
3036.303473	19418.000000
3037.526692	19681.000000
3038.748206	19914.000000
3039.972561	20207.000000
3041.192181	20668.000000
3042.413127	20763.000000
3043.633884	21019.000000
3044.852937	21247.000000
3046.073316	21422.000000
3047.290477	21572.000000
3048.508965	22526.000000
3049.725750	22479.000000
3050.942348	23046.000000
3052.158757	22821.000000
3053.371954	23421.000000
3054.587988	24045.000000
3055.800810	23920.000000
3057.016469	24485.000000
3058.227405	24851.000000
3059.439666	25167.000000
3060.651741	25431.000000
3061.863628	25708.000000
3063.073819	25947.000000
3064.283823	26193.000000
3065.493641	26786.000000
3066.701763	27247.000000
3067.909700	27158.000000
3069.115941	27535.000000
3070.323507	28163.000000
3071.529378	28542.500000
3072.735065	28922.000000
3073.940566	29549.000000
3075.144374	29650.000000
3076.349506	29715.000000
3077.552946	30909.000000
3078.754693	30873.000000
3079.956256	31597.000000
3081.157636	31765.000000
3082.358832	32362.000000
3083.558338	32644.000000
3084.757661	32939.000000
3085.958307	33065.000000
3087.157263	33481.000000
3088.353025	34207.000000
3089.551616	34413.000000
3090.747013	35042.000000
3091.943733	35999.000000
3093.137261	35692.000000
3094.333617	36264.000000
3095.528287	37079.000000
3096.719766	37419.000000
3097.915576	37801.000000
3099.106693	38358.000000
3100.299132	38988.000000
3101.488384	38864.000000
3102.680461	39687.000000
3103.870855	40133.000000
3105.058063	40173.000000
3106.246594	41125.000000
3107.436446	41716.000000
3108.623115	41852.000000
3109.809604	42697.000000
3110.995913	42857.000000
3112.183544	43413.000000
3113.367993	43558.000000
3114.550763	44080.000000
3115.736355	44621.000000
3116.920268	45287.000000
3118.102502	45855.000000
3119.284557	46335.000000
3120.466434	47321.000000
3121.648133	47516.000000
3122.828155	47654.000000
3124.006500	48811.000000
3125.187665	48998.000000
3126.365656	49481.000000
3127.543469	49914.000000
3128.721105	50591.000000
3129.897066	51004.000000
3131.072850	51763.000000
3132.249956	51867.000000
3133.425387	52003.000000
3134.599145	52578.000000
3135.771230	53444.000000
3136.944637	54062.000000
3138.117867	54491.000000
3139.289426	54916.000000
3140.462305	55253.000000
3141.632017	55895.000000
3142.803050	56351.000000
3143.972413	57364.000000
3145.140105	57048.000000
3146.310614	57901.000000
3147.476463	58007.000000
3148.646621	57902.000000
3149.812123	58774.000000
3150.977450	58925.000000
3152.142605	59245.000000
3153.307585	60086.000000
3154.473885	60023.000000
3155.635533	60290.000000
3156.798500	60059.000000
3157.961295	60555.000000
3159.123917	60745.000000
3160.284874	60594.000000
3161.445658	61229.000000
3162.606270	61174.000000
3163.765218	61307.000000
3164.923995	61423.000000
3166.082600	62025.000000
3167.241033	62009.000000
3168.399294	62521.000000
3169.555893	62682.000000
3170.710831	62897.000000
3171.867088	63151.000000
3173.021684	63201.000000
3174.176110	63805.000000
3175.328876	63963.000000
3176.481472	63921.000000
3177.633897	64169.000000
3178.786153	64453.000000
3179.938238	64544.000000
3181.087178	64474.000000
3182.238924	64509.000000
3183.389012	64440.000000
3184.537444	64487.000000
3185.685706	64512.000000
3186.833800	64545.000000
3187.981725	64505.000000
3189.127994	64464.000000
3190.274096	64508.000000
3191.418542	64486.000000
3192.562821	64515.000000
3193.706932	64512.000000
3194.852360	64500.000000
3195.994650	64482.000000
3197.136773	64477.000000
3198.278728	64495.000000
3199.420516	64484.000000
3200.562137	64512.000000
3201.700623	64471.000000
3202.840426	64562.000000
3203.981547	64530.000000
3205.119533	64524.000000
3206.255870	64454.000000
3207.392041	64489.000000
3208.529529	64469.000000
3209.665369	64527.000000
3210.802526	64458.000000
3211.935070	64463.000000
3213.071896	64481.000000
3214.204110	64502.000000
3215.337641	64522.000000
3216.471008	64515.000000
3217.601247	64522.000000
3218.734284	64510.000000
3219.864195	64431.000000
3220.995422	64417.000000
3222.123525	64432.000000
3223.254424	64529.000000
3224.383679	64535.000000
3225.511291	64465.000000
3226.635780	64463.000000
3227.764545	64492.000000
3228.890188	64443.000000
3230.015669	64463.000000
3231.139508	64533.000000
3232.266141	64545.000000
3233.388177	64512.000000
3234.511529	64523.000000
3235.634719	64496.000000
3236.757747	64498.000000
3237.879135	64537.000000
3239.000361	64526.000000
3240.119950	64534.000000
3241.239377	64510.000000
3242.357166	64537.000000
3243.477747	64490.000000
3244.595215	64487.000000
3245.712522	64497.000000
3246.829669	64363.000000
3247.945180	64542.000000
3249.062005	64505.000000
3250.175721	64495.000000
3251.292226	64453.000000
3252.407097	64463.000000
3253.518859	64501.000000
3254.630461	64524.000000
3255.743379	64464.000000
3256.856137	64542.000000
3257.965789	64512.000000
3259.076756	64490.000000
3260.187564	64474.000000
3261.296740	64524.000000
3262.404286	64421.000000
3263.513145	64504.000000
3264.621847	64493.000000
3265.727446	64547.000000
3266.834359	64410.000000
3267.939643	64226.000000
3269.046241	64452.000000
3270.149739	64500.000000
3271.254552	64492.000000
3272.359207	64533.000000
3273.460763	64427.000000
3274.562163	64484.000000
3275.664878	64490.000000
3276.767435	64542.000000
3277.866896	64489.000000
3278.969141	64445.000000
3280.068290	64496.000000
3281.165815	64439.000000
3282.263184	64481.000000
3283.363335	64488.000000
3284.460394	64501.000000
3285.557297	64502.000000
3286.654045	64498.000000
3287.746235	64512.000000
3288.842673	64508.000000
3289.937489	64458.000000
3291.032151	64503.000000
3292.125191	64435.000000
3293.218077	64524.000000
3294.309342	64520.000000
3295.401919	64523.000000
3296.492877	64459.000000
3297.582215	64434.000000
3298.671400	64506.000000
3299.761898	64556.000000
3300.849311	64493.000000
3301.936571	64532.000000
3303.025144	64481.000000
3304.113565	64511.000000
3305.197438	64498.000000
3306.285553	64499.000000
3307.370587	64554.000000
3308.454004	64465.000000
3309.538734	64459.000000
3310.621849	64499.000000
3311.706275	64517.000000
3312.787623	64507.000000
3313.870283	64518.000000
3314.951329	64506.000000
3316.032224	64533.000000
3317.111505	64523.000000
3318.190636	64547.000000
3319.271079	64527.000000
3320.348447	64493.000000
3321.427127	64523.000000
3322.504195	64561.000000
3323.581114	64528.000000
3324.656421	64465.000000
3325.731579	64535.000000
3326.808048	64563.000000
3327.881447	64561.000000
3328.954697	64524.000000
3330.029257	64529.000000
3331.102209	64505.000000
3332.173552	64530.000000
3333.246206	64512.000000
3334.315794	64540.000000
3335.386692	64460.000000
3336.455983	64495.000000
3337.526585	64513.000000
3338.595580	64560.000000
3339.662969	64498.000000
3340.728753	64536.000000
3341.798763	64507.000000
3342.865710	64521.000000
3343.929595	64430.000000
3344.996248	64499.000000
3346.061296	64522.000000
3347.124741	64358.000000
3348.188040	64558.000000
3349.251192	64521.000000
3350.314198	64553.000000
3351.377058	64543.000000
3352.438316	64551.000000
3353.496517	64537.000000
3354.558938	64504.000000
3355.618304	64491.000000
3356.677524	64473.000000
3357.738054	64534.000000
3358.794074	64540.000000
3359.852858	64494.000000
3360.907135	64491.000000
3361.964176	64513.000000
3363.019618	64549.000000
3364.076370	64514.000000
3365.131523	64545.000000
3366.185079	64490.000000
3367.237039	64548.000000
3368.291760	64555.000000
3369.343432	64535.000000
3370.394961	64501.000000
3371.447798	64557.000000
3372.497588	64526.000000
3373.548687	64553.000000
3374.596740	64516.000000
3375.647552	64554.000000
3376.695320	64567.000000
3377.742945	64547.000000
3378.790427	64519.000000
3379.836317	64372.000000
3380.883515	64535.000000
3381.927671	64551.000000
3382.974585	64588.000000
3384.019907	64523.000000
3385.062188	64480.000000
3386.104329	64533.000000
3387.147777	64538.000000
3388.191084	64532.000000
3389.232802	64516.000000
3390.274378	64460.000000
3391.315814	64541.000000
3392.355660	64527.000000
3393.393918	64500.000000
3394.433484	64550.000000
3395.472910	64546.000000
3396.510748	64552.000000
3397.546999	64550.000000
3398.583111	64470.000000
3399.620530	64561.000000
3400.654916	64541.000000
3401.690609	64552.000000
3402.726163	64535.000000
3403.758686	64559.000000
3404.793962	64568.000000
3405.826207	64541.000000
3406.858314	64604.000000
3407.888837	64544.000000
3408.920667	64555.000000
3409.952359	64502.000000
3410.981023	64478.000000
3412.009550	64558.000000
3413.039383	64568.000000
3414.069079	64472.000000
3415.095749	64513.000000
3416.123726	64553.000000
3417.148678	64487.000000
3418.176380	64530.000000
3419.201059	64538.000000
3420.227044	64493.000000
3421.251449	64578.000000
3422.275718	64524.000000
3423.298408	64549.000000
3424.320962	64559.000000
3425.344822	64478.000000
3426.365662	64561.000000
3427.386366	64554.000000
3428.408377	64521.000000
3429.427369	64475.000000
3430.446226	64561.000000
3431.466388	64546.000000
3432.483534	64539.000000
