-116.773079	482.000000
-114.103479	564.000000
-111.436814	439.000000
-108.770901	487.000000
-106.107920	550.000000
-103.443510	569.000000
-100.782030	490.000000
-98.119121	561.000000
-95.461318	407.000000
-92.802086	485.000000
-90.143602	578.000000
-87.488042	501.000000
-84.831054	694.000000
-82.179164	619.000000
-79.525843	638.000000
-76.875443	683.000000
-74.223613	624.000000
-71.576874	621.000000
-68.928706	733.000000
-66.281280	665.000000
-63.636768	682.000000
-60.990828	692.000000
-58.349969	548.000000
-55.707681	657.000000
-53.068301	686.000000
-50.427493	815.000000
-47.787425	834.000000
-45.152429	686.000000
-42.516005	871.000000
-39.882483	899.000000
-37.247533	974.000000
-34.617648	1069.000000
-31.984171	1159.000000
-29.355756	1062.000000
-26.728075	1457.000000
-24.098965	1565.000000
-21.474912	1881.000000
-18.847270	2007.000000
-16.224681	2749.000000
-13.602824	3869.000000
-10.981697	6734.000000
-8.361300	15487.000000
-5.743792	50773.000000
-3.124855	63715.000000
-0.508803	63709.000000
2.106520	63789.000000
4.721116	63721.000000
7.332829	32163.000000
9.945971	4325.000000
12.554079	2588.000000
15.165769	2248.000000
17.772428	1683.000000
20.380515	1624.000000
22.987878	1502.000000
25.590216	1364.000000
28.196132	1352.000000
30.797026	1212.000000
33.399348	1138.000000
35.996653	1171.000000
38.597533	1188.000000
41.193398	1174.000000
43.790692	1208.000000
46.387266	1129.000000
48.978831	1202.000000
51.571824	1112.000000
54.161956	1177.000000
56.753516	1208.000000
59.342216	1066.000000
61.932343	1295.000000
64.517471	1316.000000
67.104027	1396.000000
69.689869	1434.000000
72.272857	1367.000000
74.857271	1448.000000
77.434557	1600.000000
80.015409	1550.000000
82.593412	1623.000000
85.170705	1640.000000
87.749424	1646.000000
90.323161	1710.000000
92.898326	1895.000000
95.470647	2056.000000
98.042260	2196.000000
100.611033	2455.000000
103.181233	2743.000000
105.748595	3296.000000
108.317382	3776.000000
110.883333	4460.000000
113.446449	5654.000000
116.013121	7698.000000
118.570572	10276.000000
121.133708	14452.000000
123.691884	21182.000000
126.253615	31115.000000
128.810389	45981.000000
131.368590	62280.000000
133.921837	63849.000000
136.474387	63708.000000
139.030487	63575.000000
141.581639	63846.000000
144.132094	63856.000000
146.681851	63882.000000
149.228789	63820.000000
151.775032	63877.000000
154.322700	63973.000000
156.869672	63904.000000
159.411709	63403.000000
161.953052	63474.000000
164.493702	63766.000000
167.035778	63588.000000
169.575042	63720.000000
172.111498	63707.000000
174.647262	63865.000000
177.184452	63589.000000
179.720951	63914.000000
182.254644	64020.000000
184.785533	63779.000000
187.315735	63936.000000
189.847361	63722.000000
192.376186	63897.000000
194.902212	63874.000000
197.427552	63531.000000
199.954318	63880.000000
202.478286	63917.000000
205.001570	63962.000000
207.524169	64005.000000
210.043975	64003.000000
212.563098	63424.000000
215.081538	63954.000000
217.601402	63855.000000
220.114265	63834.000000
222.630659	63947.000000
225.146371	63698.000000
227.657193	63433.000000
230.169440	63849.000000
232.678905	63749.000000
235.187691	63893.000000
237.695798	63845.000000
240.205330	63818.000000
242.709981	63594.000000
245.213956	63970.000000
247.719355	63962.000000
250.219879	63842.000000
252.723927	63913.000000
255.221003	63861.000000
257.721603	64019.000000
260.219431	63509.000000
262.716586	63713.000000
265.213068	63622.000000
267.704687	63894.000000
270.199826	63939.000000
272.692198	63988.000000
275.183901	63910.000000
277.672839	63925.000000
280.163202	63885.000000
282.650802	63679.000000
285.135643	63922.000000
287.623999	63951.000000
290.105415	63864.000000
292.590345	63756.000000
295.070430	63719.000000
297.554027	63903.000000
300.032781	63943.000000
302.512959	63992.000000
304.990384	63920.000000
307.467146	63667.000000
309.943245	63963.000000
312.416595	63833.000000
314.889283	63932.000000
317.361310	63972.000000
319.832676	64001.000000
322.301297	63723.000000
324.769260	63982.000000
327.238644	63614.000000
329.703206	63824.000000
332.171272	63930.000000
334.634518	63925.000000
337.097106	63921.000000
339.559038	63715.000000
342.020313	63946.000000
344.478854	63635.000000
346.938817	63938.000000
349.396047	63620.000000
351.852623	63959.000000
354.308545	64059.000000
356.761737	63163.000000
359.216352	63915.000000
361.666165	63748.000000
364.119474	64015.000000
366.567985	64025.000000
369.015844	63919.000000
371.465126	64043.000000
373.909614	63696.000000
376.355524	63903.000000
378.800784	63854.000000
381.243326	63707.000000
383.685220	63547.000000
386.126467	63656.000000
388.564998	63967.000000
391.004951	63893.000000
393.442190	64005.000000
395.876717	64095.000000
398.314732	64114.000000
400.747970	63929.000000
403.182629	63802.000000
405.612516	63800.000000
408.045888	64001.000000
410.474490	63975.000000
412.902450	63924.000000
415.331832	64007.000000
417.756448	63984.000000
420.182486	63562.000000
422.607883	64007.000000
425.032640	63752.000000
427.452639	63965.000000
429.874059	63804.000000
432.292782	64041.000000
434.712926	63931.000000
437.130375	63924.000000
439.549244	64014.000000
441.965420	63960.000000
444.376848	63830.000000
446.791754	63953.000000
449.203969	64000.000000
451.615550	63911.000000
454.026497	64040.000000
456.434758	64065.000000
458.842386	63986.000000
461.249382	63708.000000
463.655747	64037.000000
466.059429	64012.000000
468.462481	63838.000000
470.864903	63967.000000
473.266695	63778.000000
475.665810	64000.000000
478.066344	63800.000000
480.466249	64151.000000
482.861431	63611.000000
485.260080	64089.000000
487.654009	63854.000000
490.047312	64052.000000
492.439989	63519.000000
494.832041	63719.000000
497.225511	63906.000000
499.614270	63855.000000
502.000361	63688.000000
504.387873	63793.000000
506.774762	63869.000000
509.158987	63897.000000
511.544630	64029.000000
513.927612	64048.000000
516.307933	64020.000000
518.689673	63670.000000
521.068754	63586.000000
523.449254	63950.000000
525.827096	64118.000000
528.202283	64026.000000
530.576852	63803.000000
532.952839	63941.000000
535.326174	63799.000000
537.700926	64053.000000
540.070993	63937.000000
542.440444	63967.000000
544.811313	63830.000000
547.177502	64089.000000
549.545109	63962.000000
551.910070	64040.000000
554.274418	63987.000000
556.638153	64075.000000
559.003306	63926.000000
561.363787	64005.000000
563.725686	63812.000000
566.084944	64081.000000
568.441565	63933.000000
570.801630	64023.000000
573.155004	63790.000000
575.511823	64006.000000
577.866007	64060.000000
580.219583	64060.000000
582.572550	64057.000000
584.922885	63983.000000
587.274638	63937.000000
589.619714	63926.000000
591.970254	64080.000000
594.314120	63936.000000
596.663448	64035.000000
599.008127	64008.000000
601.350182	63753.000000
603.693654	63966.000000
606.034503	63990.000000
608.374750	64049.000000
610.712376	63958.000000
613.053437	63874.000000
615.389860	64107.000000
617.727700	64035.000000
620.062923	63744.000000
622.395530	64115.000000
624.729553	63747.000000
627.060962	64087.000000
629.391774	63975.000000
631.721987	64058.000000
634.051602	64059.000000
636.376595	63871.000000
638.707028	64021.000000
641.032841	63639.000000
643.356046	64075.000000
645.680668	64057.000000
648.002684	64097.000000
650.324106	63672.000000
652.642926	63765.000000
654.963161	63785.000000
657.282803	64090.000000
659.599844	64088.000000
661.916293	63228.000000
664.230144	63952.000000
666.545411	63930.000000
668.858081	63853.000000
671.172166	64086.000000
673.481651	63988.000000
675.792552	64108.000000
678.100860	63995.000000
680.408580	63776.000000
682.717714	63801.000000
685.022256	63848.000000
687.326212	64112.000000
689.629582	63727.000000
691.934366	64080.000000
694.234564	64084.000000
696.536176	63900.000000
698.837204	63942.000000
701.133649	63991.000000
703.431510	64116.000000
705.728787	63872.000000
708.025481	64026.000000
710.317599	63797.000000
712.613128	63881.000000
714.904083	64126.000000
717.196453	63974.000000
719.486248	64001.000000
721.775462	64002.000000
724.064097	63749.000000
726.350159	63950.000000
728.637636	63885.000000
730.922541	63972.000000
733.206869	63977.000000
735.488628	63119.000000
737.771801	62617.000000
740.054397	64066.000000
742.332437	64100.000000
744.611892	63712.000000
746.890771	64135.000000
749.169074	64082.000000
751.442828	63003.000000
753.717995	62883.000000
755.992589	64114.000000
758.264624	64069.000000
760.538072	63854.000000
762.808962	62785.000000
765.077296	63856.000000
767.347043	62987.000000
769.614236	63884.000000
771.880858	63381.000000
774.146910	63820.000000
776.410411	63936.000000
778.675325	63615.000000
780.939669	63384.000000
783.199484	63377.000000
785.460711	63258.000000
787.721371	63084.000000
789.979485	63971.000000
792.235054	61336.000000
794.494014	63885.000000
796.746475	63075.000000
799.004302	63034.000000
801.257611	63083.000000
803.508380	62112.000000
805.760561	63009.000000
808.010203	62713.000000
810.261258	62867.000000
812.507801	62531.000000
814.755756	62640.000000
817.001177	62059.000000
819.248009	62377.000000
821.494280	62085.000000
823.736046	61523.000000
825.981196	61564.000000
828.219873	61540.000000
830.461932	61920.000000
832.699493	61173.000000
834.938466	61157.000000
837.174912	60904.000000
839.412769	59264.000000
841.648101	59418.000000
843.880910	60465.000000
846.115130	60244.000000
848.346827	60234.000000
850.577970	60140.000000
852.808558	58581.000000
855.038592	60015.000000
857.268072	59132.000000
859.493070	59129.000000
861.721443	58080.000000
863.945337	59071.000000
866.170641	57962.000000
868.391470	58754.000000
870.615671	58147.000000
872.835399	56878.000000
875.056537	57805.000000
877.277126	57471.000000
879.495204	57275.000000
881.714692	57153.000000
883.929714	56395.000000
886.144189	56772.000000
888.358115	56571.000000
890.571495	56089.000000
892.784327	55909.000000
894.996613	56016.000000
897.206396	55640.000000
899.415634	55719.000000
901.624327	54409.000000
903.830521	55035.000000
906.038124	55380.000000
908.243229	54576.000000
910.447791	53893.000000
912.649858	54013.000000
914.853334	54065.000000
917.054316	53978.000000
919.254756	53084.000000
921.456605	53040.000000
923.652063	53679.000000
925.850880	52972.000000
928.045258	53327.000000
930.242994	52522.000000
932.436294	52498.000000
934.631003	52859.000000
936.823226	52892.000000
939.014910	52246.000000
941.206057	51925.000000
943.394721	52325.000000
945.582849	51593.000000
947.768496	52188.000000
949.957495	50311.000000
952.142071	52247.000000
954.326112	51995.000000
956.513503	50817.000000
958.692590	50810.000000
960.875028	51289.000000
963.056932	51849.000000
965.236361	52153.000000
967.413318	51057.000000
969.591683	51449.000000
971.771455	50911.000000
973.944878	51324.000000
976.121647	50751.000000
978.294009	51443.000000
980.467779	51226.000000
982.637145	50898.000000
984.809855	50806.000000
986.980100	50476.000000
989.149816	50484.000000
991.319003	50251.000000
993.483793	50139.000000
995.651924	50207.000000
997.815661	50336.000000
999.980804	50172.000000
1002.143488	50001.000000
1004.305647	50300.000000
1006.465349	50137.000000
1008.624526	49728.000000
1010.785110	49686.000000
1012.943240	49851.000000
1015.100845	48328.000000
1017.257927	47816.000000
1019.414485	48950.000000
1021.566664	49357.000000
1023.720250	48896.000000
1025.873314	48908.000000
1028.023929	48870.000000
1030.175951	48635.000000
1032.323599	49369.000000
1034.474579	49318.000000
1036.621188	49014.000000
1038.767278	49253.000000
1040.912850	48457.000000
1043.059827	48129.000000
1045.200515	48249.000000
1047.344533	47513.000000
1049.486110	47776.000000
1051.627171	48320.000000
1053.769636	47527.000000
1055.905822	48459.000000
1058.045334	48674.000000
1060.180490	48364.000000
1062.318971	48300.000000
1064.453098	47842.000000
1066.586712	48165.000000
1068.721731	47169.000000
1070.852400	48300.000000
1072.984474	48374.000000
1075.114119	48301.000000
1077.243252	48577.000000
1079.371873	47965.000000
1081.499983	48484.000000
1083.625667	47905.000000
1085.750841	47378.000000
1087.877419	47895.000000
1089.999659	47903.000000
1092.123304	47750.000000
1094.242614	47372.000000
1096.367154	47059.000000
1098.485448	47169.000000
1100.605147	47196.000000
1102.722427	47137.000000
1104.839201	46834.000000
1106.955468	47025.000000
1109.069319	46201.000000
1111.184575	45960.000000
1113.295507	46163.000000
1115.409752	46095.000000
1117.519676	46922.000000
1119.631004	46983.000000
1121.741827	47026.000000
1123.848334	45975.000000
1125.958151	47399.000000
1128.063653	46643.000000
1130.170558	46618.000000
1132.271248	46593.000000
1134.377150	46069.000000
1136.478743	45312.000000
1138.581739	46540.000000
1140.684234	46671.000000
1142.780522	46782.000000
1144.882018	46297.000000
1146.979210	46680.000000
1149.075905	46600.000000
1151.172101	45815.000000
1153.267800	47015.000000
1155.363000	46416.000000
1157.455804	46430.000000
1159.550011	46318.000000
1161.638026	46452.000000
1163.731239	46314.000000
1165.818264	46726.000000
1167.908588	45695.000000
1169.994625	46225.000000
1172.083959	46256.000000
1174.167112	45867.000000
1176.251667	46331.000000
1178.337624	46176.000000
1180.419299	46282.000000
1182.502376	46322.000000
1184.583067	45701.000000
1186.663266	46040.000000
1188.742974	45794.000000
1190.822191	46081.000000
1192.899026	45629.000000
1194.973480	45826.000000
1197.051225	46244.000000
1199.124701	45549.000000
1201.199577	45584.000000
1203.270186	45507.000000
1205.342196	45273.000000
1207.411831	45636.000000
1209.482866	45836.000000
1211.553413	45912.000000
1213.619699	45937.000000
1215.687386	45341.000000
1217.752701	45574.000000
1219.819416	45794.000000
1221.881875	45856.000000
1223.947619	45144.000000
1226.009109	45549.000000
1228.072000	45849.000000
1230.132523	45779.000000
1232.192562	44718.000000
1234.252119	45744.000000
1236.309310	45452.000000
1238.366020	46475.000000
1240.420366	45656.000000
1242.477994	45995.000000
1244.533259	46426.000000
1246.584283	46550.000000
1248.636707	45945.000000
1250.688651	45242.000000
1252.738237	45976.000000
1254.787344	44939.000000
1256.835973	45651.000000
1258.884123	46023.000000
1260.931794	45749.000000
1262.975235	45314.000000
1265.021952	45605.000000
1267.066315	45539.000000
1269.110202	44802.000000
1271.151737	44993.000000
1273.190923	44539.000000
1275.233382	44813.000000
1277.271618	44793.000000
1279.311253	45077.000000
1281.350413	44987.000000
1283.385354	45195.000000
1285.421694	44640.000000
1287.455690	44411.000000
1289.491083	45143.000000
1291.522264	45490.000000
1293.554842	45078.000000
1295.586949	45128.000000
1297.616715	45838.000000
1299.647879	46284.000000
1301.674835	45719.000000
1303.703189	44527.000000
1305.727339	44884.000000
1307.754753	44609.000000
1309.777965	44906.000000
1311.802575	44564.000000
1313.824851	44352.000000
1315.848524	44232.000000
1317.869864	43972.000000
1319.890736	44391.000000
1321.911141	44604.000000
1323.927353	44560.000000
1325.944962	43956.000000
1327.960243	44590.000000
1329.978783	44325.000000
1331.993134	44940.000000
1334.005159	45824.000000
1336.020441	46810.000000
1338.031538	47413.000000
1340.044032	47555.000000
1342.052343	46596.000000
1344.063909	45102.000000
1346.069437	44655.000000
1348.078220	43411.000000
1350.082825	43452.000000
1352.090684	42668.000000
1354.098081	42777.000000
1356.099447	42096.000000
1358.102209	42785.000000
1360.104512	42602.000000
1362.106355	42448.000000
1364.107738	42815.000000
1366.106808	42420.000000
1368.105419	42568.000000
1370.103572	43021.000000
1372.101266	42794.000000
1374.094798	42311.000000
1376.089726	41800.000000
1378.084196	41818.000000
1380.078210	41297.000000
1382.069917	41657.000000
1384.061169	41431.000000
1386.050115	41210.000000
1388.040456	41729.000000
1390.030342	40872.000000
1392.017924	41739.000000
1394.005053	41522.000000
1395.989880	41877.000000
1397.976102	41708.000000
1399.960024	41368.000000
1401.943493	41503.000000
1403.926509	41599.000000
1405.907228	41532.000000
1407.889341	41190.000000
1409.869158	41442.000000
1411.848523	41204.000000
1413.823750	41088.000000
1415.802215	41638.000000
1417.778387	41501.000000
1419.754110	41571.000000
1421.729383	41472.000000
1423.702365	41202.000000
1425.674899	41263.000000
1427.646985	40649.000000
1429.618624	41013.000000
1431.586134	40386.000000
1433.558718	40911.000000
1435.523497	40979.000000
1437.493347	40905.000000
1439.459074	41393.000000
1441.426193	41349.000000
1443.391029	41582.000000
1445.351745	41328.000000
1447.317529	41281.000000
1449.277358	41260.000000
1451.238581	41249.000000
1453.201196	40813.000000
1455.159696	40828.000000
1457.117753	41770.000000
1459.075369	41484.000000
1461.032542	41857.000000
1462.987440	41537.000000
1464.943731	41710.000000
1466.897747	41219.000000
1468.851322	41328.000000
1470.802625	41505.000000
1472.755321	41603.000000
1474.705745	41043.000000
1476.655729	41802.000000
1478.605275	41474.000000
1480.552552	41249.000000
1482.497561	41080.000000
1484.443963	41370.000000
1486.389927	41805.000000
1488.335454	41635.000000
1490.278715	41338.000000
1492.221541	42298.000000
1494.162103	41975.000000
1496.104056	42202.000000
1498.043747	42732.000000
1499.983004	42109.000000
1501.921825	42397.000000
1503.858387	42475.000000
1505.796340	42621.000000
1507.732034	42910.000000
1509.667295	43326.000000
1511.600300	42513.000000
1513.532872	42799.000000
1515.465012	42840.000000
1517.396720	42371.000000
1519.326174	42655.000000
1521.257019	42493.000000
1523.187432	42996.000000
1525.113773	42622.000000
1527.041505	42912.000000
1528.966986	43132.000000
1530.892038	43509.000000
1532.816661	43604.000000
1534.740855	43343.000000
1536.662801	43938.000000
1538.586138	44276.000000
1540.507228	43162.000000
1542.426075	44486.000000
1544.346310	45005.000000
1546.264303	44183.000000
1548.181869	45112.000000
1550.097193	45739.000000
1552.013907	45689.000000
1553.926566	46474.000000
1555.842429	45445.000000
1557.756052	46490.000000
1559.667438	46610.000000
1561.580212	46852.000000
1563.488937	47417.000000
1565.399051	47069.000000
1567.308742	47131.000000
1569.218010	48425.000000
1571.125044	48568.000000
1573.029845	48469.000000
1574.936035	48912.000000
1576.839993	48795.000000
1578.743530	49517.000000
1580.646647	49088.000000
1582.547534	50377.000000
1584.449810	51336.000000
1586.349858	51701.000000
1588.251293	51785.000000
1590.148695	52030.000000
1592.045678	52808.000000
1593.942243	53118.000000
1595.840196	53694.000000
1597.732314	54778.000000
1599.627625	54999.000000
1601.522519	55704.000000
1603.415191	55157.000000
1605.307446	57143.000000
1607.197482	57251.000000
1609.087102	58303.000000
1610.976307	57580.000000
1612.865097	58499.000000
1614.751669	58660.000000
1616.639629	58827.000000
1618.523572	59313.000000
1620.408902	59212.000000
1622.293819	59856.000000
1624.176522	59922.000000
1626.060612	60291.000000
1627.940691	60331.000000
1629.822156	61204.000000
1631.701411	60530.000000
1633.582052	59539.000000
1635.456889	60723.000000
1637.336707	60764.000000
1639.212521	60922.000000
1641.087924	60669.000000
1642.964713	60354.000000
1644.835706	60531.000000
1646.709880	60314.000000
1648.580056	59725.000000
1650.453412	59956.000000
1652.324565	59351.000000
1654.193516	58986.000000
1656.063852	58489.000000
1657.930196	58719.000000
1659.797925	58498.000000
1661.663455	57384.000000
1663.530371	57279.000000
1665.393298	57067.000000
1667.257610	55939.000000
1669.119726	55783.000000
1670.981437	54802.000000
1672.844534	54927.000000
1674.705435	54388.000000
1676.564144	53247.000000
1678.422449	52542.000000
1680.282139	52107.000000
1682.136061	52054.000000
1683.993157	50966.000000
1685.849850	50475.000000
1687.702566	49693.000000
1689.558454	49267.000000
1691.410368	48941.000000
1693.261881	48147.000000
1695.112993	47405.000000
1696.963705	47059.000000
1698.814016	45918.000000
1700.662142	45780.000000
1702.511653	44895.000000
1704.355415	43696.000000
1706.204126	43037.000000
1708.047091	41821.000000
1709.893223	41086.000000
1711.735392	40605.000000
1713.580727	40018.000000
1715.420321	39079.000000
1717.261299	38657.000000
1719.103660	37957.000000
1720.942065	36903.000000
1722.781853	36641.000000
1724.619466	36412.000000
1726.456683	35764.000000
1728.291727	34943.000000
1730.128154	34575.000000
1731.962409	34282.000000
1733.796269	33776.000000
1735.629735	33604.000000
1737.459256	33098.000000
1739.291935	32695.000000
1741.120670	32179.000000
1742.952562	32076.000000
1744.780512	32134.000000
1746.608071	31507.000000
1748.435237	31288.000000
1750.262012	31050.000000
1752.088395	30532.000000
1753.910842	30561.000000
1755.736444	29819.000000
1757.558111	30130.000000
1759.381160	29749.000000
1761.202047	29182.000000
1763.022546	29128.000000
1764.844426	29179.000000
1766.660606	28823.000000
1768.479938	28668.000000
1770.295343	28873.000000
1772.113898	28490.000000
1773.928528	28365.000000
1775.742771	27773.000000
1777.556628	27956.000000
1779.370098	28149.000000
1781.181415	27557.000000
1782.994112	27694.000000
1784.806424	27583.000000
1786.614818	27506.000000
1788.424592	26984.000000
1790.230452	27072.000000
1792.039457	26891.000000
1793.844549	26647.000000
1795.651022	26651.000000
1797.457111	26602.000000
1799.259289	26200.000000
1801.064612	26655.000000
1802.866026	26294.000000
1804.668820	26338.000000
1806.467708	26347.000000
1808.267977	26208.000000
1810.067864	25736.000000
1811.865609	25801.000000
1813.662974	25959.000000
1815.459959	25776.000000
1817.256563	25990.000000
1819.051028	25812.000000
1820.846872	25426.000000
1822.637061	25366.000000
1824.432147	25078.000000
1826.221581	25545.000000
1828.014151	25266.000000
1829.804586	25139.000000
1831.592887	25019.000000
1833.384323	25197.000000
1835.170113	25095.000000
1836.957283	24827.000000
1838.742321	25491.000000
1840.530493	24560.000000
1842.314779	24396.000000
1844.096935	24542.000000
1845.880471	24776.000000
1847.661878	24586.000000
1849.444664	24790.000000
1851.223569	24804.000000
1853.003854	24393.000000
1854.782012	24720.000000
1856.561549	24739.000000
1858.338961	24547.000000
1860.114249	24770.000000
1861.890915	24180.000000
1863.665459	24418.000000
1865.441381	24189.000000
1867.211682	24220.000000
1868.985111	24489.000000
1870.756420	24366.000000
1872.527358	24501.000000
1874.299674	24374.000000
1876.066376	24376.000000
1877.836204	24508.000000
1879.602168	24199.000000
1881.371255	24511.000000
1883.136481	24409.000000
1884.901339	24400.000000
1886.667574	24410.000000
1888.429950	24176.000000
1890.191959	24028.000000
1891.953600	24547.000000
1893.714875	23966.000000
1895.475782	23989.000000
1897.236323	23756.000000
1898.994754	23954.000000
1900.752819	23931.000000
1902.508777	24073.000000
1904.266111	23905.000000
1906.023080	24072.000000
1907.777942	24339.000000
1909.530700	24011.000000
1911.283093	24107.000000
1913.036863	23861.000000
1914.788529	24018.000000
1916.538093	23703.000000
1918.289032	23943.000000
1920.039609	24095.000000
1921.786346	24055.000000
1923.534460	24091.000000
1925.280474	24157.000000
1927.027863	24403.000000
1928.773155	24192.000000
1930.516349	24401.000000
1932.260918	24370.000000
1934.003392	23859.000000
1935.745505	24437.000000
1937.487258	24676.000000
1939.228652	24480.000000
1940.967951	24367.000000
1942.706892	24763.000000
1944.445474	24805.000000
1946.181965	24788.000000
1947.918098	24860.500000
1949.655605	24933.000000
1951.389290	24820.000000
1953.124350	24541.000000
1954.857321	24968.000000
1956.589936	24868.000000
1958.322195	25069.000000
1960.054097	25156.000000
1961.783913	25046.000000
1963.511644	25230.000000
1965.240750	25452.000000
1966.969501	25273.000000
1968.696168	25474.000000
1970.422481	25743.000000
1972.150167	26053.000000
1973.872317	25986.000000
1975.597568	25626.000000
1977.319012	25989.000000
1979.043557	25552.000000
1980.766021	25907.000000
1982.484683	26295.000000
1984.206443	25897.000000
1985.924401	25849.000000
1987.643732	26144.000000
1989.359264	26396.000000
1991.079616	26263.000000
1992.796170	26341.000000
1994.508927	26512.000000
1996.224780	26678.000000
1997.938561	26304.000000
1999.651992	27070.000000
2001.363352	26867.000000
2003.076084	26844.000000
2004.785026	27025.000000
2006.497060	26800.000000
2008.203586	27395.000000
2009.913203	27018.000000
2011.620754	27416.000000
2013.327956	27423.000000
2015.033093	27084.000000
2016.737884	27694.000000
2018.444046	27595.000000
2020.146426	27952.000000
2021.850177	27263.000000
2023.551866	27540.000000
2025.253210	27371.000000
2026.954208	27685.000000
2028.653145	27748.000000
2030.353454	27933.000000
2032.049988	28116.000000
2033.747893	28431.000000
2035.443739	27825.000000
2037.142671	28234.000000
2038.836117	28511.000000
2040.530934	28116.000000
2042.225409	28627.000000
2043.916115	28613.000000
2045.609905	28747.000000
2047.299928	28705.000000
2048.991322	28312.000000
2050.680663	28694.000000
2052.371374	28038.000000
2054.058322	28362.000000
2055.744931	28688.000000
2057.432909	28484.000000
2059.117128	28705.000000
2060.802718	28213.000000
2062.487968	28573.000000
2064.171170	28316.000000
2065.855741	29076.000000
2067.534850	28368.000000
2069.218744	28257.000000
2070.897177	28557.000000
2072.578688	28600.000000
2074.256447	28622.000000
2075.933870	28612.000000
2077.612662	28365.000000
2079.289412	28537.000000
2080.964120	28670.000000
2082.640197	28751.000000
2084.314234	28792.000000
2085.987935	28887.000000
2087.661301	28915.000000
2089.332628	28613.000000
2091.003622	28686.000000
2092.674280	28598.000000
2094.344605	28902.000000
2096.014596	29043.000000
2097.682551	28913.000000
2099.350173	28911.000000
2101.015760	28739.000000
2102.682716	28873.000000
2104.347639	28995.000000
2106.012230	28743.000000
2107.674789	29437.000000
2109.338716	29544.000000
2111.000612	29039.000000
2112.662178	29389.000000
2114.323412	29313.000000
2115.982618	29599.000000
2117.641493	29166.000000
2119.300039	29126.000000
2120.958255	29863.000000
2122.612747	28813.000000
2124.270304	28950.000000
2125.927532	29103.000000
2127.581038	28919.000000
2129.235912	29267.000000
2130.887067	29071.000000
2132.541285	28915.000000
2134.191786	29317.000000
2135.843653	29129.000000
2137.490112	28606.000000
2139.141326	28764.000000
2140.788826	29188.000000
2142.437693	28862.000000
2144.084541	28820.000000
2145.731064	29029.000000
2147.377261	28906.000000
2149.019750	28692.000000
2150.665297	28415.000000
2152.307137	28488.000000
2153.952034	28387.000000
2155.593226	28323.000000
2157.234094	28350.000000
2158.874638	28335.000000
2160.513170	27784.000000
2162.153068	28332.000000
2163.789266	27964.000000
2165.426830	27731.000000
2167.064072	27722.000000
2168.699304	27438.000000
2170.334215	27276.000000
2171.968804	27376.000000
2173.603071	27283.000000
2175.233645	27229.000000
2176.867271	27285.000000
2178.497205	27032.000000
2180.128504	26452.000000
2181.757798	27085.000000
2183.386773	27224.000000
2185.015428	26888.000000
2186.643764	26416.000000
2188.270098	27006.000000
2189.896113	26619.000000
2191.520126	26230.000000
2193.145505	26318.000000
2194.768883	26208.000000
2196.393626	26165.000000
2198.014688	26086.000000
2199.635433	26297.000000
2201.257543	25669.000000
2202.877655	26118.000000
2204.495770	25782.000000
2206.113570	25813.000000
2207.731055	25426.000000
2209.348224	25635.000000
2210.965078	25619.000000
2212.581616	25495.000000
2214.196162	25495.000000
2215.808715	25113.000000
2217.422632	24894.000000
2219.034558	25408.000000
2220.647847	24748.000000
2222.259146	25091.000000
2223.868455	24602.000000
2225.479128	25063.000000
2227.087812	24698.000000
2228.696183	24424.000000
2230.302568	24115.000000
2231.910316	24337.000000
2233.516077	24012.000000
2235.121527	24341.000000
2236.724992	24170.000000
2238.329820	24000.000000
2239.932664	23907.000000
2241.533525	23884.000000
2243.135749	23768.000000
2244.735991	23769.000000
2246.337595	23934.000000
2247.935547	23949.000000
2249.534860	23822.000000
2251.132194	23712.000000
2252.729220	23515.000000
2254.327608	23567.000000
2255.922347	23241.000000
2257.515109	23807.000000
2259.109234	23210.000000
2260.704720	23183.000000
2262.296561	22621.000000
2263.888096	23054.000000
2265.480993	22764.000000
2267.068580	22667.000000
2268.660863	22716.000000
2270.247840	22808.000000
2271.837844	22549.000000
2273.422544	22296.000000
2275.011938	22258.000000
2276.596030	22366.000000
2278.181483	21664.000000
2279.764966	22268.000000
2281.351475	21626.000000
2282.934351	21823.000000
2284.516924	21649.000000
2286.099193	21582.000000
2287.677832	21752.000000
2289.259496	21103.000000
2290.837531	21179.000000
2292.418589	21386.000000
2293.996020	21193.000000
2295.571488	21000.000000
2297.149978	20860.000000
2298.724844	20976.000000
2300.299409	20835.000000
2301.873674	20660.000000
2303.447638	20934.000000
2305.021301	20712.000000
2306.594665	20748.000000
2308.164410	20116.000000
2309.733856	20294.000000
2311.306320	20449.000000
2312.873510	20232.000000
2314.443718	20226.000000
2316.010311	19996.000000
2317.578264	20173.000000
2319.144261	20127.000000
2320.709961	20112.000000
2322.275363	20417.000000
2323.838812	20192.000000
2325.403620	20611.000000
2326.964820	20514.000000
2328.529034	21120.000000
2330.087986	21177.000000
2331.649953	20326.000000
2333.209968	20095.000000
2334.769689	19665.000000
2336.327460	19792.000000
2337.884936	19694.000000
2339.442118	19753.000000
2340.997352	19500.000000
2342.552293	19522.000000
2344.106939	19318.000000
2345.661292	19871.000000
2347.215352	19656.000000
2348.769117	19664.000000
2350.320939	19411.000000
2351.870817	19263.000000
2353.423703	19555.000000
2354.971347	18888.000000
2356.521998	19292.000000
2358.069058	19061.000000
2359.617476	18901.000000
2361.165603	18731.000000
2362.710141	18964.000000
2364.256037	18878.000000
2365.799995	18872.000000
2367.345310	18599.000000
2368.887040	18660.000000
2370.430127	18386.000000
2371.971278	18463.000000
2373.512140	18492.000000
2375.052713	18488.000000
2376.592997	18652.000000
2378.132992	18251.000000
2379.669409	18439.000000
2381.208827	18394.000000
2382.744668	18606.000000
2384.281865	17944.000000
2385.815487	18365.000000
2387.352109	18163.000000
2388.886801	18015.000000
2390.419563	17775.000000
2391.952038	18270.000000
2393.482585	18265.000000
2395.016130	18271.000000
2396.544464	17799.000000
2398.074155	17775.000000
2399.603559	17919.000000
2401.132679	17741.000000
2402.661514	17858.000000
2404.185143	17874.000000
2405.713408	17694.000000
2407.236471	17644.000000
2408.764167	17382.000000
2410.285024	17583.000000
2411.810514	17727.000000
2413.332443	17599.000000
2414.855728	17574.000000
2416.377091	17557.000000
2417.896535	17543.000000
2419.417335	17407.000000
2420.936215	17341.000000
2422.454813	17407.000000
2423.971494	17248.000000
2425.489529	17169.000000
2427.007283	17312.000000
2428.521486	17162.000000
2430.035408	17185.000000
2431.549050	17494.000000
2433.064047	16964.000000
2434.575495	17144.000000
2436.088298	17049.000000
2437.599187	17013.000000
2439.109798	17205.000000
2440.618497	16922.000000
2442.130182	16860.000000
2443.638324	16803.000000
2445.146188	16563.000000
2446.653774	16757.000000
2448.157819	16865.000000
2449.664849	16346.000000
2451.169972	16908.000000
2452.674816	16741.000000
2454.177754	16576.000000
2455.680416	16400.000000
2457.182801	16509.000000
2458.683281	16076.000000
2460.185114	16569.000000
2461.685042	16394.000000
2463.184695	16370.000000
2464.684073	16190.000000
2466.181548	16046.000000
2467.677121	16239.000000
2469.175674	15919.000000
2470.670699	15937.000000
2472.167076	15983.000000
2473.659927	16135.000000
2475.154131	15865.000000
2476.648061	15778.000000
2478.138467	15777.000000
2479.631851	15985.000000
2481.123337	15420.000000
2482.612926	16121.000000
2484.102243	15597.000000
2485.589664	16006.000000
2487.080061	15638.000000
2488.566940	16044.000000
2490.055170	15598.000000
2491.539884	15860.000000
2493.024327	15861.000000
2494.510121	15635.000000
2495.994024	15458.000000
2497.479277	15813.000000
2498.959397	15744.000000
2500.442490	15815.000000
2501.923692	15719.000000
2503.404625	15981.000000
2504.883669	15580.000000
2506.362444	15588.000000
2507.840951	15492.000000
2509.319190	15589.000000
2510.797160	15648.000000
2512.271625	15486.000000
2513.749060	15486.000000
2515.222991	15576.000000
2516.698272	15680.000000
2518.173286	15578.000000
2519.644800	15263.000000
2521.117663	15705.000000
2522.588644	15380.000000
2524.060975	15454.000000
2525.528192	15417.000000
2526.998376	15207.000000
2528.466679	15362.000000
2529.934717	15506.000000
2531.402490	15625.000000
2532.869998	15007.000000
2534.337241	15194.000000
2535.800992	15399.000000
2537.266093	15587.000000
2538.729317	15063.000000
2540.193891	15321.000000
2541.654975	15417.000000
2543.117409	15152.000000
2544.579580	15382.000000
2546.038265	15073.000000
2547.501522	15432.000000
2548.959682	15158.000000
2550.419191	15284.000000
2551.873606	15247.000000
2553.332592	15385.000000
2554.789706	15126.000000
2556.244949	15373.000000
2557.699931	15162.000000
2559.153043	15363.000000
2560.607504	15076.000000
2562.060095	15193.000000
2563.512427	15302.000000
2564.962892	14927.000000
2566.416312	14952.000000
2567.864650	14914.000000
2569.315944	14826.000000
2570.765371	14865.000000
2572.211326	15204.000000
2573.660236	15112.000000
2575.105676	14877.000000
2576.552463	15017.000000
2577.997388	14690.000000
2579.442054	14992.000000
2580.888068	14988.000000
2582.330616	14895.000000
2583.774511	14857.000000
2585.214941	14805.000000
2586.656718	14994.000000
2588.096636	14882.000000
2589.537901	14461.000000
2590.975704	14945.000000
2592.416457	14595.000000
2593.852148	14681.000000
2595.290788	14889.000000
2596.727570	14669.000000
2598.162497	14999.000000
2599.600371	14628.000000
2601.033188	14655.000000
2602.467352	14703.000000
2603.899662	14758.000000
2605.333318	14746.000000
2606.765121	14630.000000
2608.196670	14383.000000
2609.627967	14262.000000
2611.057411	14565.000000
2612.486603	14405.000000
2613.913945	14607.000000
2615.342632	14317.000000
2616.771068	14513.000000
2618.196056	14659.000000
2619.622391	14855.000000
2621.046877	14368.000000
2622.472709	14369.000000
2623.895097	14477.000000
2625.318831	14536.000000
2626.740718	14588.000000
2628.162356	14484.000000
2629.582148	14470.000000
2631.003286	14653.000000
2632.424174	14298.000000
2633.841624	14388.000000
2635.262013	14574.000000
2636.678965	14397.000000
2638.095668	14419.000000
2639.512123	14235.000000
2640.928330	14548.000000
2642.344289	14289.000000
2643.758407	14584.000000
2645.172277	14733.000000
2646.584309	14372.000000
2647.997684	14636.000000
2649.407630	14464.000000
2650.820512	14714.000000
2652.229965	14769.000000
2653.639172	14508.000000
2655.046543	14538.000000
2656.456848	14696.000000
2657.865318	14545.000000
2659.271952	14519.000000
2660.678341	14778.000000
2662.082896	14813.000000
2663.488795	14782.000000
2664.892861	14446.000000
2666.296682	14633.000000
2667.700259	14439.000000
2669.102005	14819.000000
2670.505094	14863.000000
2671.904765	14865.000000
2673.305780	14530.000000
2674.703379	14677.000000
2676.103908	14653.000000
2677.501021	14605.000000
2678.899479	14628.000000
2680.296108	14317.000000
2681.692495	14678.000000
2683.088640	14809.000000
2684.482960	14752.000000
2685.878621	14808.000000
2687.270874	14593.000000
2688.664469	14811.000000
2690.056240	14913.000000
2691.449354	14694.000000
2692.840644	14742.000000
2694.230111	14711.000000
2695.619338	14676.000000
2697.008326	14894.000000
2698.398655	14903.000000
2699.784001	14785.000000
2701.172270	14630.000000
2702.558719	14934.000000
2703.944929	14737.000000
2705.330900	14882.000000
2706.713473	14846.000000
2708.097388	14827.000000
2709.481065	14811.000000
2710.864503	14820.000000
2712.244547	14967.000000
2713.625931	14923.000000
2715.005501	15119.000000
2716.386411	15138.000000
2717.765507	15408.000000
2719.142789	15333.000000
2720.521412	15221.000000
2721.898222	15267.000000
2723.274795	15275.000000
2724.651133	15308.000000
2726.025660	15370.000000
2727.401527	15584.000000
2728.774007	15232.000000
2730.149403	15221.000000
2731.519839	15524.000000
2732.891616	15313.000000
2734.263158	15488.000000
2735.632892	15416.000000
2737.003967	15556.000000
2738.373233	15830.000000
2739.742266	15973.000000
2741.109493	15998.000000
2742.476487	15512.000000
2743.843247	15658.000000
2745.209776	15575.000000
2746.574499	15865.000000
2747.938990	16407.000000
2749.303250	15922.000000
2750.667277	15995.000000
2752.031073	15919.000000
2753.391495	16170.000000
2754.754827	16407.000000
2756.113217	16133.000000
2757.474517	16395.000000
2758.832447	16296.000000
2760.193285	16227.000000
2761.552324	16316.000000
2762.907994	16405.000000
2764.266572	16225.000000
2765.621783	16544.000000
2766.976765	16567.000000
2768.329951	16606.000000
2769.686043	16657.000000
2771.038770	17226.000000
2772.391270	16570.000000
2773.743541	17177.000000
2775.097151	17195.000000
2776.447399	16953.000000
2777.795853	16939.000000
2779.147213	16969.000000
2780.495213	17062.000000
2781.844551	17390.000000
2783.192098	17508.000000
2784.539417	17346.000000
2785.886510	17346.000000
2787.231812	17493.000000
2788.576887	17521.000000
2789.921737	17796.000000
2791.266361	17713.000000
2792.607633	17815.000000
2793.950243	17878.000000
2795.292627	18056.000000
2796.634786	18024.000000
2797.973597	18259.000000
2799.315306	18303.000000
2800.653668	18405.000000
2801.993366	18640.000000
2803.331280	18402.000000
2804.667409	18393.000000
2806.003314	18695.000000
2807.340557	19124.000000
2808.676016	18920.000000
2810.011252	18999.000000
2811.344705	19195.000000
2812.679495	19509.000000
2814.010945	19272.000000
2815.345290	19832.000000
2816.674737	19377.000000
2818.005521	19897.000000
2819.336083	20146.000000
2820.664866	20322.000000
2821.994985	19926.000000
2823.323326	20366.000000
2824.651446	20589.000000
2825.977788	20393.000000
2827.305467	21033.000000
2828.629812	20687.000000
2829.955494	20847.000000
2831.279400	20995.000000
2832.603087	21171.000000
2833.928109	21018.000000
2835.249801	21375.000000
2836.571275	21242.000000
2837.892530	21459.000000
2839.213566	21676.000000
2840.532829	21665.000000
2841.853428	21935.000000
2843.172256	22037.000000
2844.490865	22521.000000
2845.807703	22268.000000
2847.124324	22451.000000
2848.440728	22762.000000
2849.755362	22977.000000
2851.071332	22559.000000
2852.383981	23292.000000
2853.697965	23561.000000
2855.011733	23891.000000
2856.325285	23541.000000
2857.637069	24096.000000
2858.947087	23998.000000
2860.258440	24238.000000
2861.566478	24706.000000
2862.875850	24959.000000
2864.185008	25108.000000
2865.493950	25105.000000
2866.801128	25687.000000
2868.106544	25907.000000
2869.413294	25747.000000
2870.718281	26610.000000
2872.023055	26589.000000
2873.326067	26864.000000
2874.631960	26887.000000
2875.932999	27236.000000
2877.235372	27587.000000
2878.535985	28101.000000
2879.837932	28286.000000
2881.139666	28182.000000
2882.438095	28802.000000
2883.737858	29140.000000
2885.035864	28817.000000
2886.333658	29551.000000
2887.629696	29421.000000
2888.927067	29923.000000
2890.222682	30250.000000
2891.518086	30321.000000
2892.813279	30722.000000
2894.105175	30853.000000
2895.399947	30890.000000
2896.691422	31311.000000
2897.984230	31710.000000
2899.276828	31863.000000
2900.566132	32440.000000
2901.856768	32487.000000
2903.145653	33143.000000
2904.435870	33075.000000
2905.722796	33159.000000
2907.011054	34038.000000
2908.297563	34314.000000
2909.583864	34021.000000
2910.869956	35137.000000
2912.154300	35186.000000
2913.441515	35395.000000
2914.723904	36551.000000
2916.007625	35853.000000
2917.289600	36286.000000
2918.571367	36681.000000
2919.851390	37522.000000
2921.134282	37493.000000
2922.415429	37543.000000
2923.693294	38341.000000
2924.974028	39565.000000
2926.251481	39771.000000
2927.528728	39339.000000
2928.804233	39717.000000
2930.082606	40577.000000
2931.356165	40012.000000
2932.632591	40733.000000
2933.907276	41596.000000
2935.180220	42357.000000
2936.454496	42309.000000
2937.727032	43622.000000
2938.999363	43263.000000
2940.268422	43772.000000
2941.540346	44798.000000
2942.810532	44830.000000
2944.080514	45497.000000
2945.350293	45573.000000
2946.618336	46428.000000
2947.884642	46845.000000
2949.150747	47839.000000
2950.418181	48312.000000
2951.683881	49269.000000
2952.949378	47442.000000
2954.214673	50000.000000
2955.476703	49718.000000
2956.740063	50874.000000
2958.003222	51416.000000
2959.264649	52011.000000
2960.527405	52196.000000
2961.788429	52657.000000
2963.047723	53993.000000
2964.306817	54306.000000
2965.565710	54198.000000
2966.824403	55162.000000
2968.082896	55971.000000
2969.339660	55540.000000
2970.596224	55589.000000
2971.851061	56579.000000
2973.107226	57643.000000
2974.360137	56414.000000
2975.614377	56724.000000
2976.868418	58494.000000
2978.120733	58292.000000
2979.372849	59660.000000
2980.623241	58911.000000
2981.876488	59708.000000
2983.124958	60383.000000
2984.376283	60560.000000
2985.624358	60236.000000
2986.872237	60965.000000
2988.119918	61706.000000
2989.367402	62147.000000
2990.613165	62524.000000
2991.858732	62882.000000
2993.105626	62323.000000
2994.349276	62951.000000
2995.594254	63343.000000
2996.835988	64020.000000
2998.080574	64117.000000
2999.323441	63916.000000
3000.563067	64068.000000
3001.805543	64030.000000
3003.044779	63978.000000
3004.285343	64058.000000
3005.524191	63387.000000
3006.762843	64092.000000
3007.999781	64095.000000
3009.238045	63939.000000
3010.474594	64157.000000
3011.710950	63651.000000
3012.947112	64100.000000
3014.181560	64059.000000
3015.415816	63993.000000
3016.649878	64000.000000
3017.882228	63965.000000
3019.112866	64088.000000
3020.346350	64091.000000
3021.578122	64124.000000
3022.808184	64114.000000
3024.038054	64076.000000
3025.266214	64032.000000
3026.495700	63651.000000
3027.723477	64088.000000
3028.951064	63875.000000
3030.179976	63968.000000
3031.404146	64010.000000
3032.631159	63625.000000
3033.854948	64034.000000
3035.080064	63849.000000
3036.303473	64088.000000
3037.526692	63773.000000
3038.748206	63928.000000
3039.972561	63935.000000
3041.192181	64014.000000
3042.413127	64042.000000
3043.633884	63920.000000
3044.852937	64070.000000
3046.073316	63577.000000
3047.290477	63923.000000
3048.508965	63845.000000
3049.725750	64086.000000
3050.942348	63951.000000
3052.158757	64112.000000
3053.371954	64005.000000
3054.587988	64064.000000
3055.800810	64031.000000
3057.016469	64151.000000
3058.227405	63974.000000
3059.439666	63854.000000
3060.651741	63926.000000
3061.863628	63807.000000
3063.073819	64085.000000
3064.283823	64179.000000
3065.493641	63965.000000
3066.701763	64143.000000
3067.909700	64143.000000
3069.115941	64098.000000
3070.323507	64127.000000
3071.529378	64019.000000
3072.735065	63911.000000
3073.940566	64051.000000
3075.144374	64011.000000
3076.349506	64127.000000
3077.552946	64136.000000
3078.754693	63737.000000
3079.956256	64111.000000
3081.157636	63835.000000
3082.358832	64071.000000
3083.558338	63986.000000
3084.757661	63918.000000
3085.958307	64109.000000
3087.157263	63785.000000
3088.353025	64093.000000
3089.551616	63899.000000
3090.747013	63349.000000
3091.943733	64090.000000
3093.137261	64098.000000
3094.333617	64216.000000
3095.528287	63971.000000
3096.719766	63936.000000
3097.915576	64119.000000
3099.106693	64113.000000
3100.299132	63884.000000
3101.488384	64071.000000
3102.680461	63844.000000
3103.870855	63903.000000
3105.058063	64186.000000
3106.246594	64144.000000
3107.436446	64031.000000
3108.623115	64130.000000
3109.809604	63633.000000
3110.995913	64061.000000
3112.183544	64150.000000
3113.367993	64107.000000
3114.550763	64007.000000
3115.736355	63142.000000
3116.920268	64168.000000
3118.102502	64171.000000
3119.284557	64057.000000
3120.466434	63989.000000
3121.648133	64029.000000
3122.828155	63974.000000
3124.006500	64103.000000
3125.187665	64078.000000
3126.365656	64016.000000
3127.543469	64016.000000
3128.721105	64153.000000
3129.897066	63939.000000
3131.072850	64037.000000
3132.249956	63608.000000
3133.425387	64028.000000
3134.599145	63744.000000
3135.771230	64049.000000
3136.944637	63962.000000
3138.117867	64072.000000
3139.289426	64006.000000
3140.462305	63846.000000
3141.632017	63896.000000
3142.803050	63871.000000
3143.972413	64040.000000
3145.140105	64135.000000
3146.310614	63829.000000
3147.476463	64146.000000
3148.646621	64083.000000
3149.812123	63846.000000
3150.977450	64079.000000
3152.142605	64122.000000
3153.307585	63939.000000
3154.473885	64111.000000
3155.635533	64079.000000
3156.798500	63685.000000
3157.961295	64053.000000
3159.123917	64091.000000
3160.284874	63633.000000
3161.445658	64097.000000
3162.606270	64070.000000
3163.765218	64092.000000
3164.923995	64091.000000
3166.082600	63704.000000
3167.241033	64040.000000
3168.399294	64005.000000
3169.555893	64094.000000
3170.710831	63959.000000
3171.867088	64090.000000
3173.021684	63982.000000
3174.176110	64100.000000
3175.328876	64015.000000
3176.481472	63925.000000
3177.633897	64037.000000
3178.786153	63833.000000
3179.938238	64084.000000
3181.087178	63713.000000
3182.238924	64106.000000
3183.389012	63838.000000
3184.537444	63952.000000
3185.685706	64096.000000
3186.833800	64052.000000
3187.981725	64001.000000
3189.127994	63773.000000
3190.274096	64110.000000
3191.418542	64086.000000
3192.562821	64036.000000
3193.706932	63942.000000
3194.852360	64026.000000
3195.994650	63979.000000
3197.136773	63915.000000
3198.278728	63948.000000
3199.420516	63995.000000
3200.562137	64041.000000
3201.700623	63943.000000
3202.840426	64093.000000
3203.981547	63882.000000
3205.119533	63917.000000
3206.255870	63712.000000
3207.392041	63883.000000
3208.529529	63802.000000
3209.665369	63993.000000
3210.802526	63790.000000
3211.935070	63914.000000
3213.071896	64045.000000
3214.204110	63925.000000
3215.337641	64106.000000
3216.471008	64031.000000
3217.601247	64045.000000
3218.734284	64044.000000
3219.864195	63520.000000
3220.995422	63631.000000
3222.123525	63529.000000
3223.254424	64102.000000
3224.383679	64168.000000
3225.511291	63930.000000
3226.635780	63671.000000
3227.764545	63810.000000
3228.890188	63807.000000
3230.015669	63874.000000
3231.139508	63861.000000
3232.266141	64137.000000
3233.388177	63999.000000
3234.511529	63861.000000
3235.634719	63753.000000
3236.757747	63812.000000
3237.879135	64040.000000
3239.000361	64123.000000
3240.119950	64048.000000
3241.239377	64062.000000
3242.357166	63960.000000
3243.477747	63970.000000
3244.595215	63875.000000
3245.712522	64026.000000
3246.829669	63245.000000
3247.945180	64030.000000
3249.062005	64071.000000
3250.175721	63911.000000
3251.292226	63801.000000
3252.407097	63714.000000
3253.518859	63929.000000
3254.630461	64045.000000
3255.743379	63939.000000
3256.856137	64106.000000
3257.965789	63925.000000
3259.076756	64016.000000
3260.187564	64052.000000
3261.296740	63975.000000
3262.404286	63305.000000
3263.513145	63982.000000
3264.621847	63940.000000
3265.727446	64118.000000
3266.834359	63439.000000
3267.939643	62302.000000
3269.046241	63681.000000
3270.149739	64098.000000
3271.254552	63843.000000
3272.359207	64093.000000
3273.460763	63513.000000
3274.562163	63854.000000
3275.664878	64047.000000
3276.767435	64037.000000
3277.866896	63978.000000
3278.969141	63732.000000
3280.068290	63893.000000
3281.165815	63559.000000
3282.263184	63840.000000
3283.363335	64051.000000
3284.460394	63850.000000
3285.557297	63986.000000
3286.654045	63669.000000
3287.746235	64110.000000
3288.842673	63967.000000
3289.937489	63591.000000
3291.032151	63917.000000
3292.125191	63718.000000
3293.218077	64043.000000
3294.309342	64029.000000
3295.401919	64113.000000
3296.492877	63876.000000
3297.582215	63619.000000
3298.671400	63969.000000
3299.761898	64038.000000
3300.849311	63612.000000
3301.936571	64072.000000
3303.025144	63943.000000
3304.113565	64092.000000
3305.197438	64077.000000
3306.285553	64044.000000
3307.370587	64086.000000
3308.454004	63877.000000
3309.538734	63862.000000
3310.621849	64034.000000
3311.706275	64040.000000
3312.787623	64005.000000
3313.870283	64166.000000
3314.951329	63867.000000
3316.032224	64117.000000
3317.111505	64132.000000
3318.190636	64068.000000
3319.271079	64047.000000
3320.348447	63911.000000
3321.427127	64066.000000
3322.504195	64040.000000
3323.581114	64050.000000
3324.656421	63963.000000
3325.731579	64113.000000
3326.808048	64173.000000
3327.881447	64104.000000
3328.954697	64053.000000
3330.029257	64095.000000
3331.102209	64154.000000
3332.173552	64108.000000
3333.246206	64086.000000
3334.315794	64028.000000
3335.386692	64057.000000
3336.455983	63847.000000
3337.526585	64028.000000
3338.595580	64127.000000
3339.662969	63868.000000
3340.728753	64014.000000
3341.798763	63959.000000
3342.865710	63990.000000
3343.929595	63511.000000
3344.996248	64190.000000
3346.061296	64115.000000
3347.124741	63201.000000
3348.188040	64193.000000
3349.251192	64121.000000
3350.314198	64191.000000
3351.377058	64203.000000
3352.438316	64192.000000
3353.496517	64110.000000
3354.558938	64126.000000
3355.618304	64017.000000
3356.677524	63629.000000
3357.738054	64122.000000
3358.794074	64001.000000
3359.852858	64001.000000
3360.907135	64080.000000
3361.964176	64030.000000
3363.019618	64219.000000
3364.076370	64134.000000
3365.131523	64172.000000
3366.185079	64222.000000
3367.237039	64105.000000
3368.291760	64173.000000
3369.343432	64109.000000
3370.394961	63926.000000
3371.447798	64091.000000
3372.497588	64102.000000
3373.548687	64018.000000
3374.596740	64230.000000
3375.647552	64137.000000
3376.695320	64209.000000
3377.742945	64217.000000
3378.790427	64209.000000
3379.836317	63279.000000
3380.883515	64140.000000
3381.927671	64240.000000
3382.974585	64068.000000
3384.019907	64062.000000
3385.062188	63839.000000
3386.104329	64134.000000
3387.147777	64150.000000
3388.191084	64222.000000
3389.232802	64189.000000
3390.274378	63751.000000
3391.315814	64157.000000
3392.355660	64263.000000
3393.393918	63979.000000
3394.433484	64170.000000
3395.472910	63987.000000
3396.510748	64164.000000
3397.546999	64201.000000
3398.583111	63899.000000
3399.620530	64151.000000
3400.654916	64199.000000
3401.690609	64268.000000
3402.726163	64238.000000
3403.758686	64265.000000
3404.793962	64233.000000
3405.826207	64163.000000
3406.858314	64286.000000
3407.888837	64055.000000
3408.920667	64254.000000
3409.952359	64036.000000
3410.981023	63925.000000
3412.009550	64247.000000
3413.039383	64273.000000
3414.069079	63935.000000
3415.095749	63882.000000
3416.123726	64216.000000
3417.148678	63911.000000
3418.176380	64156.000000
3419.201059	64203.000000
3420.227044	63843.000000
3421.251449	64236.000000
3422.275718	64087.000000
3423.298408	64238.000000
3424.320962	64227.000000
3425.344822	63709.000000
3426.365662	64222.000000
3427.386366	64213.000000
3428.408377	64185.000000
3429.427369	63959.000000
3430.446226	64238.000000
3431.466388	63953.000000
3432.483534	64322.000000
