-116.773079	66.000000
-114.103479	42.000000
-111.436814	-7.000000
-108.770901	17.000000
-106.107920	-5.000000
-103.443510	0.000000
-100.782030	57.000000
-98.119121	16.000000
-95.461318	63.000000
-92.802086	63.000000
-90.143602	28.000000
-87.488042	43.000000
-84.831054	43.000000
-82.179164	33.000000
-79.525843	-18.000000
-76.875443	33.000000
-74.223613	36.000000
-71.576874	20.000000
-68.928706	23.000000
-66.281280	36.000000
-63.636768	29.000000
-60.990828	35.000000
-58.349969	41.000000
-55.707681	52.000000
-53.068301	24.000000
-50.427493	47.000000
-47.787425	26.000000
-45.152429	37.000000
-42.516005	83.000000
-39.882483	61.000000
-37.247533	68.000000
-34.617648	32.000000
-31.984171	-35.000000
-29.355756	48.000000
-26.728075	43.000000
-24.098965	69.000000
-21.474912	50.000000
-18.847270	76.000000
-16.224681	70.000000
-13.602824	148.000000
-10.981697	173.000000
-8.361300	458.000000
-5.743792	1366.000000
-3.124855	4978.000000
-0.508803	13512.000000
2.106520	14905.000000
4.721116	5688.000000
7.332829	454.000000
9.945971	37.000000
12.554079	145.000000
15.165769	81.000000
17.772428	59.000000
20.380515	62.000000
22.987878	69.000000
25.590216	55.000000
28.196132	66.000000
30.797026	2.000000
33.399348	10.000000
35.996653	15.000000
38.597533	61.000000
41.193398	-12.000000
43.790692	50.000000
46.387266	32.000000
48.978831	54.000000
51.571824	109.000000
54.161956	49.000000
56.753516	103.000000
59.342216	35.000000
61.932343	95.000000
64.517471	66.000000
67.104027	25.000000
69.689869	85.000000
72.272857	70.000000
74.857271	58.000000
77.434557	84.000000
80.015409	22.000000
82.593412	73.000000
85.170705	72.000000
87.749424	96.000000
90.323161	43.000000
92.898326	2.000000
95.470647	123.000000
98.042260	85.000000
100.611033	119.000000
103.181233	106.000000
105.748595	152.000000
108.317382	180.000000
110.883333	209.000000
113.446449	198.000000
116.013121	260.000000
118.570572	305.000000
121.133708	443.000000
123.691884	677.000000
126.253615	1038.000000
128.810389	1581.000000
131.368590	2413.000000
133.921837	3438.000000
136.474387	5000.000000
139.030487	6804.000000
141.581639	9094.000000
144.132094	11279.000000
146.681851	12648.000000
149.228789	13645.000000
151.775032	14271.000000
154.322700	14941.000000
156.869672	14957.000000
159.411709	14834.000000
161.953052	14685.000000
164.493702	14820.000000
167.035778	14531.000000
169.575042	14421.000000
172.111498	14414.000000
174.647262	14087.000000
177.184452	14133.000000
179.720951	14016.000000
182.254644	13499.000000
184.785533	13389.000000
187.315735	13194.000000
189.847361	13145.000000
192.376186	12663.000000
194.902212	12430.000000
197.427552	12176.000000
199.954318	12286.000000
202.478286	12006.000000
205.001570	11610.000000
207.524169	11494.000000
210.043975	11288.000000
212.563098	11016.000000
215.081538	10850.000000
217.601402	10628.000000
220.114265	10402.000000
222.630659	10053.000000
225.146371	10077.000000
227.657193	9848.000000
230.169440	9499.000000
232.678905	9404.000000
235.187691	9447.000000
237.695798	9392.000000
240.205330	9233.000000
242.709981	9038.000000
245.213956	8879.000000
247.719355	8528.000000
250.219879	8587.000000
252.723927	8369.000000
255.221003	8426.000000
257.721603	8118.000000
260.219431	8211.000000
262.716586	8072.000000
265.213068	7639.000000
267.704687	7946.000000
270.199826	7661.000000
272.692198	7480.000000
275.183901	7503.000000
277.672839	7443.000000
280.163202	7424.000000
282.650802	7366.000000
285.135643	7097.000000
287.623999	7223.000000
290.105415	7052.000000
292.590345	6991.000000
295.070430	6778.000000
297.554027	6849.000000
300.032781	6744.000000
302.512959	6777.000000
304.990384	6650.000000
307.467146	6582.000000
309.943245	6607.000000
312.416595	6523.000000
314.889283	6383.000000
317.361310	6558.000000
319.832676	6510.000000
322.301297	6525.000000
324.769260	6596.000000
327.238644	6533.000000
329.703206	6668.000000
332.171272	6524.000000
334.634518	6441.000000
337.097106	6719.000000
339.559038	6649.000000
342.020313	6563.000000
344.478854	6645.000000
346.938817	6614.000000
349.396047	6650.000000
351.852623	6725.000000
354.308545	6748.000000
356.761737	6911.000000
359.216352	6604.000000
361.666165	7032.000000
364.119474	7027.000000
366.567985	7361.000000
369.015844	7180.000000
371.465126	7523.000000
373.909614	7818.000000
376.355524	7882.000000
378.800784	7627.000000
381.243326	7531.000000
383.685220	7478.000000
386.126467	7412.000000
388.564998	7139.000000
391.004951	7015.000000
393.442190	7006.000000
395.876717	7108.000000
398.314732	7105.000000
400.747970	7267.000000
403.182629	7014.000000
405.612516	7094.000000
408.045888	7247.000000
410.474490	7325.000000
412.902450	7430.000000
415.331832	7476.000000
417.756448	7567.000000
420.182486	7861.000000
422.607883	7785.000000
425.032640	8078.000000
427.452639	8152.000000
429.874059	8202.000000
432.292782	8491.000000
434.712926	8737.000000
437.130375	8655.000000
439.549244	8697.000000
441.965420	8649.000000
444.376848	8505.000000
446.791754	8365.000000
449.203969	8177.000000
451.615550	7981.000000
454.026497	8025.000000
456.434758	8033.000000
458.842386	7889.000000
461.249382	7869.000000
463.655747	7731.000000
466.059429	7845.000000
468.462481	7595.000000
470.864903	7487.000000
473.266695	7759.000000
475.665810	7676.000000
478.066344	7903.000000
480.466249	7890.000000
482.861431	8253.000000
485.260080	8466.000000
487.654009	8589.000000
490.047312	9026.000000
492.439989	8900.000000
494.832041	8711.000000
497.225511	8426.000000
499.614270	8219.000000
502.000361	8186.000000
504.387873	7549.000000
506.774762	7558.000000
509.158987	7207.000000
511.544630	7146.000000
513.927612	7171.000000
516.307933	7164.000000
518.689673	7095.000000
521.068754	7030.000000
523.449254	7099.000000
525.827096	6966.000000
528.202283	6976.000000
530.576852	6906.000000
532.952839	6974.000000
535.326174	6961.000000
537.700926	6954.000000
540.070993	7083.000000
542.440444	6856.000000
544.811313	6960.000000
547.177502	6749.000000
549.545109	6930.000000
551.910070	6732.000000
554.274418	7031.000000
556.638153	6872.000000
559.003306	6923.000000
561.363787	6808.000000
563.725686	6899.000000
566.084944	6680.000000
568.441565	6749.000000
570.801630	6852.000000
573.155004	6761.000000
575.511823	6852.000000
577.866007	6825.000000
580.219583	6869.000000
582.572550	6711.000000
584.922885	6749.000000
587.274638	6801.000000
589.619714	6751.000000
591.970254	6645.000000
594.314120	6786.000000
596.663448	6920.000000
599.008127	6639.000000
601.350182	6752.000000
603.693654	6763.000000
606.034503	6852.000000
608.374750	6761.000000
610.712376	6723.000000
613.053437	6664.000000
615.389860	6863.000000
617.727700	6672.000000
620.062923	6681.000000
622.395530	6760.000000
624.729553	6689.000000
627.060962	6654.000000
629.391774	6689.000000
631.721987	6609.000000
634.051602	6595.000000
636.376595	6697.000000
638.707028	6900.000000
641.032841	6647.000000
643.356046	6840.000000
645.680668	6740.000000
648.002684	6611.000000
650.324106	6823.000000
652.642926	6760.000000
654.963161	6586.000000
657.282803	6855.000000
659.599844	6732.000000
661.916293	6760.000000
664.230144	6777.000000
666.545411	6716.000000
668.858081	6804.000000
671.172166	6921.000000
673.481651	6852.000000
675.792552	6921.000000
678.100860	6792.000000
680.408580	6793.000000
682.717714	6865.000000
685.022256	6757.000000
687.326212	6689.000000
689.629582	6727.000000
691.934366	6909.000000
694.234564	6675.000000
696.536176	6893.000000
698.837204	6784.000000
701.133649	6766.000000
703.431510	6860.000000
705.728787	6754.000000
708.025481	6764.000000
710.317599	6701.000000
712.613128	6774.000000
714.904083	6931.000000
717.196453	6772.000000
719.486248	6739.000000
721.775462	6750.000000
724.064097	6667.000000
726.350159	6681.000000
728.637636	6818.000000
730.922541	6761.000000
733.206869	6641.000000
735.488628	6893.000000
737.771801	6759.000000
740.054397	6752.000000
742.332437	6851.000000
744.611892	6932.000000
746.890771	6857.000000
749.169074	6855.000000
751.442828	6966.000000
753.717995	6875.000000
755.992589	6949.000000
758.264624	6934.000000
760.538072	7112.000000
762.808962	7138.000000
765.077296	7006.000000
767.347043	7109.000000
769.614236	7150.000000
771.880858	7213.000000
774.146910	7084.000000
776.410411	7248.000000
778.675325	7239.000000
780.939669	7430.000000
783.199484	7339.000000
785.460711	7291.000000
787.721371	7483.000000
789.979485	7597.000000
792.235054	7775.000000
794.494014	7729.000000
796.746475	8198.000000
799.004302	8602.000000
801.257611	9103.000000
803.508380	9988.000000
805.760561	11549.000000
808.010203	13916.000000
810.261258	17980.000000
812.507801	23739.000000
814.755756	30565.000000
817.001177	34121.000000
819.248009	30727.000000
821.494280	23511.000000
823.736046	16586.000000
825.981196	12428.000000
828.219873	10491.000000
830.461932	9140.000000
832.699493	8538.000000
834.938466	8122.000000
837.174912	7652.000000
839.412769	7386.000000
841.648101	7327.000000
843.880910	7436.000000
846.115130	7116.000000
848.346827	7025.000000
850.577970	7065.000000
852.808558	6888.000000
855.038592	6844.000000
857.268072	6993.000000
859.493070	6993.000000
861.721443	6702.000000
863.945337	6696.000000
866.170641	6837.000000
868.391470	6861.000000
870.615671	6658.000000
872.835399	6616.000000
875.056537	6585.000000
877.277126	6849.000000
879.495204	6706.000000
881.714692	6743.000000
883.929714	7037.000000
886.144189	6657.000000
888.358115	6688.000000
890.571495	6774.000000
892.784327	6744.000000
894.996613	6615.000000
897.206396	6654.000000
899.415634	6666.000000
901.624327	6524.000000
903.830521	6706.000000
906.038124	6646.000000
908.243229	6754.000000
910.447791	6928.000000
912.649858	7054.000000
914.853334	7056.000000
917.054316	6966.000000
919.254756	7230.000000
921.456605	7230.000000
923.652063	7474.000000
925.850880	7672.000000
928.045258	7696.000000
930.242994	7921.000000
932.436294	7980.000000
934.631003	9006.000000
936.823226	9657.000000
939.014910	10312.000000
941.206057	11005.000000
943.394721	11638.000000
945.582849	12058.000000
947.768496	12137.000000
949.957495	11409.000000
952.142071	10393.000000
954.326112	9370.000000
956.513503	8609.000000
958.692590	8090.000000
960.875028	7857.000000
963.056932	7344.000000
965.236361	7119.000000
967.413318	7204.000000
969.591683	7075.000000
971.771455	7136.000000
973.944878	6789.000000
976.121647	6870.000000
978.294009	6740.000000
980.467779	6674.000000
982.637145	6775.000000
984.809855	6802.000000
986.980100	6633.000000
989.149816	6695.000000
991.319003	6440.000000
993.483793	6506.000000
995.651924	6313.000000
997.815661	6663.000000
999.980804	6512.000000
1002.143488	6603.000000
1004.305647	6331.000000
1006.465349	6571.000000
1008.624526	6480.000000
1010.785110	6527.000000
1012.943240	6616.000000
1015.100845	6349.000000
1017.257927	6536.000000
1019.414485	6371.000000
1021.566664	6242.000000
1023.720250	6359.000000
1025.873314	6379.000000
1028.023929	6453.000000
1030.175951	6392.000000
1032.323599	6272.000000
1034.474579	6324.000000
1036.621188	6128.000000
1038.767278	6227.000000
1040.912850	6197.000000
1043.059827	6275.000000
1045.200515	6343.000000
1047.344533	6405.000000
1049.486110	6314.000000
1051.627171	6291.000000
1053.769636	6443.000000
1055.905822	6408.000000
1058.045334	6390.000000
1060.180490	6456.000000
1062.318971	6309.000000
1064.453098	6484.000000
1066.586712	6439.000000
1068.721731	6308.000000
1070.852400	6559.000000
1072.984474	6341.000000
1075.114119	6511.000000
1077.243252	6480.000000
1079.371873	6603.000000
1081.499983	6826.000000
1083.625667	6736.000000
1085.750841	6844.000000
1087.877419	6793.000000
1089.999659	6882.000000
1092.123304	6966.000000
1094.242614	7163.000000
1096.367154	7031.000000
1098.485448	7255.000000
1100.605147	7644.000000
1102.722427	7767.000000
1104.839201	8191.000000
1106.955468	8384.000000
1109.069319	8629.000000
1111.184575	8969.000000
1113.295507	9075.000000
1115.409752	9118.000000
1117.519676	8935.000000
1119.631004	8695.000000
1121.741827	8959.000000
1123.848334	9084.000000
1125.958151	9366.000000
1128.063653	9250.000000
1130.170558	9252.000000
1132.271248	9244.000000
1134.377150	8963.000000
1136.478743	8583.000000
1138.581739	8328.000000
1140.684234	7991.000000
1142.780522	7753.000000
1144.882018	7254.000000
1146.979210	7241.000000
1149.075905	7031.000000
1151.172101	7086.000000
1153.267800	7235.000000
1155.363000	7172.000000
1157.455804	7325.000000
1159.550011	7575.000000
1161.638026	7808.000000
1163.731239	7944.000000
1165.818264	8079.000000
1167.908588	8145.000000
1169.994625	8132.000000
1172.083959	7683.000000
1174.167112	7414.000000
1176.251667	7410.000000
1178.337624	6995.000000
1180.419299	6981.000000
1182.502376	6850.000000
1184.583067	6508.000000
1186.663266	6655.000000
1188.742974	6660.000000
1190.822191	6565.000000
1192.899026	6416.000000
1194.973480	6537.000000
1197.051225	6422.000000
1199.124701	6449.000000
1201.199577	6529.000000
1203.270186	6332.000000
1205.342196	6284.000000
1207.411831	6501.000000
1209.482866	6471.000000
1211.553413	6237.000000
1213.619699	6373.000000
1215.687386	6251.000000
1217.752701	6318.000000
1219.819416	6232.000000
1221.881875	6316.000000
1223.947619	6239.000000
1226.009109	6423.000000
1228.072000	6281.000000
1230.132523	6395.000000
1232.192562	6305.000000
1234.252119	6358.000000
1236.309310	6334.000000
1238.366020	6217.000000
1240.420366	6100.000000
1242.477994	6125.000000
1244.533259	6236.000000
1246.584283	6182.000000
1248.636707	6269.000000
1250.688651	6233.000000
1252.738237	6243.000000
1254.787344	6355.000000
1256.835973	6280.000000
1258.884123	6148.000000
1260.931794	6355.000000
1262.975235	6227.000000
1265.021952	6374.000000
1267.066315	6249.000000
1269.110202	6460.000000
1271.151737	6275.000000
1273.190923	6262.000000
1275.233382	6152.000000
1277.271618	6439.000000
1279.311253	6303.000000
1281.350413	6302.000000
1283.385354	6310.000000
1285.421694	6299.000000
1287.455690	6503.000000
1289.491083	6434.000000
1291.522264	6562.000000
1293.554842	6471.000000
1295.586949	6597.000000
1297.616715	6752.000000
1299.647879	6758.000000
1301.674835	6782.000000
1303.703189	6707.000000
1305.727339	6785.000000
1307.754753	6771.000000
1309.777965	6773.000000
1311.802575	6824.000000
1313.824851	6972.000000
1315.848524	6853.000000
1317.869864	6788.000000
1319.890736	6884.000000
1321.911141	6745.000000
1323.927353	6901.000000
1325.944962	6679.000000
1327.960243	6825.000000
1329.978783	6693.000000
1331.993134	6801.000000
1334.005159	6917.000000
1336.020441	6847.000000
1338.031538	7205.000000
1340.044032	7283.000000
1342.052343	7819.000000
1344.063909	7541.000000
1346.069437	7544.000000
1348.078220	7823.000000
1350.082825	7618.000000
1352.090684	7333.000000
1354.098081	7051.000000
1356.099447	6781.000000
1358.102209	6712.000000
1360.104512	6718.000000
1362.106355	6703.000000
1364.107738	6682.000000
1366.106808	6391.000000
1368.105419	6561.000000
1370.103572	6550.000000
1372.101266	6228.000000
1374.094798	6623.000000
1376.089726	6418.000000
1378.084196	6301.000000
1380.078210	6412.000000
1382.069917	6277.000000
1384.061169	6546.000000
1386.050115	6559.000000
1388.040456	6740.000000
1390.030342	6608.000000
1392.017924	6676.000000
1394.005053	6796.000000
1395.989880	6569.000000
1397.976102	6789.000000
1399.960024	6743.000000
1401.943493	6822.000000
1403.926509	7021.000000
1405.907228	7015.000000
1407.889341	7226.000000
1409.869158	7218.000000
1411.848523	7346.000000
1413.823750	7525.000000
1415.802215	7379.000000
1417.778387	7531.000000
1419.754110	7524.000000
1421.729383	7384.000000
1423.702365	7345.000000
1425.674899	7252.000000
1427.646985	7261.000000
1429.618624	7376.000000
1431.586134	7387.000000
1433.558718	7513.000000
1435.523497	7515.000000
1437.493347	7563.000000
1439.459074	7569.000000
1441.426193	7926.000000
1443.391029	8471.000000
1445.351745	8968.000000
1447.317529	9712.000000
1449.277358	10437.000000
1451.238581	11656.000000
1453.201196	12364.000000
1455.159696	11843.000000
1457.117753	11722.000000
1459.075369	11477.000000
1461.032542	10552.000000
1462.987440	10371.000000
1464.943731	9856.000000
1466.897747	9404.000000
1468.851322	9051.000000
1470.802625	8513.000000
1472.755321	7758.000000
1474.705745	7339.000000
1476.655729	6767.000000
1478.605275	6775.000000
1480.552552	6235.000000
1482.497561	6268.000000
1484.443963	6158.000000
1486.389927	5950.000000
1488.335454	5814.000000
1490.278715	5880.000000
1492.221541	5901.000000
1494.162103	5572.000000
1496.104056	5697.000000
1498.043747	5656.000000
1499.983004	5459.000000
1501.921825	5517.000000
1503.858387	5652.000000
1505.796340	5433.000000
1507.732034	5466.000000
1509.667295	5412.000000
1511.600300	5399.000000
1513.532872	5345.000000
1515.465012	5393.000000
1517.396720	5348.000000
1519.326174	5257.000000
1521.257019	5289.000000
1523.187432	5377.000000
1525.113773	5215.000000
1527.041505	5230.000000
1528.966986	5231.000000
1530.892038	5169.000000
1532.816661	5410.000000
1534.740855	5182.000000
1536.662801	5196.000000
1538.586138	5238.000000
1540.507228	5071.000000
1542.426075	5122.000000
1544.346310	5202.000000
1546.264303	5353.000000
1548.181869	5268.000000
1550.097193	5008.000000
1552.013907	5184.000000
1553.926566	5121.000000
1555.842429	4979.000000
1557.756052	5174.000000
1559.667438	5099.000000
1561.580212	5145.000000
1563.488937	5104.000000
1565.399051	5118.000000
1567.308742	4962.000000
1569.218010	4860.000000
1571.125044	5128.000000
1573.029845	5011.000000
1574.936035	5096.000000
1576.839993	5042.000000
1578.743530	5045.000000
1580.646647	4975.000000
1582.547534	5057.000000
1584.449810	5071.000000
1586.349858	5122.000000
1588.251293	5053.000000
1590.148695	5022.000000
1592.045678	5081.000000
1593.942243	5069.000000
1595.840196	5070.000000
1597.732314	5067.000000
1599.627625	5053.000000
1601.522519	5022.000000
1603.415191	5193.000000
1605.307446	5112.000000
1607.197482	5146.000000
1609.087102	5193.000000
1610.976307	5183.000000
1612.865097	5200.000000
1614.751669	5184.000000
1616.639629	5138.000000
1618.523572	5251.000000
1620.408902	5342.000000
1622.293819	5260.000000
1624.176522	5247.000000
1626.060612	5263.000000
1627.940691	5409.000000
1629.822156	5219.000000
1631.701411	5217.000000
1633.582052	5278.000000
1635.456889	5264.000000
1637.336707	5259.000000
1639.212521	5346.000000
1641.087924	5309.000000
1642.964713	5246.000000
1644.835706	5263.000000
1646.709880	5275.000000
1648.580056	5177.000000
1650.453412	5382.000000
1652.324565	5146.000000
1654.193516	5230.000000
1656.063852	5094.000000
1657.930196	5135.000000
1659.797925	5048.000000
1661.663455	5154.000000
1663.530371	5105.000000
1665.393298	5014.000000
1667.257610	4940.000000
1669.119726	5093.000000
1670.981437	4891.000000
1672.844534	4890.000000
1674.705435	4936.000000
1676.564144	4939.000000
1678.422449	4863.000000
1680.282139	4904.000000
1682.136061	4800.000000
1683.993157	4795.000000
1685.849850	4740.000000
1687.702566	4628.000000
1689.558454	4640.000000
1691.410368	4613.000000
1693.261881	4646.000000
1695.112993	4473.000000
1696.963705	4433.000000
1698.814016	4381.000000
1700.662142	4381.000000
1702.511653	4492.000000
1704.355415	4497.000000
1706.204126	4460.000000
1708.047091	4311.000000
1709.893223	4346.000000
1711.735392	4278.000000
1713.580727	4326.000000
1715.420321	4326.000000
1717.261299	4264.000000
1719.103660	4266.000000
1720.942065	4230.000000
1722.781853	4012.000000
1724.619466	4098.000000
1726.456683	4237.000000
1728.291727	4080.000000
1730.128154	4024.000000
1731.962409	3973.000000
1733.796269	3939.000000
1735.629735	3917.000000
1737.459256	4129.000000
1739.291935	4075.000000
1741.120670	3911.000000
1742.952562	3913.000000
1744.780512	3891.000000
1746.608071	3781.000000
1748.435237	3910.000000
1750.262012	3877.000000
1752.088395	3833.000000
1753.910842	3821.000000
1755.736444	3755.000000
1757.558111	3836.000000
1759.381160	3771.000000
1761.202047	3714.000000
1763.022546	3675.000000
1764.844426	3650.000000
1766.660606	3644.000000
1768.479938	3630.000000
1770.295343	3717.000000
1772.113898	3628.000000
1773.928528	3530.000000
1775.742771	3677.000000
1777.556628	3757.000000
1779.370098	3614.000000
1781.181415	3619.000000
1782.994112	3576.000000
1784.806424	3615.000000
1786.614818	3702.000000
1788.424592	3484.000000
1790.230452	3456.000000
1792.039457	3597.000000
1793.844549	3575.000000
1795.651022	3561.000000
1797.457111	3445.000000
1799.259289	3723.000000
1801.064612	3539.000000
1802.866026	3482.000000
1804.668820	3597.000000
1806.467708	3477.000000
1808.267977	3419.000000
1810.067864	3562.000000
1811.865609	3526.000000
1813.662974	3457.000000
1815.459959	3382.000000
1817.256563	3432.000000
1819.051028	3504.000000
1820.846872	3477.000000
1822.637061	3431.000000
1824.432147	3368.000000
1826.221581	3327.000000
1828.014151	3351.000000
1829.804586	3345.000000
1831.592887	3482.000000
1833.384323	3403.000000
1835.170113	3330.000000
1836.957283	3464.000000
1838.742321	3313.000000
1840.530493	3320.000000
1842.314779	3292.000000
1844.096935	3414.000000
1845.880471	3389.000000
1847.661878	3365.000000
1849.444664	3264.000000
1851.223569	3315.000000
1853.003854	3333.000000
1854.782012	3360.000000
1856.561549	3255.000000
1858.338961	3377.000000
1860.114249	3232.000000
1861.890915	3371.000000
1863.665459	3273.000000
1865.441381	3336.000000
1867.211682	3359.000000
1868.985111	3325.000000
1870.756420	3162.000000
1872.527358	3342.000000
1874.299674	3244.000000
1876.066376	3354.000000
1877.836204	3245.000000
1879.602168	3340.000000
1881.371255	3195.000000
1883.136481	3257.000000
1884.901339	3154.000000
1886.667574	3189.000000
1888.429950	3229.000000
1890.191959	3226.000000
1891.953600	3195.000000
1893.714875	3238.000000
1895.475782	3041.000000
1897.236323	3284.000000
1898.994754	3267.000000
1900.752819	3182.000000
1902.508777	3149.000000
1904.266111	3194.000000
1906.023080	3059.000000
1907.777942	3082.000000
1909.530700	3115.000000
1911.283093	3183.000000
1913.036863	3114.000000
1914.788529	3068.000000
1916.538093	3122.000000
1918.289032	3074.000000
1920.039609	3106.000000
1921.786346	3154.000000
1923.534460	3065.000000
1925.280474	2978.000000
1927.027863	3099.000000
1928.773155	3210.000000
1930.516349	3195.000000
1932.260918	3139.000000
1934.003392	3156.000000
1935.745505	3119.000000
1937.487258	2988.000000
1939.228652	3219.000000
1940.967951	2998.000000
1942.706892	2961.000000
1944.445474	3052.000000
1946.181965	3055.000000
1947.918098	3102.500000
1949.655605	3150.000000
1951.389290	3127.000000
1953.124350	3051.000000
1954.857321	3134.000000
1956.589936	2990.000000
1958.322195	3065.000000
1960.054097	3020.000000
1961.783913	3062.000000
1963.511644	3170.000000
1965.240750	3026.000000
1966.969501	3023.000000
1968.696168	3128.000000
1970.422481	3164.000000
1972.150167	3065.000000
1973.872317	2968.000000
1975.597568	2972.000000
1977.319012	3123.000000
1979.043557	3102.000000
1980.766021	3093.000000
1982.484683	3140.000000
1984.206443	3037.000000
1985.924401	3100.000000
1987.643732	3042.000000
1989.359264	3057.000000
1991.079616	3125.000000
1992.796170	3089.000000
1994.508927	2945.000000
1996.224780	3027.000000
1997.938561	3086.000000
1999.651992	3057.000000
2001.363352	3021.000000
2003.076084	3029.000000
2004.785026	2961.000000
2006.497060	2995.000000
2008.203586	3076.000000
2009.913203	3187.000000
2011.620754	3100.000000
2013.327956	3051.000000
2015.033093	3104.000000
2016.737884	3067.000000
2018.444046	3061.000000
2020.146426	2948.000000
2021.850177	3035.000000
2023.551866	3090.000000
2025.253210	3072.000000
2026.954208	2947.000000
2028.653145	3093.000000
2030.353454	2958.000000
2032.049988	3128.000000
2033.747893	3045.000000
2035.443739	3045.000000
2037.142671	3057.000000
2038.836117	3092.000000
2040.530934	3028.000000
2042.225409	3116.000000
2043.916115	3081.000000
2045.609905	3047.000000
2047.299928	3099.000000
2048.991322	3081.000000
2050.680663	2994.000000
2052.371374	2979.000000
2054.058322	2922.000000
2055.744931	2956.000000
2057.432909	2851.000000
2059.117128	3018.000000
2060.802718	2908.000000
2062.487968	2986.000000
2064.171170	2995.000000
2065.855741	3055.000000
2067.534850	2935.000000
2069.218744	3019.000000
2070.897177	2951.000000
2072.578688	2911.000000
2074.256447	2956.000000
2075.933870	2999.000000
2077.612662	2890.000000
2079.289412	2827.000000
2080.964120	2914.000000
2082.640197	2959.000000
2084.314234	2862.000000
2085.987935	2902.000000
2087.661301	2982.000000
2089.332628	2944.000000
2091.003622	2780.000000
2092.674280	2906.000000
2094.344605	2921.000000
2096.014596	2936.000000
2097.682551	2927.000000
2099.350173	2857.000000
2101.015760	2830.000000
2102.682716	2939.000000
2104.347639	2954.000000
2106.012230	2936.000000
2107.674789	2901.000000
2109.338716	2974.000000
2111.000612	2848.000000
2112.662178	2834.000000
2114.323412	2922.000000
2115.982618	2863.000000
2117.641493	2830.000000
2119.300039	3013.000000
2120.958255	2946.000000
2122.612747	2862.000000
2124.270304	2854.000000
2125.927532	2942.000000
2127.581038	3015.000000
2129.235912	2968.000000
2130.887067	2894.000000
2132.541285	2964.000000
2134.191786	2966.000000
2135.843653	2940.000000
2137.490112	2909.000000
2139.141326	2918.000000
2140.788826	2892.000000
2142.437693	2872.000000
2144.084541	2957.000000
2145.731064	2766.000000
2147.377261	2791.000000
2149.019750	2819.000000
2150.665297	2883.000000
2152.307137	2835.000000
2153.952034	2807.000000
2155.593226	2891.000000
2157.234094	2818.000000
2158.874638	2842.000000
2160.513170	2716.000000
2162.153068	2884.000000
2163.789266	2662.000000
2165.426830	2716.000000
2167.064072	2907.000000
2168.699304	2665.000000
2170.334215	2665.000000
2171.968804	2904.000000
2173.603071	2862.000000
2175.233645	2762.000000
2176.867271	2705.000000
2178.497205	2655.000000
2180.128504	2690.000000
2181.757798	2778.000000
2183.386773	2634.000000
2185.015428	2938.000000
2186.643764	2736.000000
2188.270098	2728.000000
2189.896113	2717.000000
2191.520126	2780.000000
2193.145505	2686.000000
2194.768883	2843.000000
2196.393626	2792.000000
2198.014688	2762.000000
2199.635433	2623.000000
2201.257543	2754.000000
2202.877655	2604.000000
2204.495770	2723.000000
2206.113570	2676.000000
2207.731055	2653.000000
2209.348224	2688.000000
2210.965078	2647.000000
2212.581616	2646.000000
2214.196162	2613.000000
2215.808715	2673.000000
2217.422632	2575.000000
2219.034558	2574.000000
2220.647847	2592.000000
2222.259146	2611.000000
2223.868455	2774.000000
2225.479128	2658.000000
2227.087812	2560.000000
2228.696183	2573.000000
2230.302568	2584.000000
2231.910316	2541.000000
2233.516077	2606.000000
2235.121527	2551.000000
2236.724992	2474.000000
2238.329820	2605.000000
2239.932664	2776.000000
2241.533525	2487.000000
2243.135749	2705.000000
2244.735991	2512.000000
2246.337595	2631.000000
2247.935547	2596.000000
2249.534860	2565.000000
2251.132194	2567.000000
2252.729220	2537.000000
2254.327608	2580.000000
2255.922347	2655.000000
2257.515109	2553.000000
2259.109234	2444.000000
2260.704720	2643.000000
2262.296561	2611.000000
2263.888096	2464.000000
2265.480993	2414.000000
2267.068580	2452.000000
2268.660863	2531.000000
2270.247840	2574.000000
2271.837844	2569.000000
2273.422544	2566.000000
2275.011938	2515.000000
2276.596030	2588.000000
2278.181483	2556.000000
2279.764966	2513.000000
2281.351475	2372.000000
2282.934351	2522.000000
2284.516924	2441.000000
2286.099193	2501.000000
2287.677832	2537.000000
2289.259496	2458.000000
2290.837531	2454.000000
2292.418589	2387.000000
2293.996020	2347.000000
2295.571488	2307.000000
2297.149978	2370.000000
2298.724844	2423.000000
2300.299409	2459.000000
2301.873674	2348.000000
2303.447638	2411.000000
2305.021301	2397.000000
2306.594665	2449.000000
2308.164410	2374.000000
2309.733856	2361.000000
2311.306320	2514.000000
2312.873510	2354.000000
2314.443718	2347.000000
2316.010311	2448.000000
2317.578264	2283.000000
2319.144261	2382.000000
2320.709961	2270.000000
2322.275363	2331.000000
2323.838812	2224.000000
2325.403620	2399.000000
2326.964820	2331.000000
2328.529034	2290.000000
2330.087986	2282.000000
2331.649953	2345.000000
2333.209968	2348.000000
2334.769689	2318.000000
2336.327460	2337.000000
2337.884936	2350.000000
2339.442118	2437.000000
2340.997352	2329.000000
2342.552293	2186.000000
2344.106939	2264.000000
2345.661292	2268.000000
2347.215352	2238.000000
2348.769117	2363.000000
2350.320939	2418.000000
2351.870817	2224.000000
2353.423703	2337.000000
2354.971347	2225.000000
2356.521998	2328.000000
2358.069058	2357.000000
2359.617476	2401.000000
2361.165603	2265.000000
2362.710141	2268.000000
2364.256037	2266.000000
2365.799995	2306.000000
2367.345310	2227.000000
2368.887040	2198.000000
2370.430127	2345.000000
2371.971278	2198.000000
2373.512140	2286.000000
2375.052713	2240.000000
2376.592997	2191.000000
2378.132992	2325.000000
2379.669409	2262.000000
2381.208827	2246.000000
2382.744668	2238.000000
2384.281865	2354.000000
2385.815487	2339.000000
2387.352109	2278.000000
2388.886801	2312.000000
2390.419563	2236.000000
2391.952038	2309.000000
2393.482585	2314.000000
2395.016130	2242.000000
2396.544464	2171.000000
2398.074155	2284.000000
2399.603559	2189.000000
2401.132679	2300.000000
2402.661514	2148.000000
2404.185143	2260.000000
2405.713408	2217.000000
2407.236471	2209.000000
2408.764167	2111.000000
2410.285024	2206.000000
2411.810514	2199.000000
2413.332443	2245.000000
2414.855728	2193.000000
2416.377091	2240.000000
2417.896535	2178.000000
2419.417335	2222.000000
2420.936215	2132.000000
2422.454813	2165.000000
2423.971494	2173.000000
2425.489529	2120.000000
2427.007283	2048.000000
2428.521486	2089.000000
2430.035408	2108.000000
2431.549050	2127.000000
2433.064047	2119.000000
2434.575495	2160.000000
2436.088298	2040.000000
2437.599187	2210.000000
2439.109798	2105.000000
2440.618497	2080.000000
2442.130182	2127.000000
2443.638324	2004.000000
2445.146188	2038.000000
2446.653774	2001.000000
2448.157819	2075.000000
2449.664849	2096.000000
2451.169972	2009.000000
2452.674816	2036.000000
2454.177754	2066.000000
2455.680416	2138.000000
2457.182801	2031.000000
2458.683281	2243.000000
2460.185114	2001.000000
2461.685042	1963.000000
2463.184695	1966.000000
2464.684073	2044.000000
2466.181548	2006.000000
2467.677121	1927.000000
2469.175674	2051.000000
2470.670699	1966.000000
2472.167076	1941.000000
2473.659927	1961.000000
2475.154131	2053.000000
2476.648061	1914.000000
2478.138467	1906.000000
2479.631851	2023.000000
2481.123337	1879.000000
2482.612926	1867.000000
2484.102243	1882.000000
2485.589664	2004.000000
2487.080061	2042.000000
2488.566940	1900.000000
2490.055170	1931.000000
2491.539884	2048.000000
2493.024327	1991.000000
2494.510121	1977.000000
2495.994024	1993.000000
2497.479277	1962.000000
2498.959397	2053.000000
2500.442490	2040.000000
2501.923692	1983.000000
2503.404625	2065.000000
2504.883669	2070.000000
2506.362444	2019.000000
2507.840951	2031.000000
2509.319190	2040.000000
2510.797160	2027.000000
2512.271625	2177.000000
2513.749060	2053.000000
2515.222991	2080.000000
2516.698272	2053.000000
2518.173286	1968.000000
2519.644800	2021.000000
2521.117663	1955.000000
2522.588644	2015.000000
2524.060975	1967.000000
2525.528192	1971.000000
2526.998376	2067.000000
2528.466679	1985.000000
2529.934717	1970.000000
2531.402490	2004.000000
2532.869998	1958.000000
2534.337241	1997.000000
2535.800992	1965.000000
2537.266093	1986.000000
2538.729317	1891.000000
2540.193891	2044.000000
2541.654975	1949.000000
2543.117409	1992.000000
2544.579580	1893.000000
2546.038265	1953.000000
2547.501522	2004.000000
2548.959682	1952.000000
2550.419191	2006.000000
2551.873606	1933.000000
2553.332592	1835.000000
2554.789706	1995.000000
2556.244949	2071.000000
2557.699931	2052.000000
2559.153043	2073.000000
2560.607504	2066.000000
2562.060095	2066.000000
2563.512427	1981.000000
2564.962892	1856.000000
2566.416312	2075.000000
2567.864650	1920.000000
2569.315944	1950.000000
2570.765371	1985.000000
2572.211326	1925.000000
2573.660236	1928.000000
2575.105676	1959.000000
2576.552463	1936.000000
2577.997388	1908.000000
2579.442054	1935.000000
2580.888068	2021.000000
2582.330616	2012.000000
2583.774511	1853.000000
2585.214941	1924.000000
2586.656718	2061.000000
2588.096636	2083.000000
2589.537901	2065.000000
2590.975704	2003.000000
2592.416457	2063.000000
2593.852148	2071.000000
2595.290788	2010.000000
2596.727570	2103.000000
2598.162497	1957.000000
2599.600371	1894.000000
2601.033188	1930.000000
2602.467352	2063.000000
2603.899662	2081.000000
2605.333318	2009.000000
2606.765121	2026.000000
2608.196670	2126.000000
2609.627967	2014.000000
2611.057411	1989.000000
2612.486603	2017.000000
2613.913945	2095.000000
2615.342632	2124.000000
2616.771068	2074.000000
2618.196056	2029.000000
2619.622391	2033.000000
2621.046877	2013.000000
2622.472709	2007.000000
2623.895097	2122.000000
2625.318831	2105.000000
2626.740718	2017.000000
2628.162356	2127.000000
2629.582148	2146.000000
2631.003286	2089.000000
2632.424174	1979.000000
2633.841624	2063.000000
2635.262013	2163.000000
2636.678965	1984.000000
2638.095668	2087.000000
2639.512123	2028.000000
2640.928330	2115.000000
2642.344289	1978.000000
2643.758407	2007.000000
2645.172277	2104.000000
2646.584309	1929.000000
2647.997684	2164.000000
2649.407630	2148.000000
2650.820512	2074.000000
2652.229965	2175.000000
2653.639172	2173.000000
2655.046543	2197.000000
2656.456848	2193.000000
2657.865318	2230.000000
2659.271952	2254.000000
2660.678341	2275.000000
2662.082896	2109.000000
2663.488795	2146.000000
2664.892861	2252.000000
2666.296682	2258.000000
2667.700259	2320.000000
2669.102005	2250.000000
2670.505094	2288.000000
2671.904765	2227.000000
2673.305780	2170.000000
2674.703379	2279.000000
2676.103908	2264.000000
2677.501021	2211.000000
2678.899479	2088.000000
2680.296108	2104.000000
2681.692495	2104.000000
2683.088640	2007.000000
2684.482960	1990.000000
2685.878621	1995.000000
2687.270874	2107.000000
2688.664469	2003.000000
2690.056240	2092.000000
2691.449354	1918.000000
2692.840644	2014.000000
2694.230111	1974.000000
2695.619338	2124.000000
2697.008326	2009.000000
2698.398655	2057.000000
2699.784001	2118.000000
2701.172270	2049.000000
2702.558719	2095.000000
2703.944929	2021.000000
2705.330900	2075.000000
2706.713473	2224.000000
2708.097388	2225.000000
2709.481065	2296.000000
2710.864503	2226.000000
2712.244547	2328.000000
2713.625931	2387.000000
2715.005501	2373.000000
2716.386411	2519.000000
2717.765507	2635.000000
2719.142789	2693.000000
2720.521412	2752.000000
2721.898222	2975.000000
2723.274795	3042.000000
2724.651133	3192.000000
2726.025660	3321.000000
2727.401527	3335.000000
2728.774007	3586.000000
2730.149403	3764.000000
2731.519839	3527.000000
2732.891616	3742.000000
2734.263158	3662.000000
2735.632892	3514.000000
2737.003967	3432.000000
2738.373233	3380.000000
2739.742266	3160.000000
2741.109493	3008.000000
2742.476487	2834.000000
2743.843247	2895.000000
2745.209776	2862.000000
2746.574499	2695.000000
2747.938990	2657.000000
2749.303250	2550.000000
2750.667277	2696.000000
2752.031073	2662.000000
2753.391495	2572.000000
2754.754827	2660.000000
2756.113217	2625.000000
2757.474517	2669.000000
2758.832447	2855.000000
2760.193285	2837.000000
2761.552324	2727.000000
2762.907994	2784.000000
2764.266572	2823.000000
2765.621783	2729.000000
2766.976765	2683.000000
2768.329951	2690.000000
2769.686043	2627.000000
2771.038770	2584.000000
2772.391270	2551.000000
2773.743541	2443.000000
2775.097151	2435.000000
2776.447399	2349.000000
2777.795853	2297.000000
2779.147213	2276.000000
2780.495213	2440.000000
2781.844551	2243.000000
2783.192098	2317.000000
2784.539417	2118.000000
2785.886510	2184.000000
2787.231812	2225.000000
2788.576887	2210.000000
2789.921737	2252.000000
2791.266361	2175.000000
2792.607633	2333.000000
2793.950243	2343.000000
2795.292627	2250.000000
2796.634786	2342.000000
2797.973597	2387.000000
2799.315306	2415.000000
2800.653668	2301.000000
2801.993366	2372.000000
2803.331280	2350.000000
2804.667409	2378.000000
2806.003314	2364.000000
2807.340557	2317.000000
2808.676016	2343.000000
2810.011252	2342.000000
2811.344705	2398.000000
2812.679495	2554.000000
2814.010945	2552.000000
2815.345290	2528.000000
2816.674737	2562.000000
2818.005521	2525.000000
2819.336083	2542.000000
2820.664866	2653.000000
2821.994985	2623.000000
2823.323326	2712.000000
2824.651446	2711.000000
2825.977788	2936.000000
2827.305467	2778.000000
2828.629812	2730.000000
2829.955494	2679.000000
2831.279400	2676.000000
2832.603087	2829.000000
2833.928109	2868.000000
2835.249801	2864.000000
2836.571275	2902.000000
2837.892530	2861.000000
2839.213566	2909.000000
2840.532829	3035.000000
2841.853428	2970.000000
2843.172256	3080.000000
2844.490865	3195.000000
2845.807703	3366.000000
2847.124324	3382.000000
2848.440728	3538.000000
2849.755362	3678.000000
2851.071332	3772.000000
2852.383981	3761.000000
2853.697965	4100.000000
2855.011733	4244.000000
2856.325285	4340.000000
2857.637069	4510.000000
2858.947087	4843.000000
2860.258440	5003.000000
2861.566478	5219.000000
2862.875850	5560.000000
2864.185008	5892.000000
2865.493950	6104.000000
2866.801128	6633.000000
2868.106544	7122.000000
2869.413294	7777.000000
2870.718281	8100.000000
2872.023055	8729.000000
2873.326067	9649.000000
2874.631960	10048.000000
2875.932999	10953.000000
2877.235372	11665.000000
2878.535985	12537.000000
2879.837932	13244.000000
2881.139666	13964.000000
2882.438095	14686.000000
2883.737858	15241.000000
2885.035864	15679.000000
2886.333658	15789.000000
2887.629696	16071.000000
2888.927067	16124.000000
2890.222682	15697.000000
2891.518086	15592.000000
2892.813279	15527.000000
2894.105175	15136.000000
2895.399947	14961.000000
2896.691422	14649.000000
2897.984230	14385.000000
2899.276828	14230.000000
2900.566132	14159.000000
2901.856768	14341.000000
2903.145653	14590.000000
2904.435870	14457.000000
2905.722796	14744.000000
2907.011054	15304.000000
2908.297563	15543.000000
2909.583864	15990.000000
2910.869956	16231.000000
2912.154300	16730.000000
2913.441515	17443.000000
2914.723904	17740.000000
2916.007625	17632.000000
2917.289600	18184.000000
2918.571367	18000.000000
2919.851390	17788.000000
2921.134282	17763.000000
2922.415429	17402.000000
2923.693294	17189.000000
2924.974028	17123.000000
2926.251481	16817.000000
2927.528728	16940.000000
2928.804233	16436.000000
2930.082606	16571.000000
2931.356165	17012.000000
2932.632591	17229.000000
2933.907276	17943.000000
2935.180220	18787.000000
2936.454496	19420.000000
2937.727032	20827.000000
2938.999363	21623.000000
2940.268422	22390.000000
2941.540346	23025.000000
2942.810532	22668.000000
2944.080514	22600.000000
2945.350293	21672.000000
2946.618336	20126.000000
2947.884642	18341.000000
2949.150747	16475.000000
2950.418181	15167.000000
2951.683881	13261.000000
2952.949378	12303.000000
2954.214673	11203.000000
2955.476703	10530.000000
2956.740063	9603.000000
2958.003222	9103.000000
2959.264649	8898.000000
2960.527405	8490.000000
2961.788429	8522.000000
2963.047723	8534.000000
2964.306817	8623.000000
2965.565710	8975.000000
2966.824403	9332.000000
2968.082896	9897.000000
2969.339660	10174.000000
2970.596224	10860.000000
2971.851061	11760.000000
2973.107226	12670.000000
2974.360137	13618.000000
2975.614377	14574.000000
2976.868418	15059.000000
2978.120733	15306.000000
2979.372849	15688.000000
2980.623241	16069.000000
2981.876488	16072.000000
2983.124958	15928.000000
2984.376283	15776.000000
2985.624358	15617.000000
2986.872237	14568.000000
2988.119918	14030.000000
2989.367402	13281.000000
2990.613165	12373.000000
2991.858732	11661.000000
2993.105626	11020.000000
2994.349276	10302.000000
2995.594254	10049.000000
2996.835988	9085.000000
2998.080574	8423.000000
2999.323441	7953.000000
3000.563067	7383.000000
3001.805543	6976.000000
3003.044779	6677.000000
3004.285343	6497.000000
3005.524191	6227.000000
3006.762843	5900.000000
3007.999781	5647.000000
3009.238045	5740.000000
3010.474594	5619.000000
3011.710950	5403.000000
3012.947112	5308.000000
3014.181560	5102.000000
3015.415816	5135.000000
3016.649878	4888.000000
3017.882228	4864.000000
3019.112866	4903.000000
3020.346350	4842.000000
3021.578122	4873.000000
3022.808184	4709.000000
3024.038054	4641.000000
3025.266214	4822.000000
3026.495700	4684.000000
3027.723477	4867.000000
3028.951064	4805.000000
3030.179976	4705.000000
3031.404146	4764.000000
3032.631159	4782.000000
3033.854948	4793.000000
3035.080064	4745.000000
3036.303473	4845.000000
3037.526692	4714.000000
3038.748206	4730.000000
3039.972561	4865.000000
3041.192181	4773.000000
3042.413127	4751.000000
3043.633884	4844.000000
3044.852937	4931.000000
3046.073316	5044.000000
3047.290477	4909.000000
3048.508965	4885.000000
3049.725750	4983.000000
3050.942348	5143.000000
3052.158757	5048.000000
3053.371954	5135.000000
3054.587988	5167.000000
3055.800810	5139.000000
3057.016469	5252.000000
3058.227405	5399.000000
3059.439666	5268.000000
3060.651741	5236.000000
3061.863628	5204.000000
3063.073819	5467.000000
3064.283823	5492.000000
3065.493641	5593.000000
3066.701763	5547.000000
3067.909700	5527.000000
3069.115941	5646.000000
3070.323507	5715.000000
3071.529378	5729.000000
3072.735065	5743.000000
3073.940566	5730.000000
3075.144374	5804.000000
3076.349506	5848.000000
3077.552946	5928.000000
3078.754693	6102.000000
3079.956256	5970.000000
3081.157636	6243.000000
3082.358832	6223.000000
3083.558338	6416.000000
3084.757661	6460.000000
3085.958307	6580.000000
3087.157263	6396.000000
3088.353025	6716.000000
3089.551616	6559.000000
3090.747013	6791.000000
3091.943733	6721.000000
3093.137261	6787.000000
3094.333617	6911.000000
3095.528287	7052.000000
3096.719766	7010.000000
3097.915576	7081.000000
3099.106693	7053.000000
3100.299132	7338.000000
3101.488384	7279.000000
3102.680461	7240.000000
3103.870855	7332.000000
3105.058063	7689.000000
3106.246594	7576.000000
3107.436446	7614.000000
3108.623115	7829.000000
3109.809604	8039.000000
3110.995913	8023.000000
3112.183544	8080.000000
3113.367993	8008.000000
3114.550763	8227.000000
3115.736355	8179.000000
3116.920268	8336.000000
3118.102502	8397.000000
3119.284557	8503.000000
3120.466434	8542.000000
3121.648133	8606.000000
3122.828155	8815.000000
3124.006500	8837.000000
3125.187665	8721.000000
3126.365656	8951.000000
3127.543469	9182.000000
3128.721105	9358.000000
3129.897066	9308.000000
3131.072850	9475.000000
3132.249956	9732.000000
3133.425387	9627.000000
3134.599145	9712.000000
3135.771230	9864.000000
3136.944637	10033.000000
3138.117867	9878.000000
3139.289426	10261.000000
3140.462305	10165.000000
3141.632017	10467.000000
3142.803050	10347.000000
3143.972413	10590.000000
3145.140105	10605.000000
3146.310614	10912.000000
3147.476463	10900.000000
3148.646621	10798.000000
3149.812123	11120.000000
3150.977450	11175.000000
3152.142605	11075.000000
3153.307585	11367.000000
3154.473885	11468.000000
3155.635533	11345.000000
3156.798500	11422.000000
3157.961295	11658.000000
3159.123917	11680.000000
3160.284874	11657.000000
3161.445658	11707.000000
3162.606270	11990.000000
3163.765218	11959.000000
3164.923995	11873.000000
3166.082600	12241.000000
3167.241033	12041.000000
3168.399294	12325.000000
3169.555893	12353.000000
3170.710831	12285.000000
3171.867088	12659.000000
3173.021684	12459.000000
3174.176110	12847.000000
3175.328876	12631.000000
3176.481472	12935.000000
3177.633897	13038.000000
3178.786153	13131.000000
3179.938238	13136.000000
3181.087178	13452.000000
3182.238924	13658.000000
3183.389012	13444.000000
3184.537444	13398.000000
3185.685706	13455.000000
3186.833800	13766.000000
3187.981725	13880.000000
3189.127994	14249.000000
3190.274096	14298.000000
3191.418542	14210.000000
3192.562821	14444.000000
3193.706932	14245.000000
3194.852360	14550.000000
3195.994650	14455.000000
3197.136773	14638.000000
3198.278728	14913.000000
3199.420516	14918.000000
3200.562137	14825.000000
3201.700623	14830.000000
3202.840426	14830.000000
3203.981547	14998.000000
3205.119533	14908.000000
3206.255870	15140.000000
3207.392041	15090.000000
3208.529529	15302.000000
3209.665369	15249.000000
3210.802526	15217.000000
3211.935070	15289.000000
3213.071896	15344.000000
3214.204110	15247.000000
3215.337641	15514.000000
3216.471008	15299.000000
3217.601247	15383.000000
3218.734284	15248.000000
3219.864195	15308.000000
3220.995422	15276.000000
3222.123525	15313.000000
3223.254424	15224.000000
3224.383679	15361.000000
3225.511291	15178.000000
3226.635780	15397.000000
3227.764545	15609.000000
3228.890188	15087.000000
3230.015669	15325.000000
3231.139508	15422.000000
3232.266141	15677.000000
3233.388177	15300.000000
3234.511529	15448.000000
3235.634719	15659.000000
3236.757747	15326.000000
3237.879135	15401.000000
3239.000361	15591.000000
3240.119950	15647.000000
3241.239377	15076.000000
3242.357166	15534.000000
3243.477747	15409.000000
3244.595215	15559.000000
3245.712522	15548.000000
3246.829669	15897.000000
3247.945180	15639.000000
3249.062005	15997.000000
3250.175721	15856.000000
3251.292226	15809.000000
3252.407097	16197.000000
3253.518859	16241.000000
3254.630461	16019.000000
3255.743379	15977.000000
3256.856137	16039.000000
3257.965789	15717.000000
3259.076756	15863.000000
3260.187564	15778.000000
3261.296740	15663.000000
3262.404286	15989.000000
3263.513145	15773.000000
3264.621847	15693.000000
3265.727446	15870.000000
3266.834359	15649.000000
3267.939643	15779.000000
3269.046241	15983.000000
3270.149739	15641.000000
3271.254552	15916.000000
3272.359207	15889.000000
3273.460763	15885.000000
3274.562163	15850.000000
3275.664878	15970.000000
3276.767435	16011.000000
3277.866896	15877.000000
3278.969141	15723.000000
3280.068290	15778.000000
3281.165815	15551.000000
3282.263184	15674.000000
3283.363335	15829.000000
3284.460394	15779.000000
3285.557297	15587.000000
3286.654045	15666.000000
3287.746235	15652.000000
3288.842673	15666.000000
3289.937489	15780.000000
3291.032151	15608.000000
3292.125191	15595.000000
3293.218077	15813.000000
3294.309342	15621.000000
3295.401919	15665.000000
3296.492877	15613.000000
3297.582215	15452.000000
3298.671400	15513.000000
3299.761898	15497.000000
3300.849311	15411.000000
3301.936571	15591.000000
3303.025144	15426.000000
3304.113565	15587.000000
3305.197438	15583.000000
3306.285553	15475.000000
3307.370587	15844.000000
3308.454004	15562.000000
3309.538734	15566.000000
3310.621849	15647.000000
3311.706275	15616.000000
3312.787623	15631.000000
3313.870283	15685.000000
3314.951329	15738.000000
3316.032224	15820.000000
3317.111505	15365.000000
3318.190636	15474.000000
3319.271079	15804.000000
3320.348447	15467.000000
3321.427127	15535.000000
3322.504195	15811.000000
3323.581114	15966.000000
3324.656421	15564.000000
3325.731579	15916.000000
3326.808048	15900.000000
3327.881447	15602.000000
3328.954697	15919.000000
3330.029257	15893.000000
3331.102209	15816.000000
3332.173552	15953.000000
3333.246206	15674.000000
3334.315794	15551.000000
3335.386692	15813.000000
3336.455983	15877.000000
3337.526585	15531.000000
3338.595580	15888.000000
3339.662969	15808.000000
3340.728753	15536.000000
3341.798763	15771.000000
3342.865710	15716.000000
3343.929595	15987.000000
3344.996248	15609.000000
3346.061296	15734.000000
3347.124741	15591.000000
3348.188040	15804.000000
3349.251192	15877.000000
3350.314198	16073.000000
3351.377058	15844.000000
3352.438316	15648.000000
3353.496517	15901.000000
3354.558938	16113.000000
3355.618304	15850.000000
3356.677524	16124.000000
3357.738054	15795.000000
3358.794074	15949.000000
3359.852858	16043.000000
3360.907135	16447.000000
3361.964176	16175.000000
3363.019618	16278.000000
3364.076370	16293.000000
3365.131523	16198.000000
3366.185079	16304.000000
3367.237039	16316.000000
3368.291760	16258.000000
3369.343432	16451.000000
3370.394961	16146.000000
3371.447798	16574.000000
3372.497588	16435.000000
3373.548687	16433.000000
3374.596740	16686.000000
3375.647552	16298.000000
3376.695320	16486.000000
3377.742945	16216.000000
3378.790427	16456.000000
3379.836317	16830.000000
3380.883515	16282.000000
3381.927671	16602.000000
3382.974585	16587.000000
3384.019907	16553.000000
3385.062188	16488.000000
3386.104329	16442.000000
3387.147777	16624.000000
3388.191084	16462.000000
3389.232802	16416.000000
3390.274378	16454.000000
3391.315814	16344.000000
3392.355660	16594.000000
3393.393918	16532.000000
3394.433484	16577.000000
3395.472910	16742.000000
3396.510748	16718.000000
3397.546999	16504.000000
3398.583111	16642.000000
3399.620530	16677.000000
3400.654916	16551.000000
3401.690609	16576.000000
3402.726163	16385.000000
3403.758686	16650.000000
3404.793962	16591.000000
3405.826207	16509.000000
3406.858314	16614.000000
3407.888837	16546.000000
3408.920667	16678.000000
3409.952359	16705.000000
3410.981023	16587.000000
3412.009550	16684.000000
3413.039383	16681.000000
3414.069079	16190.000000
3415.095749	16863.000000
3416.123726	16516.000000
3417.148678	16720.000000
3418.176380	16488.000000
3419.201059	16835.000000
3420.227044	16773.000000
3421.251449	16379.000000
3422.275718	16619.000000
3423.298408	16394.000000
3424.320962	16564.000000
3425.344822	16283.000000
3426.365662	16463.000000
3427.386366	16368.000000
3428.408377	16190.000000
3429.427369	16149.000000
3430.446226	16257.000000
3431.466388	16024.000000
3432.483534	16287.000000
