-116.773079	680.000000
-114.103479	525.000000
-111.436814	877.000000
-108.770901	776.000000
-106.107920	743.000000
-103.443510	675.000000
-100.782030	756.000000
-98.119121	706.000000
-95.461318	816.000000
-92.802086	664.000000
-90.143602	709.000000
-87.488042	765.000000
-84.831054	866.000000
-82.179164	877.000000
-79.525843	977.000000
-76.875443	841.000000
-74.223613	820.000000
-71.576874	742.000000
-68.928706	834.000000
-66.281280	854.000000
-63.636768	934.000000
-60.990828	827.000000
-58.349969	926.000000
-55.707681	866.000000
-53.068301	916.000000
-50.427493	968.000000
-47.787425	1031.000000
-45.152429	1104.000000
-42.516005	1179.000000
-39.882483	1247.000000
-37.247533	1266.000000
-34.617648	1348.000000
-31.984171	1396.000000
-29.355756	1593.000000
-26.728075	1799.000000
-24.098965	1928.000000
-21.474912	2275.000000
-18.847270	2527.000000
-16.224681	3164.000000
-13.602824	4851.000000
-10.981697	7378.000000
-8.361300	16506.000000
-5.743792	53981.000000
-3.124855	63508.000000
-0.508803	63512.000000
2.106520	63486.000000
4.721116	63483.000000
7.332829	35744.000000
9.945971	5500.000000
12.554079	3228.000000
15.165769	2752.000000
17.772428	2246.000000
20.380515	2267.000000
22.987878	1895.000000
25.590216	1942.000000
28.196132	1819.000000
30.797026	1642.000000
33.399348	1596.000000
35.996653	1739.000000
38.597533	1552.000000
41.193398	1689.000000
43.790692	1524.000000
46.387266	1544.000000
48.978831	1680.000000
51.571824	1737.000000
54.161956	1663.000000
56.753516	1654.000000
59.342216	1631.000000
61.932343	1834.000000
64.517471	1729.000000
67.104027	2007.000000
69.689869	1876.000000
72.272857	1987.000000
74.857271	1860.000000
77.434557	2130.000000
80.015409	2171.000000
82.593412	2111.000000
85.170705	2276.000000
87.749424	2484.000000
90.323161	2346.000000
92.898326	2707.000000
95.470647	2760.000000
98.042260	3000.000000
100.611033	3355.000000
103.181233	3905.000000
105.748595	4305.000000
108.317382	5148.000000
110.883333	6255.000000
113.446449	7983.000000
116.013121	10302.000000
118.570572	14336.000000
121.133708	20527.000000
123.691884	29807.000000
126.253615	42966.000000
128.810389	57965.000000
131.368590	63627.000000
133.921837	63578.000000
136.474387	63457.000000
139.030487	63193.000000
141.581639	63556.000000
144.132094	63807.000000
146.681851	63666.000000
149.228789	63808.000000
151.775032	63785.000000
154.322700	63757.000000
156.869672	63734.000000
159.411709	63098.000000
161.953052	63091.000000
164.493702	63622.000000
167.035778	63411.000000
169.575042	63432.000000
172.111498	63518.000000
174.647262	63747.000000
177.184452	63340.000000
179.720951	63805.000000
182.254644	63903.000000
184.785533	63534.000000
187.315735	63736.000000
189.847361	63637.000000
192.376186	63727.000000
194.902212	63807.000000
197.427552	63242.000000
199.954318	63663.000000
202.478286	63817.000000
205.001570	63835.000000
207.524169	63808.000000
210.043975	63908.000000
212.563098	63218.000000
215.081538	63878.000000
217.601402	63684.000000
220.114265	63651.000000
222.630659	63825.000000
225.146371	63498.000000
227.657193	63152.000000
230.169440	63673.000000
232.678905	63536.000000
235.187691	63744.000000
237.695798	63698.000000
240.205330	63769.000000
242.709981	63271.000000
245.213956	63887.000000
247.719355	63853.000000
250.219879	63684.000000
252.723927	63601.000000
255.221003	63753.000000
257.721603	63932.000000
260.219431	63290.000000
262.716586	63521.000000
265.213068	63360.000000
267.704687	63699.000000
270.199826	63861.000000
272.692198	63896.000000
275.183901	63866.000000
277.672839	63839.000000
280.163202	63765.000000
282.650802	63381.000000
285.135643	63813.000000
287.623999	63862.000000
290.105415	63739.000000
292.590345	63613.000000
295.070430	63546.000000
297.554027	63743.000000
300.032781	63878.000000
302.512959	63902.000000
304.990384	63842.000000
307.467146	63344.000000
309.943245	63909.000000
312.416595	63624.000000
314.889283	63850.000000
317.361310	63866.000000
319.832676	63911.000000
322.301297	63445.000000
324.769260	63825.000000
327.238644	63380.000000
329.703206	63652.000000
332.171272	63836.000000
334.634518	63886.000000
337.097106	63803.000000
339.559038	63555.000000
342.020313	63773.000000
344.478854	63375.000000
346.938817	63746.000000
349.396047	63423.000000
351.852623	63830.000000
354.308545	63986.000000
356.761737	62704.000000
359.216352	63876.000000
361.666165	63550.000000
364.119474	63912.000000
366.567985	63806.000000
369.015844	63777.000000
371.465126	63873.000000
373.909614	63528.000000
376.355524	63699.000000
378.800784	63696.000000
381.243326	63457.000000
383.685220	63224.000000
386.126467	63431.000000
388.564998	63969.000000
391.004951	63715.000000
393.442190	63960.000000
395.876717	63867.000000
398.314732	63945.000000
400.747970	63723.000000
403.182629	63619.000000
405.612516	63715.000000
408.045888	63775.000000
410.474490	63733.000000
412.902450	63781.000000
415.331832	63860.000000
417.756448	63863.000000
420.182486	63230.000000
422.607883	64004.000000
425.032640	63609.000000
427.452639	63889.000000
429.874059	63648.000000
432.292782	64004.000000
434.712926	63745.000000
437.130375	63786.000000
439.549244	63939.000000
441.965420	63841.000000
444.376848	63631.000000
446.791754	63846.000000
449.203969	63900.000000
451.615550	63771.000000
454.026497	63967.000000
456.434758	63909.000000
458.842386	63880.000000
461.249382	63557.000000
463.655747	63912.000000
466.059429	63983.000000
468.462481	63677.000000
470.864903	63867.000000
473.266695	63685.000000
475.665810	63895.000000
478.066344	63612.000000
480.466249	64028.000000
482.861431	63360.000000
485.260080	63944.000000
487.654009	63702.000000
490.047312	63909.000000
492.439989	63167.000000
494.832041	63405.000000
497.225511	63729.000000
499.614270	63860.000000
502.000361	63575.000000
504.387873	63533.000000
506.774762	63733.000000
509.158987	63742.000000
511.544630	63945.000000
513.927612	63931.000000
516.307933	63883.000000
518.689673	63408.000000
521.068754	63326.000000
523.449254	63892.000000
525.827096	63948.000000
528.202283	63875.000000
530.576852	63653.000000
532.952839	63768.000000
535.326174	63529.000000
537.700926	63863.000000
540.070993	63674.000000
542.440444	63978.000000
544.811313	63775.000000
547.177502	64000.000000
549.545109	63830.000000
551.910070	63930.000000
554.274418	63800.000000
556.638153	63953.000000
559.003306	63805.000000
561.363787	63960.000000
563.725686	63690.000000
566.084944	63995.000000
568.441565	63717.000000
570.801630	63976.000000
573.155004	63555.000000
575.511823	63902.000000
577.866007	63900.000000
580.219583	64034.000000
582.572550	64001.000000
584.922885	63835.000000
587.274638	63860.000000
589.619714	63615.000000
591.970254	63858.000000
594.314120	63878.000000
596.663448	63854.000000
599.008127	63965.000000
601.350182	63556.000000
603.693654	63964.000000
606.034503	63888.000000
608.374750	63972.000000
610.712376	63755.000000
613.053437	63723.000000
615.389860	64037.000000
617.727700	63951.000000
620.062923	63569.000000
622.395530	64021.000000
624.729553	63678.000000
627.060962	63986.000000
629.391774	63796.000000
631.721987	63920.000000
634.051602	63995.000000
636.376595	63752.000000
638.707028	63986.000000
641.032841	63391.000000
643.356046	63975.000000
645.680668	64017.000000
648.002684	63975.000000
650.324106	63476.000000
652.642926	63602.000000
654.963161	63645.000000
657.282803	63959.000000
659.599844	64055.000000
661.916293	62871.000000
664.230144	63852.000000
666.545411	63741.000000
668.858081	63657.000000
671.172166	63988.000000
673.481651	63857.000000
675.792552	63959.000000
678.100860	63886.000000
680.408580	63515.000000
682.717714	63657.000000
685.022256	63785.000000
687.326212	64035.000000
689.629582	63610.000000
691.934366	63989.000000
694.234564	63943.000000
696.536176	63768.000000
698.837204	63782.000000
701.133649	63970.000000
703.431510	64013.000000
705.728787	63727.000000
708.025481	63911.000000
710.317599	63586.000000
712.613128	63760.000000
714.904083	64014.000000
717.196453	63900.000000
719.486248	63919.000000
721.775462	63964.000000
724.064097	63869.000000
726.350159	63904.000000
728.637636	63805.000000
730.922541	63784.000000
733.206869	63995.000000
735.488628	63779.000000
737.771801	63885.000000
740.054397	64021.000000
742.332437	64037.000000
744.611892	63762.000000
746.890771	64049.000000
749.169074	64001.000000
751.442828	63628.000000
753.717995	63817.000000
755.992589	64038.000000
758.264624	63901.000000
760.538072	63986.000000
762.808962	63933.000000
765.077296	63968.000000
767.347043	63618.000000
769.614236	64000.000000
771.880858	63658.000000
774.146910	63742.000000
776.410411	63797.000000
778.675325	63990.000000
780.939669	63739.000000
783.199484	63736.000000
785.460711	63860.000000
787.721371	63402.000000
789.979485	63748.000000
792.235054	63736.000000
794.494014	63845.000000
796.746475	63893.000000
799.004302	63738.000000
801.257611	64097.000000
803.508380	63570.000000
805.760561	63870.000000
808.010203	63405.000000
810.261258	63978.000000
812.507801	63907.000000
814.755756	64004.000000
817.001177	63704.000000
819.248009	63660.000000
821.494280	63774.000000
823.736046	63999.000000
825.981196	63937.000000
828.219873	63995.000000
830.461932	63633.000000
832.699493	63948.000000
834.938466	63610.000000
837.174912	63888.000000
839.412769	61978.000000
841.648101	62022.000000
843.880910	63843.000000
846.115130	63064.000000
848.346827	63396.000000
850.577970	62942.000000
852.808558	61698.000000
855.038592	63009.000000
857.268072	62081.000000
859.493070	61596.000000
861.721443	60672.000000
863.945337	62169.000000
866.170641	60801.000000
868.391470	61608.000000
870.615671	60413.000000
872.835399	59630.000000
875.056537	60802.000000
877.277126	60098.000000
879.495204	59627.000000
881.714692	59642.000000
883.929714	58822.000000
886.144189	59457.000000
888.358115	59418.000000
890.571495	58759.000000
892.784327	58556.000000
894.996613	58297.000000
897.206396	58606.000000
899.415634	57900.000000
901.624327	57150.000000
903.830521	57056.000000
906.038124	57631.000000
908.243229	56347.000000
910.447791	55945.000000
912.649858	56167.000000
914.853334	56425.000000
917.054316	56311.000000
919.254756	55040.000000
921.456605	54710.000000
923.652063	55806.000000
925.850880	55322.000000
928.045258	55253.000000
930.242994	54503.000000
932.436294	54296.000000
934.631003	53741.000000
936.823226	54492.000000
939.014910	53808.000000
941.206057	54135.000000
943.394721	54500.000000
945.582849	52957.000000
947.768496	54049.000000
949.957495	52399.000000
952.142071	54287.000000
954.326112	53511.000000
956.513503	52468.000000
958.692590	52081.000000
960.875028	52733.000000
963.056932	53292.000000
965.236361	53941.000000
967.413318	52789.000000
969.591683	52250.000000
971.771455	51755.000000
973.944878	53207.000000
976.121647	51915.000000
978.294009	53018.000000
980.467779	52636.000000
982.637145	52023.000000
984.809855	52167.000000
986.980100	51553.000000
989.149816	51488.000000
991.319003	51327.000000
993.483793	51333.000000
995.651924	51675.000000
997.815661	50983.000000
999.980804	51533.000000
1002.143488	51138.000000
1004.305647	50998.000000
1006.465349	51240.000000
1008.624526	49945.000000
1010.785110	50722.000000
1012.943240	50901.000000
1015.100845	48702.000000
1017.257927	49195.000000
1019.414485	49712.000000
1021.566664	50375.000000
1023.720250	50249.000000
1025.873314	50220.000000
1028.023929	49679.000000
1030.175951	48969.000000
1032.323599	49889.000000
1034.474579	49722.000000
1036.621188	49667.000000
1038.767278	49655.000000
1040.912850	49078.000000
1043.059827	48428.000000
1045.200515	48888.000000
1047.344533	48077.000000
1049.486110	48549.000000
1051.627171	49280.000000
1053.769636	48265.000000
1055.905822	48944.000000
1058.045334	49252.000000
1060.180490	49422.000000
1062.318971	49083.000000
1064.453098	49062.000000
1066.586712	48819.000000
1068.721731	48008.000000
1070.852400	48210.000000
1072.984474	48915.000000
1075.114119	48412.000000
1077.243252	48675.000000
1079.371873	48249.000000
1081.499983	48268.000000
1083.625667	47490.000000
1085.750841	47233.000000
1087.877419	47768.000000
1089.999659	47778.000000
1092.123304	47741.000000
1094.242614	47434.000000
1096.367154	47145.000000
1098.485448	47481.000000
1100.605147	47396.000000
1102.722427	47148.000000
1104.839201	47534.000000
1106.955468	47062.000000
1109.069319	46735.000000
1111.184575	46341.000000
1113.295507	46637.000000
1115.409752	46778.000000
1117.519676	46344.000000
1119.631004	46801.000000
1121.741827	46478.000000
1123.848334	46222.000000
1125.958151	47102.000000
1128.063653	47337.000000
1130.170558	46951.000000
1132.271248	46539.000000
1134.377150	45610.000000
1136.478743	45329.000000
1138.581739	45814.000000
1140.684234	46279.000000
1142.780522	46215.000000
1144.882018	46177.000000
1146.979210	46792.000000
1149.075905	46080.000000
1151.172101	45577.000000
1153.267800	46571.000000
1155.363000	45931.000000
1157.455804	46022.000000
1159.550011	45851.000000
1161.638026	45672.000000
1163.731239	46261.000000
1165.818264	45813.000000
1167.908588	45120.000000
1169.994625	46297.000000
1172.083959	46371.000000
1174.167112	46052.000000
1176.251667	46345.000000
1178.337624	45854.000000
1180.419299	46257.000000
1182.502376	46035.000000
1184.583067	46061.000000
1186.663266	46018.000000
1188.742974	45704.000000
1190.822191	46304.000000
1192.899026	46093.000000
1194.973480	46042.000000
1197.051225	45954.000000
1199.124701	45660.000000
1201.199577	46295.000000
1203.270186	45418.000000
1205.342196	45848.000000
1207.411831	44862.000000
1209.482866	45543.000000
1211.553413	46249.000000
1213.619699	45898.000000
1215.687386	44671.000000
1217.752701	45094.000000
1219.819416	46111.000000
1221.881875	45370.000000
1223.947619	44796.000000
1226.009109	45509.000000
1228.072000	45107.000000
1230.132523	45479.000000
1232.192562	43798.000000
1234.252119	45185.000000
1236.309310	45176.000000
1238.366020	45643.000000
1240.420366	44881.000000
1242.477994	44714.000000
1244.533259	45300.000000
1246.584283	44941.000000
1248.636707	44917.000000
1250.688651	44724.000000
1252.738237	45092.000000
1254.787344	43901.000000
1256.835973	45440.000000
1258.884123	44890.000000
1260.931794	44721.000000
1262.975235	44201.000000
1265.021952	44412.000000
1267.066315	44817.000000
1269.110202	44247.000000
1271.151737	44716.000000
1273.190923	44452.000000
1275.233382	44803.000000
1277.271618	45586.000000
1279.311253	44792.000000
1281.350413	44406.000000
1283.385354	44577.000000
1285.421694	44317.000000
1287.455690	43344.000000
1289.491083	44154.000000
1291.522264	44218.000000
1293.554842	43454.000000
1295.586949	43440.000000
1297.616715	43376.000000
1299.647879	44700.000000
1301.674835	43977.000000
1303.703189	43944.000000
1305.727339	44211.000000
1307.754753	44001.000000
1309.777965	44135.000000
1311.802575	43940.000000
1313.824851	44263.000000
1315.848524	43350.000000
1317.869864	44104.000000
1319.890736	44246.000000
1321.911141	43645.000000
1323.927353	44070.000000
1325.944962	43328.000000
1327.960243	42859.000000
1329.978783	43386.000000
1331.993134	43282.000000
1334.005159	42934.000000
1336.020441	42753.000000
1338.031538	42555.000000
1340.044032	42706.000000
1342.052343	42503.000000
1344.063909	41948.000000
1346.069437	42752.000000
1348.078220	41786.000000
1350.082825	42140.000000
1352.090684	41928.000000
1354.098081	42248.000000
1356.099447	41905.000000
1358.102209	41897.000000
1360.104512	41819.000000
1362.106355	41711.000000
1364.107738	41887.000000
1366.106808	41902.000000
1368.105419	41922.000000
1370.103572	41457.000000
1372.101266	41200.000000
1374.094798	41223.000000
1376.089726	40662.000000
1378.084196	41192.000000
1380.078210	41339.000000
1382.069917	41236.000000
1384.061169	41100.000000
1386.050115	41287.000000
1388.040456	40939.000000
1390.030342	40051.000000
1392.017924	40893.000000
1394.005053	40631.000000
1395.989880	40790.000000
1397.976102	41141.000000
1399.960024	40169.000000
1401.943493	40720.000000
1403.926509	40695.000000
1405.907228	40639.000000
1407.889341	40572.000000
1409.869158	39876.000000
1411.848523	40239.000000
1413.823750	40411.000000
1415.802215	39964.000000
1417.778387	40178.000000
1419.754110	40275.000000
1421.729383	40255.000000
1423.702365	40314.000000
1425.674899	40279.000000
1427.646985	40176.000000
1429.618624	40341.000000
1431.586134	40367.000000
1433.558718	40838.000000
1435.523497	40350.000000
1437.493347	40611.000000
1439.459074	40363.000000
1441.426193	40907.000000
1443.391029	40648.000000
1445.351745	40883.000000
1447.317529	40352.000000
1449.277358	40055.000000
1451.238581	40426.000000
1453.201196	40142.000000
1455.159696	40334.000000
1457.117753	40890.000000
1459.075369	41050.000000
1461.032542	40824.000000
1462.987440	41132.000000
1464.943731	40718.000000
1466.897747	40780.000000
1468.851322	40619.000000
1470.802625	41135.000000
1472.755321	41108.000000
1474.705745	40198.000000
1476.655729	41391.000000
1478.605275	40895.000000
1480.552552	41117.000000
1482.497561	41213.000000
1484.443963	41172.000000
1486.389927	42031.000000
1488.335454	41573.000000
1490.278715	41599.000000
1492.221541	41578.000000
1494.162103	41863.000000
1496.104056	41603.000000
1498.043747	41659.000000
1499.983004	41677.000000
1501.921825	41814.000000
1503.858387	41937.000000
1505.796340	41984.000000
1507.732034	42277.000000
1509.667295	42984.000000
1511.600300	42432.000000
1513.532872	42909.000000
1515.465012	42995.000000
1517.396720	42909.000000
1519.326174	43551.000000
1521.257019	43631.000000
1523.187432	43728.000000
1525.113773	43366.000000
1527.041505	43622.000000
1528.966986	44294.000000
1530.892038	45071.000000
1532.816661	45075.000000
1534.740855	44308.000000
1536.662801	45244.000000
1538.586138	45011.000000
1540.507228	44741.000000
1542.426075	46171.000000
1544.346310	46399.000000
1546.264303	46139.000000
1548.181869	46381.000000
1550.097193	47640.000000
1552.013907	47451.000000
1553.926566	48667.000000
1555.842429	46898.000000
1557.756052	49152.000000
1559.667438	48825.000000
1561.580212	48803.000000
1563.488937	48948.000000
1565.399051	49552.000000
1567.308742	50247.000000
1569.218010	51192.000000
1571.125044	51438.000000
1573.029845	51788.000000
1574.936035	52329.000000
1576.839993	52765.000000
1578.743530	52919.000000
1580.646647	53169.000000
1582.547534	53985.000000
1584.449810	54982.000000
1586.349858	55582.000000
1588.251293	56113.000000
1590.148695	55998.000000
1592.045678	56438.000000
1593.942243	56722.000000
1595.840196	58001.000000
1597.732314	59122.000000
1599.627625	59026.000000
1601.522519	59958.000000
1603.415191	58386.000000
1605.307446	60844.000000
1607.197482	60684.000000
1609.087102	61990.000000
1610.976307	61469.000000
1612.865097	62512.000000
1614.751669	62706.000000
1616.639629	63017.000000
1618.523572	63656.000000
1620.408902	63375.000000
1622.293819	63681.000000
1624.176522	64180.000000
1626.060612	64126.000000
1627.940691	64107.000000
1629.822156	64199.000000
1631.701411	64087.000000
1633.582052	63199.000000
1635.456889	64216.000000
1637.336707	64189.000000
1639.212521	64186.000000
1641.087924	63991.000000
1642.964713	63895.000000
1644.835706	63715.000000
1646.709880	64093.000000
1648.580056	63833.000000
1650.453412	64016.000000
1652.324565	63476.000000
1654.193516	63288.000000
1656.063852	63017.000000
1657.930196	62836.000000
1659.797925	62619.000000
1661.663455	61909.000000
1663.530371	62375.000000
1665.393298	61452.000000
1667.257610	60546.000000
1669.119726	60006.000000
1670.981437	59820.000000
1672.844534	59250.000000
1674.705435	59327.000000
1676.564144	57464.000000
1678.422449	56353.000000
1680.282139	56191.000000
1682.136061	55831.000000
1683.993157	54559.000000
1685.849850	54664.000000
1687.702566	52665.000000
1689.558454	52561.000000
1691.410368	51713.000000
1693.261881	51115.000000
1695.112993	49357.000000
1696.963705	48680.000000
1698.814016	47834.000000
1700.662142	47268.000000
1702.511653	45908.000000
1704.355415	44886.000000
1706.204126	44389.000000
1708.047091	43278.000000
1709.893223	42429.000000
1711.735392	41447.000000
1713.580727	41148.000000
1715.420321	39466.000000
1717.261299	38752.000000
1719.103660	38630.000000
1720.942065	37564.000000
1722.781853	37256.000000
1724.619466	36446.000000
1726.456683	36002.000000
1728.291727	35654.000000
1730.128154	34577.000000
1731.962409	33965.000000
1733.796269	33885.000000
1735.629735	32800.000000
1737.459256	32372.000000
1739.291935	31683.000000
1741.120670	31404.000000
1742.952562	30730.000000
1744.780512	30485.000000
1746.608071	30041.000000
1748.435237	29827.000000
1750.262012	29731.000000
1752.088395	29123.000000
1753.910842	28676.000000
1755.736444	28538.000000
1757.558111	28323.000000
1759.381160	28247.000000
1761.202047	27282.000000
1763.022546	27107.000000
1764.844426	26938.000000
1766.660606	26831.000000
1768.479938	26450.000000
1770.295343	26654.000000
1772.113898	25943.000000
1773.928528	25610.000000
1775.742771	25679.000000
1777.556628	25548.000000
1779.370098	25392.000000
1781.181415	25069.000000
1782.994112	24756.000000
1784.806424	24771.000000
1786.614818	24541.000000
1788.424592	24366.000000
1790.230452	24324.000000
1792.039457	24203.000000
1793.844549	23959.000000
1795.651022	24168.000000
1797.457111	23544.000000
1799.259289	23140.000000
1801.064612	23454.000000
1802.866026	22831.000000
1804.668820	23199.000000
1806.467708	22804.000000
1808.267977	23061.000000
1810.067864	22493.000000
1811.865609	22556.000000
1813.662974	22577.000000
1815.459959	22537.000000
1817.256563	22322.000000
1819.051028	22480.000000
1820.846872	22267.000000
1822.637061	22162.000000
1824.432147	22136.000000
1826.221581	21964.000000
1828.014151	21801.000000
1829.804586	21633.000000
1831.592887	21749.000000
1833.384323	21741.000000
1835.170113	21569.000000
1836.957283	21855.000000
1838.742321	21994.000000
1840.530493	21468.000000
1842.314779	21250.000000
1844.096935	21707.000000
1845.880471	21167.000000
1847.661878	21258.000000
1849.444664	21579.000000
1851.223569	21446.000000
1853.003854	21331.000000
1854.782012	21368.000000
1856.561549	21493.000000
1858.338961	21277.000000
1860.114249	21449.000000
1861.890915	20920.000000
1863.665459	21467.000000
1865.441381	20759.000000
1867.211682	20986.000000
1868.985111	20969.000000
1870.756420	21192.000000
1872.527358	20888.000000
1874.299674	21217.000000
1876.066376	21146.000000
1877.836204	21074.000000
1879.602168	21471.000000
1881.371255	21124.000000
1883.136481	21013.000000
1884.901339	21268.000000
1886.667574	21254.000000
1888.429950	21193.000000
1890.191959	21041.000000
1891.953600	21036.000000
1893.714875	20667.000000
1895.475782	20930.000000
1897.236323	20562.000000
1898.994754	20994.000000
1900.752819	20525.000000
1902.508777	20829.000000
1904.266111	20554.000000
1906.023080	21067.000000
1907.777942	20864.000000
1909.530700	21118.000000
1911.283093	20908.000000
1913.036863	21273.000000
1914.788529	21328.000000
1916.538093	21049.000000
1918.289032	21128.000000
1920.039609	21429.000000
1921.786346	21247.000000
1923.534460	21186.000000
1925.280474	21478.000000
1927.027863	21467.000000
1928.773155	21257.000000
1930.516349	21483.000000
1932.260918	21582.000000
1934.003392	21686.000000
1935.745505	21612.000000
1937.487258	21816.000000
1939.228652	21519.000000
1940.967951	21876.000000
1942.706892	22060.000000
1944.445474	21649.000000
1946.181965	22469.000000
1947.918098	22341.000000
1949.655605	22213.000000
1951.389290	22366.000000
1953.124350	22330.000000
1954.857321	22540.000000
1956.589936	22375.000000
1958.322195	22696.000000
1960.054097	22930.000000
1961.783913	23277.000000
1963.511644	22893.000000
1965.240750	22887.000000
1966.969501	22979.000000
1968.696168	23280.000000
1970.422481	23067.000000
1972.150167	23382.000000
1973.872317	23803.000000
1975.597568	23415.000000
1977.319012	23929.000000
1979.043557	23839.000000
1980.766021	23918.000000
1982.484683	23983.000000
1984.206443	24665.000000
1985.924401	23988.000000
1987.643732	24046.000000
1989.359264	24562.000000
1991.079616	24627.000000
1992.796170	24868.000000
1994.508927	24857.000000
1996.224780	24803.000000
1997.938561	24524.000000
1999.651992	25255.000000
2001.363352	25261.000000
2003.076084	25316.000000
2004.785026	25258.000000
2006.497060	25708.000000
2008.203586	25398.000000
2009.913203	25552.000000
2011.620754	25603.000000
2013.327956	25917.000000
2015.033093	25907.000000
2016.737884	26071.000000
2018.444046	25925.000000
2020.146426	26475.000000
2021.850177	26246.000000
2023.551866	26261.000000
2025.253210	26291.000000
2026.954208	26638.000000
2028.653145	26755.000000
2030.353454	26779.000000
2032.049988	26747.000000
2033.747893	27149.000000
2035.443739	27018.000000
2037.142671	27467.000000
2038.836117	27526.000000
2040.530934	27181.000000
2042.225409	27769.000000
2043.916115	27864.000000
2045.609905	27948.000000
2047.299928	27921.000000
2048.991322	27531.000000
2050.680663	27912.000000
2052.371374	27891.000000
2054.058322	28105.000000
2055.744931	28108.000000
2057.432909	28051.000000
2059.117128	27927.000000
2060.802718	28127.000000
2062.487968	28278.000000
2064.171170	27967.000000
2065.855741	28640.000000
2067.534850	28129.000000
2069.218744	28245.000000
2070.897177	27951.000000
2072.578688	28239.000000
2074.256447	28323.000000
2075.933870	28643.000000
2077.612662	28348.000000
2079.289412	28474.000000
2080.964120	28305.000000
2082.640197	28251.000000
2084.314234	28871.000000
2085.987935	28263.000000
2087.661301	28415.000000
2089.332628	28298.000000
2091.003622	28865.000000
2092.674280	28584.000000
2094.344605	28543.000000
2096.014596	28792.000000
2097.682551	29066.000000
2099.350173	28777.000000
2101.015760	28805.000000
2102.682716	28747.000000
2104.347639	28926.000000
2106.012230	29026.000000
2107.674789	28924.000000
2109.338716	29524.000000
2111.000612	29421.000000
2112.662178	29492.000000
2114.323412	29102.000000
2115.982618	29175.000000
2117.641493	29209.000000
2119.300039	28831.000000
2120.958255	29136.000000
2122.612747	29058.000000
2124.270304	29105.000000
2125.927532	29007.000000
2127.581038	28645.000000
2129.235912	29085.000000
2130.887067	29244.000000
2132.541285	29017.000000
2134.191786	28923.000000
2135.843653	28882.000000
2137.490112	28334.000000
2139.141326	28541.000000
2140.788826	28670.000000
2142.437693	28531.000000
2144.084541	28874.000000
2145.731064	28524.000000
2147.377261	28860.000000
2149.019750	28568.000000
2150.665297	28029.000000
2152.307137	28152.000000
2153.952034	28284.000000
2155.593226	28201.000000
2157.234094	27790.000000
2158.874638	28169.000000
2160.513170	27839.000000
2162.153068	27875.000000
2163.789266	27586.000000
2165.426830	27770.000000
2167.064072	26906.000000
2168.699304	27144.000000
2170.334215	27027.000000
2171.968804	26968.000000
2173.603071	27402.000000
2175.233645	26812.000000
2176.867271	26643.000000
2178.497205	26853.000000
2180.128504	26402.000000
2181.757798	26742.000000
2183.386773	26670.000000
2185.015428	25732.000000
2186.643764	26340.000000
2188.270098	26424.000000
2189.896113	25993.000000
2191.520126	25746.000000
2193.145505	25935.000000
2194.768883	25069.000000
2196.393626	25359.000000
2198.014688	25061.000000
2199.635433	25546.000000
2201.257543	24891.000000
2202.877655	25288.000000
2204.495770	25112.000000
2206.113570	24896.000000
2207.731055	24732.000000
2209.348224	24731.000000
2210.965078	24629.000000
2212.581616	24286.000000
2214.196162	24659.000000
2215.808715	24523.000000
2217.422632	23933.000000
2219.034558	24146.000000
2220.647847	23592.000000
2222.259146	24047.000000
2223.868455	23960.000000
2225.479128	23634.000000
2227.087812	23520.000000
2228.696183	23210.000000
2230.302568	23472.000000
2231.910316	23134.000000
2233.516077	23264.000000
2235.121527	23198.000000
2236.724992	22854.000000
2238.329820	22844.000000
2239.932664	22864.000000
2241.533525	22978.000000
2243.135749	22536.000000
2244.735991	22204.000000
2246.337595	22637.000000
2247.935547	22727.000000
2249.534860	22270.000000
2251.132194	22003.000000
2252.729220	21967.000000
2254.327608	22300.000000
2255.922347	21971.000000
2257.515109	22013.000000
2259.109234	21622.000000
2260.704720	21825.000000
2262.296561	21619.000000
2263.888096	21387.000000
2265.480993	20974.000000
2267.068580	21121.000000
2268.660863	21376.000000
2270.247840	21061.000000
2271.837844	20920.000000
2273.422544	21111.000000
2275.011938	20746.000000
2276.596030	20825.000000
2278.181483	20176.000000
2279.764966	20539.000000
2281.351475	20143.000000
2282.934351	20114.000000
2284.516924	19942.000000
2286.099193	19949.000000
2287.677832	19806.000000
2289.259496	19705.000000
2290.837531	19692.000000
2292.418589	19487.000000
2293.996020	19220.000000
2295.571488	18953.000000
2297.149978	19138.000000
2298.724844	19340.000000
2300.299409	18581.000000
2301.873674	18665.000000
2303.447638	18857.000000
2305.021301	18968.000000
2306.594665	18661.000000
2308.164410	18562.000000
2309.733856	18423.000000
2311.306320	18608.000000
2312.873510	18339.000000
2314.443718	18210.000000
2316.010311	18320.000000
2317.578264	18583.000000
2319.144261	18193.000000
2320.709961	18355.000000
2322.275363	18250.000000
2323.838812	18380.000000
2325.403620	18503.000000
2326.964820	18966.000000
2328.529034	19421.000000
2330.087986	19568.000000
2331.649953	18905.000000
2333.209968	18163.000000
2334.769689	17706.000000
2336.327460	18080.000000
2337.884936	17857.000000
2339.442118	17728.000000
2340.997352	17700.000000
2342.552293	17426.000000
2344.106939	17479.000000
2345.661292	17428.000000
2347.215352	17521.000000
2348.769117	17160.000000
2350.320939	17490.000000
2351.870817	16979.000000
2353.423703	17235.000000
2354.971347	17192.000000
2356.521998	17065.000000
2358.069058	16476.000000
2359.617476	16658.000000
2361.165603	16911.000000
2362.710141	16509.000000
2364.256037	16774.000000
2365.799995	16603.000000
2367.345310	16487.000000
2368.887040	16208.000000
2370.430127	16376.000000
2371.971278	16294.000000
2373.512140	16249.000000
2375.052713	16100.000000
2376.592997	16022.000000
2378.132992	16219.000000
2379.669409	16159.000000
2381.208827	15799.000000
2382.744668	16078.000000
2384.281865	15842.000000
2385.815487	16075.000000
2387.352109	16015.000000
2388.886801	15545.000000
2390.419563	15490.000000
2391.952038	15870.000000
2393.482585	15662.000000
2395.016130	15617.000000
2396.544464	15805.000000
2398.074155	15541.000000
2399.603559	15604.000000
2401.132679	15591.000000
2402.661514	15452.000000
2404.185143	15258.000000
2405.713408	15413.000000
2407.236471	15472.000000
2408.764167	15370.000000
2410.285024	15359.000000
2411.810514	15390.000000
2413.332443	15532.000000
2414.855728	15085.000000
2416.377091	15260.000000
2417.896535	15389.000000
2419.417335	15123.000000
2420.936215	15009.000000
2422.454813	15036.000000
2423.971494	14777.000000
2425.489529	15160.000000
2427.007283	14803.000000
2428.521486	15024.000000
2430.035408	14583.000000
2431.549050	14942.000000
2433.064047	14659.000000
2434.575495	14781.000000
2436.088298	14711.000000
2437.599187	14885.000000
2439.109798	14562.000000
2440.618497	14541.000000
2442.130182	14432.000000
2443.638324	14585.000000
2445.146188	14532.000000
2446.653774	14237.000000
2448.157819	14518.000000
2449.664849	14211.000000
2451.169972	14333.000000
2452.674816	14097.000000
2454.177754	14241.000000
2455.680416	14156.000000
2457.182801	13854.000000
2458.683281	13968.000000
2460.185114	13867.000000
2461.685042	13740.000000
2463.184695	14243.000000
2464.684073	13980.000000
2466.181548	13827.000000
2467.677121	13769.000000
2469.175674	13769.000000
2470.670699	13719.000000
2472.167076	13557.000000
2473.659927	13643.000000
2475.154131	13701.000000
2476.648061	13494.000000
2478.138467	13793.000000
2479.631851	13726.000000
2481.123337	13493.000000
2482.612926	13716.000000
2484.102243	13644.000000
2485.589664	13512.000000
2487.080061	13650.000000
2488.566940	13804.000000
2490.055170	13433.000000
2491.539884	13672.000000
2493.024327	13363.000000
2494.510121	13387.000000
2495.994024	13103.000000
2497.479277	13302.000000
2498.959397	13159.000000
2500.442490	13389.000000
2501.923692	13333.000000
2503.404625	13353.000000
2504.883669	13538.000000
2506.362444	13349.000000
2507.840951	13522.000000
2509.319190	13574.000000
2510.797160	13390.000000
2512.271625	13194.000000
2513.749060	13103.000000
2515.222991	13208.000000
2516.698272	13202.000000
2518.173286	13072.000000
2519.644800	13018.000000
2521.117663	13099.000000
2522.588644	13017.000000
2524.060975	12951.000000
2525.528192	13015.000000
2526.998376	13247.000000
2528.466679	12999.000000
2529.934717	13244.000000
2531.402490	12888.000000
2532.869998	13109.000000
2534.337241	13039.000000
2535.800992	13129.000000
2537.266093	13327.000000
2538.729317	12967.000000
2540.193891	12923.000000
2541.654975	13085.000000
2543.117409	12885.000000
2544.579580	12837.000000
2546.038265	13245.000000
2547.501522	12955.000000
2548.959682	12826.000000
2550.419191	12950.000000
2551.873606	12892.000000
2553.332592	13086.000000
2554.789706	13041.000000
2556.244949	12952.000000
2557.699931	12858.000000
2559.153043	12895.000000
2560.607504	12810.000000
2562.060095	12986.000000
2563.512427	12671.000000
2564.962892	12747.000000
2566.416312	12667.000000
2567.864650	12698.000000
2569.315944	12582.000000
2570.765371	12465.000000
2572.211326	12626.000000
2573.660236	12625.000000
2575.105676	12688.000000
2576.552463	12653.000000
2577.997388	12534.000000
2579.442054	12843.000000
2580.888068	12727.000000
2582.330616	12606.000000
2583.774511	12519.000000
2585.214941	12611.000000
2586.656718	12287.000000
2588.096636	12645.000000
2589.537901	12300.000000
2590.975704	12547.000000
2592.416457	12392.000000
2593.852148	12509.000000
2595.290788	12420.000000
2596.727570	12518.000000
2598.162497	12665.000000
2599.600371	12436.000000
2601.033188	12353.000000
2602.467352	12289.000000
2603.899662	12380.000000
2605.333318	12678.000000
2606.765121	12515.000000
2608.196670	12266.000000
2609.627967	12259.000000
2611.057411	12356.000000
2612.486603	12374.000000
2613.913945	12413.000000
2615.342632	12328.000000
2616.771068	12587.000000
2618.196056	12465.000000
2619.622391	12265.000000
2621.046877	12251.000000
2622.472709	12471.000000
2623.895097	12439.000000
2625.318831	12308.000000
2626.740718	12411.000000
2628.162356	12381.000000
2629.582148	12482.000000
2631.003286	12449.000000
2632.424174	12283.000000
2633.841624	12613.000000
2635.262013	12462.000000
2636.678965	12806.000000
2638.095668	12540.000000
2639.512123	12455.000000
2640.928330	12449.000000
2642.344289	12582.000000
2643.758407	12490.000000
2645.172277	12533.000000
2646.584309	12488.000000
2647.997684	12654.000000
2649.407630	12746.000000
2650.820512	12494.000000
2652.229965	12556.000000
2653.639172	12699.000000
2655.046543	12824.000000
2656.456848	12726.000000
2657.865318	12612.000000
2659.271952	12575.000000
2660.678341	12620.000000
2662.082896	12701.000000
2663.488795	12634.000000
2664.892861	12600.000000
2666.296682	12703.000000
2667.700259	12664.000000
2669.102005	12899.000000
2670.505094	12710.000000
2671.904765	13039.000000
2673.305780	13029.000000
2674.703379	12795.000000
2676.103908	13097.000000
2677.501021	13146.000000
2678.899479	13211.000000
2680.296108	13063.000000
2681.692495	13161.000000
2683.088640	13230.000000
2684.482960	13258.000000
2685.878621	13194.000000
2687.270874	13137.000000
2688.664469	13355.000000
2690.056240	13334.000000
2691.449354	13166.000000
2692.840644	13492.000000
2694.230111	13033.000000
2695.619338	13171.000000
2697.008326	13402.000000
2698.398655	13623.000000
2699.784001	13407.000000
2701.172270	13180.000000
2702.558719	13647.000000
2703.944929	13383.000000
2705.330900	13441.000000
2706.713473	13695.000000
2708.097388	13677.000000
2709.481065	13733.000000
2710.864503	13718.000000
2712.244547	14060.000000
2713.625931	13751.000000
2715.005501	13892.000000
2716.386411	13957.000000
2717.765507	14128.000000
2719.142789	13961.000000
2720.521412	14137.000000
2721.898222	14123.000000
2723.274795	14318.000000
2724.651133	14071.000000
2726.025660	14518.000000
2727.401527	14344.000000
2728.774007	14297.000000
2730.149403	14350.000000
2731.519839	14827.000000
2732.891616	14524.000000
2734.263158	14741.000000
2735.632892	14605.000000
2737.003967	15015.000000
2738.373233	14896.000000
2739.742266	15209.000000
2741.109493	15453.000000
2742.476487	15100.000000
2743.843247	15104.000000
2745.209776	15099.000000
2746.574499	15221.000000
2747.938990	15702.000000
2749.303250	15509.000000
2750.667277	15577.000000
2752.031073	15603.000000
2753.391495	15882.000000
2754.754827	15952.000000
2756.113217	15812.000000
2757.474517	15842.000000
2758.832447	16319.000000
2760.193285	15628.000000
2761.552324	16128.000000
2762.907994	16235.000000
2764.266572	16010.000000
2765.621783	16358.000000
2766.976765	16460.000000
2768.329951	16527.000000
2769.686043	16751.000000
2771.038770	17054.000000
2772.391270	16611.000000
2773.743541	16903.000000
2775.097151	16953.000000
2776.447399	17001.000000
2777.795853	17213.000000
2779.147213	17152.000000
2780.495213	17237.000000
2781.844551	17157.000000
2783.192098	17626.000000
2784.539417	17795.000000
2785.886510	18182.000000
2787.231812	17694.000000
2788.576887	17890.000000
2789.921737	17846.000000
2791.266361	18105.000000
2792.607633	18370.000000
2793.950243	18367.000000
2795.292627	18078.000000
2796.634786	18278.000000
2797.973597	18533.000000
2799.315306	18710.000000
2800.653668	18954.000000
2801.993366	19117.000000
2803.331280	19414.000000
2804.667409	19502.000000
2806.003314	19420.000000
2807.340557	20067.000000
2808.676016	19781.000000
2810.011252	19913.000000
2811.344705	20060.000000
2812.679495	20555.000000
2814.010945	20256.000000
2815.345290	20974.000000
2816.674737	20762.000000
2818.005521	21356.000000
2819.336083	21468.000000
2820.664866	21190.000000
2821.994985	21582.000000
2823.323326	22014.000000
2824.651446	22051.000000
2825.977788	21979.000000
2827.305467	22290.000000
2828.629812	22843.000000
2829.955494	22632.000000
2831.279400	22967.000000
2832.603087	22860.000000
2833.928109	23281.000000
2835.249801	23159.000000
2836.571275	23676.000000
2837.892530	23819.000000
2839.213566	24268.000000
2840.532829	24219.000000
2841.853428	24513.000000
2843.172256	24771.000000
2844.490865	25391.000000
2845.807703	24959.000000
2847.124324	24857.000000
2848.440728	25280.000000
2849.755362	26085.000000
2851.071332	26020.000000
2852.383981	26381.000000
2853.697965	26233.000000
2855.011733	27296.000000
2856.325285	26720.000000
2857.637069	27279.000000
2858.947087	27139.000000
2860.258440	27542.000000
2861.566478	27905.000000
2862.875850	28712.000000
2864.185008	28710.000000
2865.493950	29125.000000
2866.801128	29860.000000
2868.106544	29870.000000
2869.413294	29699.000000
2870.718281	30763.000000
2872.023055	30603.000000
2873.326067	31227.000000
2874.631960	31244.000000
2875.932999	31371.000000
2877.235372	31595.000000
2878.535985	32375.000000
2879.837932	32939.000000
2881.139666	32844.000000
2882.438095	33334.000000
2883.737858	33445.000000
2885.035864	33953.000000
2886.333658	34359.000000
2887.629696	35015.000000
2888.927067	35193.000000
2890.222682	34884.000000
2891.518086	35974.000000
2892.813279	36256.000000
2894.105175	37113.000000
2895.399947	36742.000000
2896.691422	36841.000000
2897.984230	37464.000000
2899.276828	37986.000000
2900.566132	38929.000000
2901.856768	38737.000000
2903.145653	39049.000000
2904.435870	39847.000000
2905.722796	39936.000000
2907.011054	40436.000000
2908.297563	40562.000000
2909.583864	41350.000000
2910.869956	42243.000000
2912.154300	42547.000000
2913.441515	42925.000000
2914.723904	43400.000000
2916.007625	43616.000000
2917.289600	44915.000000
2918.571367	44773.000000
2919.851390	45636.000000
2921.134282	45643.000000
2922.415429	45226.000000
2923.693294	46992.000000
2924.974028	47184.000000
2926.251481	47631.000000
2927.528728	48393.000000
2928.804233	47602.000000
2930.082606	48944.000000
2931.356165	48647.000000
2932.632591	49627.000000
2933.907276	50225.000000
2935.180220	50728.000000
2936.454496	51673.000000
2937.727032	53433.000000
2938.999363	51995.000000
2940.268422	52752.000000
2941.540346	53747.000000
2942.810532	53674.000000
2944.080514	54121.000000
2945.350293	54147.000000
2946.618336	55405.000000
2947.884642	55439.000000
2949.150747	56938.000000
2950.418181	56658.000000
2951.683881	58372.000000
2952.949378	54510.000000
2954.214673	57929.000000
2955.476703	57684.000000
2956.740063	59416.000000
2958.003222	59030.000000
2959.264649	59974.000000
2960.527405	60244.000000
2961.788429	59689.000000
2963.047723	61610.000000
2964.306817	61538.000000
2965.565710	61067.000000
2966.824403	62119.000000
2968.082896	63148.000000
2969.339660	62608.000000
2970.596224	62504.000000
2971.851061	63013.000000
2973.107226	64025.000000
2974.360137	62263.000000
2975.614377	63091.000000
2976.868418	63791.000000
2978.120733	63799.000000
2979.372849	63911.000000
2980.623241	63906.000000
2981.876488	63331.000000
2983.124958	63943.000000
2984.376283	63568.000000
2985.624358	64041.000000
2986.872237	63806.000000
2988.119918	63839.000000
2989.367402	63628.000000
2990.613165	63523.000000
2991.858732	63803.000000
2993.105626	64030.000000
2994.349276	63382.000000
2995.594254	63991.000000
2996.835988	63956.000000
2998.080574	63999.000000
2999.323441	63724.000000
3000.563067	63964.000000
3001.805543	63954.000000
3003.044779	63827.000000
3004.285343	63980.000000
3005.524191	63187.000000
3006.762843	63975.000000
3007.999781	64012.000000
3009.238045	63794.000000
3010.474594	64093.000000
3011.710950	63350.000000
3012.947112	64027.000000
3014.181560	63875.000000
3015.415816	63824.000000
3016.649878	63831.000000
3017.882228	63858.000000
3019.112866	64046.000000
3020.346350	63961.000000
3021.578122	63983.000000
3022.808184	64073.000000
3024.038054	63902.000000
3025.266214	63950.000000
3026.495700	63449.000000
3027.723477	64011.000000
3028.951064	63759.000000
3030.179976	63860.000000
3031.404146	63980.000000
3032.631159	63478.000000
3033.854948	64098.000000
3035.080064	63647.000000
3036.303473	64059.000000
3037.526692	63631.000000
3038.748206	63802.000000
3039.972561	63782.000000
3041.192181	63944.000000
3042.413127	63921.000000
3043.633884	63798.000000
3044.852937	64036.000000
3046.073316	63306.000000
3047.290477	63759.000000
3048.508965	63645.000000
3049.725750	64064.000000
3050.942348	63805.000000
3052.158757	64072.000000
3053.371954	63834.000000
3054.587988	63986.000000
3055.800810	63961.000000
3057.016469	64140.000000
3058.227405	63801.000000
3059.439666	63708.000000
3060.651741	63714.000000
3061.863628	63680.000000
3063.073819	63977.000000
3064.283823	64114.000000
3065.493641	63823.000000
3066.701763	64052.000000
3067.909700	64041.000000
3069.115941	63956.000000
3070.323507	63876.000000
3071.529378	63804.500000
3072.735065	63733.000000
3073.940566	63974.000000
3075.144374	63897.000000
3076.349506	64165.000000
3077.552946	64060.000000
3078.754693	63604.000000
3079.956256	64018.000000
3081.157636	63710.000000
3082.358832	63993.000000
3083.558338	63829.000000
3084.757661	63831.000000
3085.958307	64012.000000
3087.157263	63614.000000
3088.353025	63912.000000
3089.551616	63805.000000
3090.747013	63111.000000
3091.943733	63979.000000
3093.137261	64048.000000
3094.333617	64095.000000
3095.528287	63762.000000
3096.719766	63740.000000
3097.915576	64099.000000
3099.106693	64077.000000
3100.299132	63749.000000
3101.488384	63896.000000
3102.680461	63629.000000
3103.870855	63766.000000
3105.058063	64084.000000
3106.246594	63997.000000
3107.436446	63949.000000
3108.623115	64097.000000
3109.809604	63328.000000
3110.995913	63969.000000
3112.183544	64116.000000
3113.367993	63989.000000
3114.550763	63990.000000
3115.736355	62681.000000
3116.920268	64142.000000
3118.102502	64127.000000
3119.284557	64016.000000
3120.466434	63894.000000
3121.648133	64004.000000
3122.828155	63892.000000
3124.006500	64065.000000
3125.187665	63923.000000
3126.365656	63902.000000
3127.543469	63937.000000
3128.721105	64057.000000
3129.897066	63841.000000
3131.072850	63951.000000
3132.249956	63382.000000
3133.425387	64012.000000
3134.599145	63565.000000
3135.771230	63936.000000
3136.944637	63874.000000
3138.117867	63980.000000
3139.289426	63901.000000
3140.462305	63750.000000
3141.632017	63661.000000
3142.803050	63698.000000
3143.972413	63937.000000
3145.140105	64088.000000
3146.310614	63472.000000
3147.476463	64074.000000
3148.646621	63952.000000
3149.812123	63776.000000
3150.977450	63983.000000
3152.142605	64053.000000
3153.307585	63782.000000
3154.473885	64011.000000
3155.635533	64031.000000
3156.798500	63511.000000
3157.961295	63917.000000
3159.123917	63964.000000
3160.284874	63356.000000
3161.445658	64081.000000
3162.606270	63914.000000
3163.765218	63984.000000
3164.923995	64013.000000
3166.082600	63475.000000
3167.241033	63901.000000
3168.399294	63922.000000
3169.555893	63979.000000
3170.710831	63880.000000
3171.867088	64034.000000
3173.021684	63922.000000
3174.176110	63968.000000
3175.328876	63999.000000
3176.481472	63877.000000
3177.633897	63934.000000
3178.786153	63686.000000
3179.938238	64037.000000
3181.087178	63616.000000
3182.238924	64062.000000
3183.389012	63772.000000
3184.537444	63894.000000
3185.685706	63969.000000
3186.833800	64053.000000
3187.981725	63946.000000
3189.127994	63543.000000
3190.274096	64002.000000
3191.418542	63930.000000
3192.562821	63913.000000
3193.706932	63838.000000
3194.852360	63918.000000
3195.994650	63868.000000
3197.136773	63732.000000
3198.278728	63832.000000
3199.420516	63860.000000
3200.562137	64022.000000
3201.700623	63679.000000
3202.840426	63989.000000
3203.981547	63767.000000
3205.119533	63869.000000
3206.255870	63438.000000
3207.392041	63723.000000
3208.529529	63603.000000
3209.665369	63873.000000
3210.802526	63471.000000
3211.935070	63854.000000
3213.071896	63836.000000
3214.204110	63759.000000
3215.337641	63993.000000
3216.471008	63815.000000
3217.601247	63928.000000
3218.734284	63895.000000
3219.864195	63272.000000
3220.995422	63444.000000
3222.123525	63214.000000
3223.254424	63997.000000
3224.383679	64008.000000
3225.511291	63889.000000
3226.635780	63519.000000
3227.764545	63586.000000
3228.890188	63581.000000
3230.015669	63735.000000
3231.139508	63657.000000
3232.266141	63997.000000
3233.388177	63936.000000
3234.511529	63780.000000
3235.634719	63398.000000
3236.757747	63604.000000
3237.879135	63935.000000
3239.000361	64041.000000
3240.119950	63971.000000
3241.239377	63976.000000
3242.357166	63817.000000
3243.477747	63827.000000
3244.595215	63745.000000
3245.712522	63955.000000
3246.829669	62979.000000
3247.945180	63922.000000
3249.062005	63920.000000
3250.175721	63740.000000
3251.292226	63592.000000
3252.407097	63593.000000
3253.518859	63794.000000
3254.630461	63933.000000
3255.743379	63779.000000
3256.856137	64025.000000
3257.965789	63765.000000
3259.076756	63856.000000
3260.187564	63805.000000
3261.296740	63907.000000
3262.404286	62979.000000
3263.513145	63932.000000
3264.621847	63907.000000
3265.727446	63982.000000
3266.834359	63150.000000
3267.939643	61665.000000
3269.046241	63445.000000
3270.149739	64071.000000
3271.254552	63746.000000
3272.359207	63990.000000
3273.460763	63157.000000
3274.562163	63638.000000
3275.664878	63930.000000
3276.767435	63998.000000
3277.866896	63786.000000
3278.969141	63642.000000
3280.068290	63632.000000
3281.165815	63244.000000
3282.263184	63650.000000
3283.363335	63938.000000
3284.460394	63654.000000
3285.557297	63863.000000
3286.654045	63535.000000
3287.746235	64076.000000
3288.842673	63806.000000
3289.937489	63424.000000
3291.032151	63786.000000
3292.125191	63491.000000
3293.218077	63935.000000
3294.309342	63982.000000
3295.401919	64049.000000
3296.492877	63626.000000
3297.582215	63388.000000
3298.671400	63835.000000
3299.761898	63868.000000
3300.849311	63402.000000
3301.936571	63980.000000
3303.025144	63915.000000
3304.113565	64022.000000
3305.197438	64017.000000
3306.285553	63928.000000
3307.370587	64073.000000
3308.454004	63758.000000
3309.538734	63774.000000
3310.621849	63853.000000
3311.706275	63985.000000
3312.787623	63911.000000
3313.870283	64090.000000
3314.951329	63710.000000
3316.032224	64094.000000
3317.111505	63991.000000
3318.190636	63987.000000
3319.271079	63896.000000
3320.348447	63860.000000
3321.427127	64046.000000
3322.504195	63987.000000
3323.581114	63962.000000
3324.656421	63901.000000
3325.731579	63969.000000
3326.808048	64232.000000
3327.881447	64052.000000
3328.954697	63954.000000
3330.029257	63941.000000
3331.102209	64072.000000
3332.173552	64057.000000
3333.246206	64065.000000
3334.315794	63846.000000
3335.386692	64012.000000
3336.455983	63665.000000
3337.526585	63926.000000
3338.595580	64033.000000
3339.662969	63772.000000
3340.728753	63909.000000
3341.798763	63926.000000
3342.865710	63914.000000
3343.929595	63226.000000
3344.996248	64051.000000
3346.061296	64168.000000
3347.124741	62690.000000
3348.188040	64096.000000
3349.251192	64060.000000
3350.314198	64137.000000
3351.377058	64103.000000
3352.438316	64198.000000
3353.496517	64081.000000
3354.558938	64047.000000
3355.618304	63819.000000
3356.677524	63529.000000
3357.738054	64122.000000
3358.794074	63936.000000
3359.852858	63902.000000
3360.907135	63987.000000
3361.964176	63925.000000
3363.019618	64096.000000
3364.076370	63951.000000
3365.131523	64130.000000
3366.185079	64122.000000
3367.237039	64014.000000
3368.291760	64109.000000
3369.343432	64081.000000
3370.394961	63860.000000
3371.447798	63962.000000
3372.497588	64088.000000
3373.548687	64032.000000
3374.596740	64139.000000
3375.647552	64217.000000
3376.695320	64134.000000
3377.742945	64165.000000
3378.790427	64097.000000
3379.836317	62945.000000
3380.883515	63975.000000
3381.927671	64162.000000
3382.974585	63961.000000
3384.019907	63990.000000
3385.062188	63661.000000
3386.104329	64133.000000
3387.147777	64034.000000
3388.191084	64162.000000
3389.232802	64102.000000
3390.274378	63640.000000
3391.315814	64103.000000
3392.355660	64176.000000
3393.393918	63866.000000
3394.433484	64158.000000
3395.472910	63851.000000
3396.510748	64183.000000
3397.546999	64153.000000
3398.583111	63662.000000
3399.620530	64014.000000
3400.654916	64063.000000
3401.690609	64230.000000
3402.726163	64200.000000
3403.758686	64224.000000
3404.793962	64302.000000
3405.826207	64150.000000
3406.858314	64196.000000
3407.888837	63935.000000
3408.920667	64309.000000
3409.952359	63804.000000
3410.981023	63838.000000
3412.009550	64177.000000
3413.039383	64237.000000
3414.069079	63813.000000
3415.095749	63669.000000
3416.123726	64110.000000
3417.148678	63740.000000
3418.176380	64079.000000
3419.201059	64150.000000
3420.227044	63743.000000
3421.251449	64200.000000
3422.275718	63971.000000
3423.298408	64207.000000
3424.320962	64180.000000
3425.344822	63589.000000
3426.365662	64105.000000
3427.386366	64235.000000
3428.408377	64058.000000
3429.427369	63899.000000
3430.446226	64221.000000
3431.466388	63888.000000
3432.483534	64276.000000
