-116.773079	71.000000
-114.103479	107.000000
-111.436814	74.000000
-108.770901	72.000000
-106.107920	60.000000
-103.443510	35.000000
-100.782030	60.000000
-98.119121	110.000000
-95.461318	65.000000
-92.802086	75.000000
-90.143602	90.000000
-87.488042	139.000000
-84.831054	141.000000
-82.179164	142.000000
-79.525843	92.000000
-76.875443	42.000000
-74.223613	42.000000
-71.576874	93.000000
-68.928706	116.000000
-66.281280	91.000000
-63.636768	108.000000
-60.990828	140.000000
-58.349969	169.000000
-55.707681	121.000000
-53.068301	126.000000
-50.427493	121.000000
-47.787425	96.000000
-45.152429	133.000000
-42.516005	117.000000
-39.882483	94.000000
-37.247533	111.000000
-34.617648	187.000000
-31.984171	159.000000
-29.355756	212.000000
-26.728075	219.000000
-24.098965	242.000000
-21.474912	372.000000
-18.847270	399.000000
-16.224681	415.000000
-13.602824	669.000000
-10.981697	1289.000000
-8.361300	2681.000000
-5.743792	9586.000000
-3.124855	32402.000000
-0.508803	64475.000000
2.106520	64471.000000
4.721116	39207.000000
7.332829	2846.000000
9.945971	754.000000
12.554079	419.000000
15.165769	359.000000
17.772428	304.000000
20.380515	239.000000
22.987878	166.000000
25.590216	214.000000
28.196132	243.000000
30.797026	317.000000
33.399348	201.000000
35.996653	245.000000
38.597533	256.000000
41.193398	188.000000
43.790692	217.000000
46.387266	199.000000
48.978831	230.000000
51.571824	200.000000
54.161956	355.000000
56.753516	197.000000
59.342216	195.000000
61.932343	222.000000
64.517471	269.000000
67.104027	212.000000
69.689869	268.000000
72.272857	218.000000
74.857271	208.000000
77.434557	289.000000
80.015409	257.000000
82.593412	201.000000
85.170705	312.000000
87.749424	318.000000
90.323161	347.000000
92.898326	331.000000
95.470647	379.000000
98.042260	382.000000
100.611033	466.000000
103.181233	432.000000
105.748595	538.000000
108.317382	626.000000
110.883333	792.000000
113.446449	1002.000000
116.013121	1343.000000
118.570572	1742.000000
121.133708	2622.000000
123.691884	3860.000000
126.253615	5472.000000
128.810389	8276.000000
131.368590	12514.000000
133.921837	18618.000000
136.474387	27099.000000
139.030487	37392.000000
141.581639	48107.000000
144.132094	56620.000000
146.681851	61020.000000
149.228789	63870.000000
151.775032	64483.000000
154.322700	64481.000000
156.869672	64452.000000
159.411709	64397.000000
161.953052	64422.000000
164.493702	64472.000000
167.035778	64497.000000
169.575042	64450.000000
172.111498	64281.000000
174.647262	63923.000000
177.184452	63156.000000
179.720951	62772.000000
182.254644	62638.000000
184.785533	61601.000000
187.315735	60928.000000
189.847361	60149.000000
192.376186	60127.000000
194.902212	59087.000000
197.427552	58097.000000
199.954318	57396.000000
202.478286	56100.000000
205.001570	55338.000000
207.524169	53993.000000
210.043975	52761.000000
212.563098	51463.000000
215.081538	50110.000000
217.601402	49106.000000
220.114265	48109.000000
222.630659	46308.000000
225.146371	45280.000000
227.657193	44102.000000
230.169440	43406.000000
232.678905	42087.000000
235.187691	40870.000000
237.695798	40379.000000
240.205330	38794.000000
242.709981	38446.000000
245.213956	37192.000000
247.719355	36234.000000
250.219879	35608.000000
252.723927	34708.000000
255.221003	33680.000000
257.721603	33155.000000
260.219431	32228.000000
262.716586	31537.000000
265.213068	30722.000000
267.704687	30125.000000
270.199826	29560.000000
272.692198	28609.000000
275.183901	27535.000000
277.672839	27220.000000
280.163202	26817.000000
282.650802	26135.000000
285.135643	25493.000000
287.623999	24943.000000
290.105415	24199.000000
292.590345	23705.000000
295.070430	23606.000000
297.554027	22838.000000
300.032781	22492.000000
302.512959	22402.000000
304.990384	22081.000000
307.467146	21802.000000
309.943245	21635.000000
312.416595	21251.000000
314.889283	20735.000000
317.361310	20553.000000
319.832676	20778.000000
322.301297	20581.000000
324.769260	20630.000000
327.238644	20431.000000
329.703206	20427.000000
332.171272	19960.000000
334.634518	20427.000000
337.097106	20052.000000
339.559038	19880.000000
342.020313	20154.000000
344.478854	20237.000000
346.938817	20084.000000
349.396047	19866.000000
351.852623	19827.000000
354.308545	19966.000000
356.761737	19518.000000
359.216352	19810.000000
361.666165	19828.000000
364.119474	19850.000000
366.567985	19988.000000
369.015844	19560.000000
371.465126	19944.000000
373.909614	19766.000000
376.355524	19964.000000
378.800784	19636.000000
381.243326	19849.000000
383.685220	19965.000000
386.126467	20230.000000
388.564998	20037.000000
391.004951	20073.000000
393.442190	20189.000000
395.876717	19741.000000
398.314732	19946.000000
400.747970	19716.000000
403.182629	19973.000000
405.612516	19976.000000
408.045888	19799.000000
410.474490	20004.000000
412.902450	19978.000000
415.331832	20122.000000
417.756448	20051.000000
420.182486	20202.000000
422.607883	19929.000000
425.032640	20152.000000
427.452639	20415.000000
429.874059	20292.000000
432.292782	20433.000000
434.712926	20479.000000
437.130375	20170.000000
439.549244	20318.000000
441.965420	20373.000000
444.376848	20190.000000
446.791754	20258.000000
449.203969	20080.000000
451.615550	20104.000000
454.026497	19957.000000
456.434758	19801.000000
458.842386	19796.000000
461.249382	19942.000000
463.655747	19491.000000
466.059429	19699.000000
468.462481	19495.000000
470.864903	19576.000000
473.266695	19460.000000
475.665810	19154.000000
478.066344	19617.000000
480.466249	19336.000000
482.861431	19225.000000
485.260080	19626.000000
487.654009	19360.000000
490.047312	19053.000000
492.439989	19225.000000
494.832041	18971.000000
497.225511	18846.000000
499.614270	18525.000000
502.000361	18419.000000
504.387873	18121.000000
506.774762	17843.000000
509.158987	17472.000000
511.544630	17470.000000
513.927612	17188.000000
516.307933	17160.000000
518.689673	17104.000000
521.068754	16933.000000
523.449254	16852.000000
525.827096	16663.000000
528.202283	16926.000000
530.576852	16305.000000
532.952839	16285.000000
535.326174	16251.000000
537.700926	16188.000000
540.070993	16216.000000
542.440444	16213.000000
544.811313	16163.000000
547.177502	15866.000000
549.545109	16187.000000
551.910070	15647.000000
554.274418	15854.000000
556.638153	15934.000000
559.003306	15914.000000
561.363787	15624.000000
563.725686	15697.000000
566.084944	15716.000000
568.441565	15392.000000
570.801630	15385.000000
573.155004	15541.000000
575.511823	15427.000000
577.866007	15267.000000
580.219583	15340.000000
582.572550	14969.000000
584.922885	14923.000000
587.274638	15173.000000
589.619714	15010.000000
591.970254	14969.000000
594.314120	14767.000000
596.663448	14779.000000
599.008127	15003.000000
601.350182	14950.000000
603.693654	14785.000000
606.034503	14608.000000
608.374750	14894.000000
610.712376	14657.000000
613.053437	14459.000000
615.389860	14323.000000
617.727700	14199.000000
620.062923	13956.000000
622.395530	13971.000000
624.729553	14049.000000
627.060962	14032.000000
629.391774	13948.000000
631.721987	13838.000000
634.051602	13928.000000
636.376595	13859.000000
638.707028	13817.000000
641.032841	13656.000000
643.356046	13894.000000
645.680668	13691.000000
648.002684	13669.000000
650.324106	13847.000000
652.642926	13451.000000
654.963161	13353.000000
657.282803	13505.000000
659.599844	14027.000000
661.916293	13460.000000
664.230144	13422.000000
666.545411	13585.000000
668.858081	13375.000000
671.172166	13387.000000
673.481651	13187.000000
675.792552	13362.000000
678.100860	13191.000000
680.408580	13165.000000
682.717714	13040.000000
685.022256	13286.000000
687.326212	13060.000000
689.629582	12951.000000
691.934366	12901.000000
694.234564	12853.000000
696.536176	13103.000000
698.837204	12657.000000
701.133649	12724.000000
703.431510	12722.000000
705.728787	12691.000000
708.025481	12652.000000
710.317599	12443.000000
712.613128	12417.000000
714.904083	12584.000000
717.196453	12482.000000
719.486248	12318.000000
721.775462	12445.000000
724.064097	12415.000000
726.350159	12323.000000
728.637636	12397.000000
730.922541	12484.000000
733.206869	12443.000000
735.488628	12457.000000
737.771801	12374.000000
740.054397	12275.000000
742.332437	11984.000000
744.611892	12129.000000
746.890771	12067.000000
749.169074	11986.000000
751.442828	12126.000000
753.717995	12061.000000
755.992589	11829.000000
758.264624	11968.000000
760.538072	12256.000000
762.808962	12150.000000
765.077296	12009.000000
767.347043	11837.000000
769.614236	12132.000000
771.880858	11857.000000
774.146910	11894.000000
776.410411	11845.000000
778.675325	11693.000000
780.939669	12023.000000
783.199484	11939.000000
785.460711	11972.000000
787.721371	11837.000000
789.979485	11834.000000
792.235054	11670.000000
794.494014	11835.000000
796.746475	11799.000000
799.004302	11744.000000
801.257611	11752.000000
803.508380	11462.000000
805.760561	11560.000000
808.010203	11580.000000
810.261258	11714.000000
812.507801	11767.000000
814.755756	11508.000000
817.001177	11869.000000
819.248009	11501.000000
821.494280	11280.000000
823.736046	11092.000000
825.981196	10997.000000
828.219873	10965.000000
830.461932	10821.000000
832.699493	10673.000000
834.938466	10923.000000
837.174912	10447.000000
839.412769	10523.000000
841.648101	10747.000000
843.880910	10370.000000
846.115130	10378.000000
848.346827	10298.000000
850.577970	10456.000000
852.808558	10069.000000
855.038592	10075.000000
857.268072	9922.000000
859.493070	9995.000000
861.721443	9723.000000
863.945337	9633.000000
866.170641	9655.000000
868.391470	9519.000000
870.615671	9580.000000
872.835399	9570.000000
875.056537	9416.000000
877.277126	9322.000000
879.495204	9325.000000
881.714692	9313.000000
883.929714	9104.000000
886.144189	9257.000000
888.358115	9220.000000
890.571495	9251.000000
892.784327	8891.000000
894.996613	8862.000000
897.206396	8949.000000
899.415634	8719.000000
901.624327	8647.000000
903.830521	8694.000000
906.038124	8618.000000
908.243229	8675.000000
910.447791	8398.000000
912.649858	8636.000000
914.853334	8386.000000
917.054316	8439.000000
919.254756	8391.000000
921.456605	8298.000000
923.652063	8521.000000
925.850880	8217.000000
928.045258	8335.000000
930.242994	8070.000000
932.436294	8120.000000
934.631003	8415.000000
936.823226	8177.000000
939.014910	8000.000000
941.206057	8176.000000
943.394721	8181.000000
945.582849	8134.000000
947.768496	8167.000000
949.957495	8073.000000
952.142071	8160.000000
954.326112	7903.000000
956.513503	7963.000000
958.692590	7878.000000
960.875028	7881.000000
963.056932	7769.000000
965.236361	7992.000000
967.413318	7683.000000
969.591683	7835.000000
971.771455	7996.000000
973.944878	7769.000000
976.121647	7749.000000
978.294009	7736.000000
980.467779	7801.000000
982.637145	7733.000000
984.809855	7671.000000
986.980100	7715.000000
989.149816	7601.000000
991.319003	7669.000000
993.483793	7488.000000
995.651924	7690.000000
997.815661	7516.000000
999.980804	7483.000000
1002.143488	7626.000000
1004.305647	7403.000000
1006.465349	7486.000000
1008.624526	7609.000000
1010.785110	7518.000000
1012.943240	7431.000000
1015.100845	7582.000000
1017.257927	7243.000000
1019.414485	7500.000000
1021.566664	7263.000000
1023.720250	7312.000000
1025.873314	7331.000000
1028.023929	7336.000000
1030.175951	7407.000000
1032.323599	7295.000000
1034.474579	7427.000000
1036.621188	7406.000000
1038.767278	7345.000000
1040.912850	7251.000000
1043.059827	7264.000000
1045.200515	7263.000000
1047.344533	7184.000000
1049.486110	6988.000000
1051.627171	7204.000000
1053.769636	7239.000000
1055.905822	7212.000000
1058.045334	7143.000000
1060.180490	7200.000000
1062.318971	7311.000000
1064.453098	7172.000000
1066.586712	7263.000000
1068.721731	7126.000000
1070.852400	6959.000000
1072.984474	7040.000000
1075.114119	7077.000000
1077.243252	7114.000000
1079.371873	6996.000000
1081.499983	6810.000000
1083.625667	7019.000000
1085.750841	6931.000000
1087.877419	7012.000000
1089.999659	7027.000000
1092.123304	7040.000000
1094.242614	7044.000000
1096.367154	6864.000000
1098.485448	6924.000000
1100.605147	6975.000000
1102.722427	6923.000000
1104.839201	6979.000000
1106.955468	7088.000000
1109.069319	6707.000000
1111.184575	6828.000000
1113.295507	6791.000000
1115.409752	6646.000000
1117.519676	6767.000000
1119.631004	6784.000000
1121.741827	6723.000000
1123.848334	7074.000000
1125.958151	6922.000000
1128.063653	6804.000000
1130.170558	6945.000000
1132.271248	6836.000000
1134.377150	6974.000000
1136.478743	7059.000000
1138.581739	6819.000000
1140.684234	6717.000000
1142.780522	6795.000000
1144.882018	6607.000000
1146.979210	6895.000000
1149.075905	6692.000000
1151.172101	6703.000000
1153.267800	6660.000000
1155.363000	6738.000000
1157.455804	6744.000000
1159.550011	6859.000000
1161.638026	6654.000000
1163.731239	6823.000000
1165.818264	6644.000000
1167.908588	6697.000000
1169.994625	6598.000000
1172.083959	6626.000000
1174.167112	6716.000000
1176.251667	6863.000000
1178.337624	6689.000000
1180.419299	6674.000000
1182.502376	6805.000000
1184.583067	6643.000000
1186.663266	6598.000000
1188.742974	6656.000000
1190.822191	6877.000000
1192.899026	6650.000000
1194.973480	6728.000000
1197.051225	6730.000000
1199.124701	6604.000000
1201.199577	6688.000000
1203.270186	6608.000000
1205.342196	6635.000000
1207.411831	6737.000000
1209.482866	6627.000000
1211.553413	6616.000000
1213.619699	6627.000000
1215.687386	6678.000000
1217.752701	6448.000000
1219.819416	6602.000000
1221.881875	6529.000000
1223.947619	6600.000000
1226.009109	6784.000000
1228.072000	6515.000000
1230.132523	6484.000000
1232.192562	6549.000000
1234.252119	6705.000000
1236.309310	6473.000000
1238.366020	6648.000000
1240.420366	6501.000000
1242.477994	6579.000000
1244.533259	6751.000000
1246.584283	6492.000000
1248.636707	6449.000000
1250.688651	6483.000000
1252.738237	6586.000000
1254.787344	6567.000000
1256.835973	6588.000000
1258.884123	6678.000000
1260.931794	6598.000000
1262.975235	6380.000000
1265.021952	6462.000000
1267.066315	6579.000000
1269.110202	6291.000000
1271.151737	6342.000000
1273.190923	6363.000000
1275.233382	6442.000000
1277.271618	6546.000000
1279.311253	6638.000000
1281.350413	6432.000000
1283.385354	6357.000000
1285.421694	6333.000000
1287.455690	6278.000000
1289.491083	6398.000000
1291.522264	6323.000000
1293.554842	6467.000000
1295.586949	6282.000000
1297.616715	6421.000000
1299.647879	6430.000000
1301.674835	6488.000000
1303.703189	6294.000000
1305.727339	6362.000000
1307.754753	6484.000000
1309.777965	6235.000000
1311.802575	6241.000000
1313.824851	6436.000000
1315.848524	6350.000000
1317.869864	6175.000000
1319.890736	6255.000000
1321.911141	6183.000000
1323.927353	6043.000000
1325.944962	6211.000000
1327.960243	6123.000000
1329.978783	6054.000000
1331.993134	6094.000000
1334.005159	6096.000000
1336.020441	6084.000000
1338.031538	6332.000000
1340.044032	6020.000000
1342.052343	6217.000000
1344.063909	6027.000000
1346.069437	6055.000000
1348.078220	6085.000000
1350.082825	6065.000000
1352.090684	6160.000000
1354.098081	6024.000000
1356.099447	5927.000000
1358.102209	5883.000000
1360.104512	6129.000000
1362.106355	6095.000000
1364.107738	6051.000000
1366.106808	6072.000000
1368.105419	5990.000000
1370.103572	5991.000000
1372.101266	5894.000000
1374.094798	5986.000000
1376.089726	5811.000000
1378.084196	5800.000000
1380.078210	5938.000000
1382.069917	5839.000000
1384.061169	5954.000000
1386.050115	5800.000000
1388.040456	5851.000000
1390.030342	5750.000000
1392.017924	5834.000000
1394.005053	5885.000000
1395.989880	5825.000000
1397.976102	5786.000000
1399.960024	5754.000000
1401.943493	5744.000000
1403.926509	5897.000000
1405.907228	5813.000000
1407.889341	5712.000000
1409.869158	5990.000000
1411.848523	5897.000000
1413.823750	5777.000000
1415.802215	6030.000000
1417.778387	5857.000000
1419.754110	5650.000000
1421.729383	5581.000000
1423.702365	5776.000000
1425.674899	5707.000000
1427.646985	5648.000000
1429.618624	5819.000000
1431.586134	5866.000000
1433.558718	5753.000000
1435.523497	5998.000000
1437.493347	5697.000000
1439.459074	5879.000000
1441.426193	5721.000000
1443.391029	5747.000000
1445.351745	5758.000000
1447.317529	5807.000000
1449.277358	5794.000000
1451.238581	5930.000000
1453.201196	5872.000000
1455.159696	5768.000000
1457.117753	6020.000000
1459.075369	5802.000000
1461.032542	5789.000000
1462.987440	5803.000000
1464.943731	5928.000000
1466.897747	5783.000000
1468.851322	5800.000000
1470.802625	5887.000000
1472.755321	5858.000000
1474.705745	5851.000000
1476.655729	5914.000000
1478.605275	5831.000000
1480.552552	5786.000000
1482.497561	5836.000000
1484.443963	5882.000000
1486.389927	5814.000000
1488.335454	5874.000000
1490.278715	5766.000000
1492.221541	5894.000000
1494.162103	5918.000000
1496.104056	6056.000000
1498.043747	5802.000000
1499.983004	5891.000000
1501.921825	5934.000000
1503.858387	5948.000000
1505.796340	5987.000000
1507.732034	5805.000000
1509.667295	5888.000000
1511.600300	5884.000000
1513.532872	6103.000000
1515.465012	6150.000000
1517.396720	6059.000000
1519.326174	6066.000000
1521.257019	6125.000000
1523.187432	6110.000000
1525.113773	6212.000000
1527.041505	6290.000000
1528.966986	6188.000000
1530.892038	6121.000000
1532.816661	6316.000000
1534.740855	6123.000000
1536.662801	6354.000000
1538.586138	6281.000000
1540.507228	6382.000000
1542.426075	6462.000000
1544.346310	6564.000000
1546.264303	6355.000000
1548.181869	6524.000000
1550.097193	6524.000000
1552.013907	6532.000000
1553.926566	6520.000000
1555.842429	6786.000000
1557.756052	6771.000000
1559.667438	6751.000000
1561.580212	6858.000000
1563.488937	6915.000000
1565.399051	6990.000000
1567.308742	7012.000000
1569.218010	7136.000000
1571.125044	7170.000000
1573.029845	7308.000000
1574.936035	7366.000000
1576.839993	7512.000000
1578.743530	7395.000000
1580.646647	7438.000000
1582.547534	7709.000000
1584.449810	7435.000000
1586.349858	7617.000000
1588.251293	8050.000000
1590.148695	7856.000000
1592.045678	8263.000000
1593.942243	8057.000000
1595.840196	8173.000000
1597.732314	8252.000000
1599.627625	8434.000000
1601.522519	8619.000000
1603.415191	8629.000000
1605.307446	8874.000000
1607.197482	9146.000000
1609.087102	8946.000000
1610.976307	8928.000000
1612.865097	9220.000000
1614.751669	9485.000000
1616.639629	9702.000000
1618.523572	9741.000000
1620.408902	10123.000000
1622.293819	10127.000000
1624.176522	10013.000000
1626.060612	10001.000000
1627.940691	10127.000000
1629.822156	10248.000000
1631.701411	10103.000000
1633.582052	10235.000000
1635.456889	10399.000000
1637.336707	10158.000000
1639.212521	10063.000000
1641.087924	10188.000000
1642.964713	10166.000000
1644.835706	10070.000000
1646.709880	10192.000000
1648.580056	9890.000000
1650.453412	9899.000000
1652.324565	9895.000000
1654.193516	9536.000000
1656.063852	9718.000000
1657.930196	9650.000000
1659.797925	9102.000000
1661.663455	9202.000000
1663.530371	9134.000000
1665.393298	9014.000000
1667.257610	8935.000000
1669.119726	8938.000000
1670.981437	8590.000000
1672.844534	8386.000000
1674.705435	8459.000000
1676.564144	8219.000000
1678.422449	8030.000000
1680.282139	7892.000000
1682.136061	7556.000000
1683.993157	7770.000000
1685.849850	7474.000000
1687.702566	7488.000000
1689.558454	7249.000000
1691.410368	7001.000000
1693.261881	7106.000000
1695.112993	6862.000000
1696.963705	6550.000000
1698.814016	6575.000000
1700.662142	6429.000000
1702.511653	6308.000000
1704.355415	6183.000000
1706.204126	6026.000000
1708.047091	5916.000000
1709.893223	6006.000000
1711.735392	5773.000000
1713.580727	5723.000000
1715.420321	5354.000000
1717.261299	5297.000000
1719.103660	5237.000000
1720.942065	5287.000000
1722.781853	5156.000000
1724.619466	5028.000000
1726.456683	4931.000000
1728.291727	4794.000000
1730.128154	4876.000000
1731.962409	4659.000000
1733.796269	4655.000000
1735.629735	4673.000000
1737.459256	4424.000000
1739.291935	4381.000000
1741.120670	4320.000000
1742.952562	4396.000000
1744.780512	4471.000000
1746.608071	4345.000000
1748.435237	4165.000000
1750.262012	4337.000000
1752.088395	4096.000000
1753.910842	4143.000000
1755.736444	3999.000000
1757.558111	3960.000000
1759.381160	4045.000000
1761.202047	3981.000000
1763.022546	3854.000000
1764.844426	3835.000000
1766.660606	3785.000000
1768.479938	3834.000000
1770.295343	3783.000000
1772.113898	3738.000000
1773.928528	3766.000000
1775.742771	3673.000000
1777.556628	3672.000000
1779.370098	3624.000000
1781.181415	3702.000000
1782.994112	3734.000000
1784.806424	3705.000000
1786.614818	3561.000000
1788.424592	3502.000000
1790.230452	3542.000000
1792.039457	3494.000000
1793.844549	3480.000000
1795.651022	3543.000000
1797.457111	3462.000000
1799.259289	3421.000000
1801.064612	3448.000000
1802.866026	3389.000000
1804.668820	3436.000000
1806.467708	3407.000000
1808.267977	3330.000000
1810.067864	3383.000000
1811.865609	3235.000000
1813.662974	3315.000000
1815.459959	3342.000000
1817.256563	3281.000000
1819.051028	3400.000000
1820.846872	3144.000000
1822.637061	3216.000000
1824.432147	3174.000000
1826.221581	3247.000000
1828.014151	3235.000000
1829.804586	3323.000000
1831.592887	2996.000000
1833.384323	3364.000000
1835.170113	3180.000000
1836.957283	3182.000000
1838.742321	3228.000000
1840.530493	3151.000000
1842.314779	3138.000000
1844.096935	3111.000000
1845.880471	3156.000000
1847.661878	3141.000000
1849.444664	3112.000000
1851.223569	3076.000000
1853.003854	3132.000000
1854.782012	3165.000000
1856.561549	3231.000000
1858.338961	3267.000000
1860.114249	3119.000000
1861.890915	3139.000000
1863.665459	3201.000000
1865.441381	3271.000000
1867.211682	3198.000000
1868.985111	3157.000000
1870.756420	3192.000000
1872.527358	3013.000000
1874.299674	3136.000000
1876.066376	3210.000000
1877.836204	3129.000000
1879.602168	3123.000000
1881.371255	3077.000000
1883.136481	3143.000000
1884.901339	3112.000000
1886.667574	3131.000000
1888.429950	3148.000000
1890.191959	3166.000000
1891.953600	3238.000000
1893.714875	3105.000000
1895.475782	3078.000000
1897.236323	3047.000000
1898.994754	2899.000000
1900.752819	3082.000000
1902.508777	3111.000000
1904.266111	3098.000000
1906.023080	3130.000000
1907.777942	3106.000000
1909.530700	3068.000000
1911.283093	3103.000000
1913.036863	3098.000000
1914.788529	3086.000000
1916.538093	3019.000000
1918.289032	3167.000000
1920.039609	3118.000000
1921.786346	3048.000000
1923.534460	3084.000000
1925.280474	3148.000000
1927.027863	3156.000000
1928.773155	3078.000000
1930.516349	3082.000000
1932.260918	3089.000000
1934.003392	3153.000000
1935.745505	3145.000000
1937.487258	3249.000000
1939.228652	3172.000000
1940.967951	3113.000000
1942.706892	3281.000000
1944.445474	3121.000000
1946.181965	3189.000000
1947.918098	3197.000000
1949.655605	3205.000000
1951.389290	3195.000000
1953.124350	3254.000000
1954.857321	3287.000000
1956.589936	3229.000000
1958.322195	3277.000000
1960.054097	3109.000000
1961.783913	3196.000000
1963.511644	3106.000000
1965.240750	3219.000000
1966.969501	3400.000000
1968.696168	3343.000000
1970.422481	3309.000000
1972.150167	3410.000000
1973.872317	3355.000000
1975.597568	3425.000000
1977.319012	3341.000000
1979.043557	3445.000000
1980.766021	3436.000000
1982.484683	3372.000000
1984.206443	3376.000000
1985.924401	3551.000000
1987.643732	3294.000000
1989.359264	3379.000000
1991.079616	3511.000000
1992.796170	3601.000000
1994.508927	3490.000000
1996.224780	3478.000000
1997.938561	3400.000000
1999.651992	3482.000000
2001.363352	3565.000000
2003.076084	3453.000000
2004.785026	3586.000000
2006.497060	3692.000000
2008.203586	3468.000000
2009.913203	3675.000000
2011.620754	3632.000000
2013.327956	3555.000000
2015.033093	3691.000000
2016.737884	3711.000000
2018.444046	3519.000000
2020.146426	3618.000000
2021.850177	3599.000000
2023.551866	3572.000000
2025.253210	3694.000000
2026.954208	3712.000000
2028.653145	3794.000000
2030.353454	3712.000000
2032.049988	3695.000000
2033.747893	3830.000000
2035.443739	3883.000000
2037.142671	3861.000000
2038.836117	3843.000000
2040.530934	3762.000000
2042.225409	3732.000000
2043.916115	3778.000000
2045.609905	3927.000000
2047.299928	3894.000000
2048.991322	3896.000000
2050.680663	3838.000000
2052.371374	3832.000000
2054.058322	3862.000000
2055.744931	3722.000000
2057.432909	3826.000000
2059.117128	3754.000000
2060.802718	3788.000000
2062.487968	3970.000000
2064.171170	3860.000000
2065.855741	3964.000000
2067.534850	3961.000000
2069.218744	3975.000000
2070.897177	3853.000000
2072.578688	3811.000000
2074.256447	3865.000000
2075.933870	3921.000000
2077.612662	3902.000000
2079.289412	3919.000000
2080.964120	3906.000000
2082.640197	3837.000000
2084.314234	4029.000000
2085.987935	4094.000000
2087.661301	3938.000000
2089.332628	3872.000000
2091.003622	4067.000000
2092.674280	3944.000000
2094.344605	3807.000000
2096.014596	3964.000000
2097.682551	3833.000000
2099.350173	3932.000000
2101.015760	3973.000000
2102.682716	4034.000000
2104.347639	3874.000000
2106.012230	4031.000000
2107.674789	4050.000000
2109.338716	4002.000000
2111.000612	4019.000000
2112.662178	4010.000000
2114.323412	3934.000000
2115.982618	3988.000000
2117.641493	3984.000000
2119.300039	3971.000000
2120.958255	3989.000000
2122.612747	4092.000000
2124.270304	3988.000000
2125.927532	4031.000000
2127.581038	3976.000000
2129.235912	4014.000000
2130.887067	4068.000000
2132.541285	3849.000000
2134.191786	3922.000000
2135.843653	4001.000000
2137.490112	4002.000000
2139.141326	3961.000000
2140.788826	3903.000000
2142.437693	3920.000000
2144.084541	3951.000000
2145.731064	3972.000000
2147.377261	3899.000000
2149.019750	3898.000000
2150.665297	3877.000000
2152.307137	3851.000000
2153.952034	3907.000000
2155.593226	3981.000000
2157.234094	3870.000000
2158.874638	3760.000000
2160.513170	3788.000000
2162.153068	3748.000000
2163.789266	3869.000000
2165.426830	3708.000000
2167.064072	3672.000000
2168.699304	3761.000000
2170.334215	3863.000000
2171.968804	3721.000000
2173.603071	3696.000000
2175.233645	3731.000000
2176.867271	3773.000000
2178.497205	3568.000000
2180.128504	3549.000000
2181.757798	3803.000000
2183.386773	3714.000000
2185.015428	3687.000000
2186.643764	3516.000000
2188.270098	3660.000000
2189.896113	3518.000000
2191.520126	3618.000000
2193.145505	3502.000000
2194.768883	3465.000000
2196.393626	3562.000000
2198.014688	3372.000000
2199.635433	3460.000000
2201.257543	3434.000000
2202.877655	3435.000000
2204.495770	3474.000000
2206.113570	3366.000000
2207.731055	3469.000000
2209.348224	3314.000000
2210.965078	3348.000000
2212.581616	3381.000000
2214.196162	3306.000000
2215.808715	3467.000000
2217.422632	3414.000000
2219.034558	3379.000000
2220.647847	3336.000000
2222.259146	3320.000000
2223.868455	3286.000000
2225.479128	3270.000000
2227.087812	3318.000000
2228.696183	3339.000000
2230.302568	3331.000000
2231.910316	3351.000000
2233.516077	3250.000000
2235.121527	3218.000000
2236.724992	3150.000000
2238.329820	3190.000000
2239.932664	3190.000000
2241.533525	3237.000000
2243.135749	3016.000000
2244.735991	3063.000000
2246.337595	3154.000000
2247.935547	3183.000000
2249.534860	3094.000000
2251.132194	3096.000000
2252.729220	3053.000000
2254.327608	3110.000000
2255.922347	3111.000000
2257.515109	3161.000000
2259.109234	3055.000000
2260.704720	2957.000000
2262.296561	2988.000000
2263.888096	2988.000000
2265.480993	3049.000000
2267.068580	2906.000000
2268.660863	3023.000000
2270.247840	3050.000000
2271.837844	2979.000000
2273.422544	2913.000000
2275.011938	2928.000000
2276.596030	2868.000000
2278.181483	2798.000000
2279.764966	2922.000000
2281.351475	2749.000000
2282.934351	2752.000000
2284.516924	2861.000000
2286.099193	2745.000000
2287.677832	2948.000000
2289.259496	2727.000000
2290.837531	2659.000000
2292.418589	2903.000000
2293.996020	2811.000000
2295.571488	2719.000000
2297.149978	2739.000000
2298.724844	2612.000000
2300.299409	2742.000000
2301.873674	2633.000000
2303.447638	2587.000000
2305.021301	2572.000000
2306.594665	2701.000000
2308.164410	2657.000000
2309.733856	2592.000000
2311.306320	2648.000000
2312.873510	2621.000000
2314.443718	2625.000000
2316.010311	2553.000000
2317.578264	2649.000000
2319.144261	2503.000000
2320.709961	2647.000000
2322.275363	2586.000000
2323.838812	2539.000000
2325.403620	2632.000000
2326.964820	2608.000000
2328.529034	2762.000000
2330.087986	2703.000000
2331.649953	2718.000000
2333.209968	2522.000000
2334.769689	2609.000000
2336.327460	2549.000000
2337.884936	2579.000000
2339.442118	2453.000000
2340.997352	2376.000000
2342.552293	2545.000000
2344.106939	2382.000000
2345.661292	2578.000000
2347.215352	2414.000000
2348.769117	2528.000000
2350.320939	2457.000000
2351.870817	2459.000000
2353.423703	2448.000000
2354.971347	2359.000000
2356.521998	2567.000000
2358.069058	2427.000000
2359.617476	2461.000000
2361.165603	2385.000000
2362.710141	2343.000000
2364.256037	2356.000000
2365.799995	2416.000000
2367.345310	2315.000000
2368.887040	2338.000000
2370.430127	2304.000000
2371.971278	2409.000000
2373.512140	2325.000000
2375.052713	2309.000000
2376.592997	2301.000000
2378.132992	2323.000000
2379.669409	2327.000000
2381.208827	2225.000000
2382.744668	2351.000000
2384.281865	2331.000000
2385.815487	2302.000000
2387.352109	2336.000000
2388.886801	2241.000000
2390.419563	2320.000000
2391.952038	2196.000000
2393.482585	2272.000000
2395.016130	2123.000000
2396.544464	2210.000000
2398.074155	2250.000000
2399.603559	2127.000000
2401.132679	2087.000000
2402.661514	2292.000000
2404.185143	2203.000000
2405.713408	2294.000000
2407.236471	2190.000000
2408.764167	2217.000000
2410.285024	2181.000000
2411.810514	2230.000000
2413.332443	2167.000000
2414.855728	2174.000000
2416.377091	2121.000000
2417.896535	2234.000000
2419.417335	2212.000000
2420.936215	2195.000000
2422.454813	2181.000000
2423.971494	2152.000000
2425.489529	2103.000000
2427.007283	2211.000000
2428.521486	2178.000000
2430.035408	2136.000000
2431.549050	2101.000000
2433.064047	2142.000000
2434.575495	1958.000000
2436.088298	2124.000000
2437.599187	2095.000000
2439.109798	2097.000000
2440.618497	2039.000000
2442.130182	2088.000000
2443.638324	2036.000000
2445.146188	2084.000000
2446.653774	2157.000000
2448.157819	2099.000000
2449.664849	2022.000000
2451.169972	2069.000000
2452.674816	1981.000000
2454.177754	1986.000000
2455.680416	2052.000000
2457.182801	2074.000000
2458.683281	1969.000000
2460.185114	2000.000000
2461.685042	1851.000000
2463.184695	2075.000000
2464.684073	2049.000000
2466.181548	1972.000000
2467.677121	2041.000000
2469.175674	1971.000000
2470.670699	2036.000000
2472.167076	2055.000000
2473.659927	1916.000000
2475.154131	2021.000000
2476.648061	1886.000000
2478.138467	1885.000000
2479.631851	1974.000000
2481.123337	1987.000000
2482.612926	1923.000000
2484.102243	1848.000000
2485.589664	1959.000000
2487.080061	1904.000000
2488.566940	1922.000000
2490.055170	1963.000000
2491.539884	2040.000000
2493.024327	1902.000000
2494.510121	1858.000000
2495.994024	1938.000000
2497.479277	1966.000000
2498.959397	1815.000000
2500.442490	1939.000000
2501.923692	1968.000000
2503.404625	1857.000000
2504.883669	1864.000000
2506.362444	1864.000000
2507.840951	1857.000000
2509.319190	1954.000000
2510.797160	1861.000000
2512.271625	1928.000000
2513.749060	1837.000000
2515.222991	1973.000000
2516.698272	1980.000000
2518.173286	1903.000000
2519.644800	1887.000000
2521.117663	1831.000000
2522.588644	1892.000000
2524.060975	1907.000000
2525.528192	1904.000000
2526.998376	1926.000000
2528.466679	1856.000000
2529.934717	1915.000000
2531.402490	1901.000000
2532.869998	1958.000000
2534.337241	1940.000000
2535.800992	1851.000000
2537.266093	1827.000000
2538.729317	1807.000000
2540.193891	1858.000000
2541.654975	1831.000000
2543.117409	1865.000000
2544.579580	1814.000000
2546.038265	1855.000000
2547.501522	1845.000000
2548.959682	1842.000000
2550.419191	1801.000000
2551.873606	1862.000000
2553.332592	1908.000000
2554.789706	1783.000000
2556.244949	1901.000000
2557.699931	1817.000000
2559.153043	1807.000000
2560.607504	1873.000000
2562.060095	1852.000000
2563.512427	1911.000000
2564.962892	1809.000000
2566.416312	1881.000000
2567.864650	1861.000000
2569.315944	1853.000000
2570.765371	1714.000000
2572.211326	1789.000000
2573.660236	1785.000000
2575.105676	1832.000000
2576.552463	1827.000000
2577.997388	1782.000000
2579.442054	1751.000000
2580.888068	1846.000000
2582.330616	1801.000000
2583.774511	1773.000000
2585.214941	1773.000000
2586.656718	1794.000000
2588.096636	1678.000000
2589.537901	1769.000000
2590.975704	1809.000000
2592.416457	1862.000000
2593.852148	1814.000000
2595.290788	1794.000000
2596.727570	1771.000000
2598.162497	1877.000000
2599.600371	1721.000000
2601.033188	1774.000000
2602.467352	1844.000000
2603.899662	1876.000000
2605.333318	1807.000000
2606.765121	1862.000000
2608.196670	1811.000000
2609.627967	1827.000000
2611.057411	1872.000000
2612.486603	1823.000000
2613.913945	1822.000000
2615.342632	1848.000000
2616.771068	1878.000000
2618.196056	1791.000000
2619.622391	1740.000000
2621.046877	1916.000000
2622.472709	1832.000000
2623.895097	1676.000000
2625.318831	1752.000000
2626.740718	1871.000000
2628.162356	1816.000000
2629.582148	1747.000000
2631.003286	1782.000000
2632.424174	1807.000000
2633.841624	1702.000000
2635.262013	1873.000000
2636.678965	1722.000000
2638.095668	1790.000000
2639.512123	1750.000000
2640.928330	1784.000000
2642.344289	1885.000000
2643.758407	1782.000000
2645.172277	1862.000000
2646.584309	1838.000000
2647.997684	1750.000000
2649.407630	1849.000000
2650.820512	1729.000000
2652.229965	1830.000000
2653.639172	1808.000000
2655.046543	1788.000000
2656.456848	1849.000000
2657.865318	1863.000000
2659.271952	1793.000000
2660.678341	1803.000000
2662.082896	1766.000000
2663.488795	1759.000000
2664.892861	1702.000000
2666.296682	1791.000000
2667.700259	1874.000000
2669.102005	1846.000000
2670.505094	1788.000000
2671.904765	1796.000000
2673.305780	1800.000000
2674.703379	1908.000000
2676.103908	1985.000000
2677.501021	1811.000000
2678.899479	1857.000000
2680.296108	1871.000000
2681.692495	1768.000000
2683.088640	1864.000000
2684.482960	1914.000000
2685.878621	1847.000000
2687.270874	1958.000000
2688.664469	1915.000000
2690.056240	1868.000000
2691.449354	1844.000000
2692.840644	1766.000000
2694.230111	1952.000000
2695.619338	1894.000000
2697.008326	1825.000000
2698.398655	1850.000000
2699.784001	1910.000000
2701.172270	1840.000000
2702.558719	1860.000000
2703.944929	1889.000000
2705.330900	1906.000000
2706.713473	1772.000000
2708.097388	1975.000000
2709.481065	1896.000000
2710.864503	1964.000000
2712.244547	1908.000000
2713.625931	1955.000000
2715.005501	1910.000000
2716.386411	1967.000000
2717.765507	2043.000000
2719.142789	1957.000000
2720.521412	2020.000000
2721.898222	2030.000000
2723.274795	2102.000000
2724.651133	1976.000000
2726.025660	2073.000000
2727.401527	1979.000000
2728.774007	2101.000000
2730.149403	2038.000000
2731.519839	2022.000000
2732.891616	2036.000000
2734.263158	2078.000000
2735.632892	2030.000000
2737.003967	2013.000000
2738.373233	2096.000000
2739.742266	1979.000000
2741.109493	2092.000000
2742.476487	2080.000000
2743.843247	2071.000000
2745.209776	2101.000000
2746.574499	2115.000000
2747.938990	2055.000000
2749.303250	2191.000000
2750.667277	2248.000000
2752.031073	2143.000000
2753.391495	2228.000000
2754.754827	2204.000000
2756.113217	2308.000000
2757.474517	2293.000000
2758.832447	2166.000000
2760.193285	2175.000000
2761.552324	2214.000000
2762.907994	2311.000000
2764.266572	2313.000000
2765.621783	2364.000000
2766.976765	2090.000000
2768.329951	2338.000000
2769.686043	2236.000000
2771.038770	2309.000000
2772.391270	2381.000000
2773.743541	2366.000000
2775.097151	2342.000000
2776.447399	2351.000000
2777.795853	2335.000000
2779.147213	2360.000000
2780.495213	2240.000000
2781.844551	2390.000000
2783.192098	2520.000000
2784.539417	2370.000000
2785.886510	2340.000000
2787.231812	2389.000000
2788.576887	2369.000000
2789.921737	2539.000000
2791.266361	2396.000000
2792.607633	2549.000000
2793.950243	2495.000000
2795.292627	2532.000000
2796.634786	2574.000000
2797.973597	2715.000000
2799.315306	2549.000000
2800.653668	2599.000000
2801.993366	2574.000000
2803.331280	2674.000000
2804.667409	2540.000000
2806.003314	2630.000000
2807.340557	2650.000000
2808.676016	2656.000000
2810.011252	2564.000000
2811.344705	2767.000000
2812.679495	2685.000000
2814.010945	2742.000000
2815.345290	2785.000000
2816.674737	2741.000000
2818.005521	2742.000000
2819.336083	2855.000000
2820.664866	2858.000000
2821.994985	2904.000000
2823.323326	2987.000000
2824.651446	3042.000000
2825.977788	2996.000000
2827.305467	2932.000000
2828.629812	3046.000000
2829.955494	2949.000000
2831.279400	2970.000000
2832.603087	3101.000000
2833.928109	3148.000000
2835.249801	3056.000000
2836.571275	3119.000000
2837.892530	3276.000000
2839.213566	3137.000000
2840.532829	3237.000000
2841.853428	3274.000000
2843.172256	3304.000000
2844.490865	3305.000000
2845.807703	3246.000000
2847.124324	3365.000000
2848.440728	3362.000000
2849.755362	3436.000000
2851.071332	3418.000000
2852.383981	3433.000000
2853.697965	3510.000000
2855.011733	3493.000000
2856.325285	3519.000000
2857.637069	3567.000000
2858.947087	3585.000000
2860.258440	3705.000000
2861.566478	3763.000000
2862.875850	3618.000000
2864.185008	3668.000000
2865.493950	3761.000000
2866.801128	4008.000000
2868.106544	3934.000000
2869.413294	3902.000000
2870.718281	3977.000000
2872.023055	3985.000000
2873.326067	4121.000000
2874.631960	4306.000000
2875.932999	4230.000000
2877.235372	4215.000000
2878.535985	4297.000000
2879.837932	4323.000000
2881.139666	4606.000000
2882.438095	4516.000000
2883.737858	4502.000000
2885.035864	4470.000000
2886.333658	4584.000000
2887.629696	4640.000000
2888.927067	4735.000000
2890.222682	4800.000000
2891.518086	4800.000000
2892.813279	4747.000000
2894.105175	4763.000000
2895.399947	4940.000000
2896.691422	4977.000000
2897.984230	5055.000000
2899.276828	5078.000000
2900.566132	5111.000000
2901.856768	5108.000000
2903.145653	5319.000000
2904.435870	5192.000000
2905.722796	5414.000000
2907.011054	5494.000000
2908.297563	5557.000000
2909.583864	5646.000000
2910.869956	5823.000000
2912.154300	5714.000000
2913.441515	5716.000000
2914.723904	5905.000000
2916.007625	5862.000000
2917.289600	5994.000000
2918.571367	6184.000000
2919.851390	6025.000000
2921.134282	6238.000000
2922.415429	6082.000000
2923.693294	6252.000000
2924.974028	6401.000000
2926.251481	6340.000000
2927.528728	6557.000000
2928.804233	6464.000000
2930.082606	6536.000000
2931.356165	6737.000000
2932.632591	6728.000000
2933.907276	6680.000000
2935.180220	6886.000000
2936.454496	7029.000000
2937.727032	7087.000000
2938.999363	7277.000000
2940.268422	7420.000000
2941.540346	7444.000000
2942.810532	7569.000000
2944.080514	7722.000000
2945.350293	7777.000000
2946.618336	7595.000000
2947.884642	7894.000000
2949.150747	8014.000000
2950.418181	7771.000000
2951.683881	7961.000000
2952.949378	8082.000000
2954.214673	8318.000000
2955.476703	8114.000000
2956.740063	8407.000000
2958.003222	8553.000000
2959.264649	8618.000000
2960.527405	8805.000000
2961.788429	8796.000000
2963.047723	8796.000000
2964.306817	8969.000000
2965.565710	9014.000000
2966.824403	9351.000000
2968.082896	9246.000000
2969.339660	9653.000000
2970.596224	9679.000000
2971.851061	9716.000000
2973.107226	10072.000000
2974.360137	10092.000000
2975.614377	10177.000000
2976.868418	10307.000000
2978.120733	10359.000000
2979.372849	10759.000000
2980.623241	10885.000000
2981.876488	11065.000000
2983.124958	10956.000000
2984.376283	11189.000000
2985.624358	11326.000000
2986.872237	11674.000000
2988.119918	11805.000000
2989.367402	11603.000000
2990.613165	11845.000000
2991.858732	12154.000000
2993.105626	12267.000000
2994.349276	12559.000000
2995.594254	12556.000000
2996.835988	12835.000000
2998.080574	12849.000000
2999.323441	13044.000000
3000.563067	13078.000000
3001.805543	13369.000000
3003.044779	13482.000000
3004.285343	13659.000000
3005.524191	14086.000000
3006.762843	14342.000000
3007.999781	14059.000000
3009.238045	14614.000000
3010.474594	14888.000000
3011.710950	14946.000000
3012.947112	15112.000000
3014.181560	14942.000000
3015.415816	15327.000000
3016.649878	15429.000000
3017.882228	15950.000000
3019.112866	16345.000000
3020.346350	16487.000000
3021.578122	16768.000000
3022.808184	16957.000000
3024.038054	17334.000000
3025.266214	17233.000000
3026.495700	17506.000000
3027.723477	17886.000000
3028.951064	18182.000000
3030.179976	17849.000000
3031.404146	18953.000000
3032.631159	18740.000000
3033.854948	19350.000000
3035.080064	19513.000000
3036.303473	20020.000000
3037.526692	19989.000000
3038.748206	20441.000000
3039.972561	20177.000000
3041.192181	21240.000000
3042.413127	21546.000000
3043.633884	21781.000000
3044.852937	21797.000000
3046.073316	21988.000000
3047.290477	22369.000000
3048.508965	23058.000000
3049.725750	23451.000000
3050.942348	23651.000000
3052.158757	23824.000000
3053.371954	23965.000000
3054.587988	24513.000000
3055.800810	24465.000000
3057.016469	25098.000000
3058.227405	25355.000000
3059.439666	26007.000000
3060.651741	26155.000000
3061.863628	26249.000000
3063.073819	26700.000000
3064.283823	27230.000000
3065.493641	27552.000000
3066.701763	28086.000000
3067.909700	28161.000000
3069.115941	28600.000000
3070.323507	29316.000000
3071.529378	29522.000000
3072.735065	29728.000000
3073.940566	30517.000000
3075.144374	30457.000000
3076.349506	31176.000000
3077.552946	32044.000000
3078.754693	32287.000000
3079.956256	32380.000000
3081.157636	33357.000000
3082.358832	33581.000000
3083.558338	33880.000000
3084.757661	34286.000000
3085.958307	34905.000000
3087.157263	35153.000000
3088.353025	35819.000000
3089.551616	36461.000000
3090.747013	36494.000000
3091.943733	37787.000000
3093.137261	37297.000000
3094.333617	38059.000000
3095.528287	38261.000000
3096.719766	39532.000000
3097.915576	39648.000000
3099.106693	39812.000000
3100.299132	40406.000000
3101.488384	40947.000000
3102.680461	41135.000000
3103.870855	42181.000000
3105.058063	42581.000000
3106.246594	43190.000000
3107.436446	43584.000000
3108.623115	44120.000000
3109.809604	44553.000000
3110.995913	45251.000000
3112.183544	45775.000000
3113.367993	46045.000000
3114.550763	45928.000000
3115.736355	46326.000000
3116.920268	47076.000000
3118.102502	48354.000000
3119.284557	48423.000000
3120.466434	49325.000000
3121.648133	49757.000000
3122.828155	49883.000000
3124.006500	50360.000000
3125.187665	51309.000000
3126.365656	51253.000000
3127.543469	52339.000000
3128.721105	52256.000000
3129.897066	52951.000000
3131.072850	53359.000000
3132.249956	54419.000000
3133.425387	54818.000000
3134.599145	54963.000000
3135.771230	55520.000000
3136.944637	55911.000000
3138.117867	56766.000000
3139.289426	57100.000000
3140.462305	57616.000000
3141.632017	57779.000000
3142.803050	58310.000000
3143.972413	58990.000000
3145.140105	58966.000000
3146.310614	59377.000000
3147.476463	60164.000000
3148.646621	60118.000000
3149.812123	60518.000000
3150.977450	60596.000000
3152.142605	61073.000000
3153.307585	61567.000000
3154.473885	61674.000000
3155.635533	62060.000000
3156.798500	61861.000000
3157.961295	62099.000000
3159.123917	62374.000000
3160.284874	62434.000000
3161.445658	62900.000000
3162.606270	62873.000000
3163.765218	63154.000000
3164.923995	63262.000000
3166.082600	63724.000000
3167.241033	63625.000000
3168.399294	64265.000000
3169.555893	64486.000000
3170.710831	64535.000000
3171.867088	64339.000000
3173.021684	64467.000000
3174.176110	64516.000000
3175.328876	64485.000000
3176.481472	64542.000000
3177.633897	64503.000000
3178.786153	64492.000000
3179.938238	64534.000000
3181.087178	64475.000000
3182.238924	64519.000000
3183.389012	64476.000000
3184.537444	64450.000000
3185.685706	64512.000000
3186.833800	64512.000000
3187.981725	64540.000000
3189.127994	64446.000000
3190.274096	64522.000000
3191.418542	64522.000000
3192.562821	64519.000000
3193.706932	64496.000000
3194.852360	64516.000000
3195.994650	64481.000000
3197.136773	64508.000000
3198.278728	64488.000000
3199.420516	64441.000000
3200.562137	64486.000000
3201.700623	64491.000000
3202.840426	64534.000000
3203.981547	64499.000000
3205.119533	64525.000000
3206.255870	64482.000000
3207.392041	64470.000000
3208.529529	64470.000000
3209.665369	64486.000000
3210.802526	64497.000000
3211.935070	64489.000000
3213.071896	64502.000000
3214.204110	64499.000000
3215.337641	64550.000000
3216.471008	64471.000000
3217.601247	64509.000000
3218.734284	64487.000000
3219.864195	64438.000000
3220.995422	64417.000000
3222.123525	64468.000000
3223.254424	64497.000000
3224.383679	64546.000000
3225.511291	64491.000000
3226.635780	64487.000000
3227.764545	64488.000000
3228.890188	64461.000000
3230.015669	64449.000000
3231.139508	64488.000000
3232.266141	64494.000000
3233.388177	64501.000000
3234.511529	64477.000000
3235.634719	64467.000000
3236.757747	64482.000000
3237.879135	64516.000000
3239.000361	64477.000000
3240.119950	64521.000000
3241.239377	64528.000000
3242.357166	64536.000000
3243.477747	64500.000000
3244.595215	64499.000000
3245.712522	64523.000000
3246.829669	64377.000000
3247.945180	64474.000000
3249.062005	64541.000000
3250.175721	64498.000000
3251.292226	64476.000000
3252.407097	64471.000000
3253.518859	64492.000000
3254.630461	64489.000000
3255.743379	64524.000000
3256.856137	64504.000000
3257.965789	64470.000000
3259.076756	64508.000000
3260.187564	64549.000000
3261.296740	64484.000000
3262.404286	64427.000000
3263.513145	64493.000000
3264.621847	64531.000000
3265.727446	64529.000000
3266.834359	64427.000000
3267.939643	64210.000000
3269.046241	64471.000000
3270.149739	64514.000000
3271.254552	64493.000000
3272.359207	64462.000000
3273.460763	64404.000000
3274.562163	64452.000000
3275.664878	64518.000000
3276.767435	64513.000000
3277.866896	64514.000000
3278.969141	64480.000000
3280.068290	64497.000000
3281.165815	64433.000000
3282.263184	64473.000000
3283.363335	64497.000000
3284.460394	64493.000000
3285.557297	64479.000000
3286.654045	64467.000000
3287.746235	64543.000000
3288.842673	64499.000000
3289.937489	64409.000000
3291.032151	64504.000000
3292.125191	64458.000000
3293.218077	64576.000000
3294.309342	64494.000000
3295.401919	64539.000000
3296.492877	64454.000000
3297.582215	64490.000000
3298.671400	64510.000000
3299.761898	64540.000000
3300.849311	64412.000000
3301.936571	64502.000000
3303.025144	64483.000000
3304.113565	64538.000000
3305.197438	64474.000000
3306.285553	64513.000000
3307.370587	64539.000000
3308.454004	64482.000000
3309.538734	64469.000000
3310.621849	64512.000000
3311.706275	64497.000000
3312.787623	64510.000000
3313.870283	64521.000000
3314.951329	64501.000000
3316.032224	64498.000000
3317.111505	64531.000000
3318.190636	64507.000000
3319.271079	64505.000000
3320.348447	64475.000000
3321.427127	64516.000000
3322.504195	64506.000000
3323.581114	64546.000000
3324.656421	64491.000000
3325.731579	64592.000000
3326.808048	64526.000000
3327.881447	64510.000000
3328.954697	64525.000000
3330.029257	64520.000000
3331.102209	64536.000000
3332.173552	64556.000000
3333.246206	64535.000000
3334.315794	64489.000000
3335.386692	64518.000000
3336.455983	64497.000000
3337.526585	64520.000000
3338.595580	64538.000000
3339.662969	64513.000000
3340.728753	64512.000000
3341.798763	64473.000000
3342.865710	64511.000000
3343.929595	64451.000000
3344.996248	64549.000000
3346.061296	64496.000000
3347.124741	64359.000000
3348.188040	64518.000000
3349.251192	64546.000000
3350.314198	64537.000000
3351.377058	64531.000000
3352.438316	64564.000000
3353.496517	64550.000000
3354.558938	64511.000000
3355.618304	64519.000000
3356.677524	64430.000000
3357.738054	64573.000000
3358.794074	64487.000000
3359.852858	64520.000000
3360.907135	64526.000000
3361.964176	64544.000000
3363.019618	64575.000000
3364.076370	64544.000000
3365.131523	64550.000000
3366.185079	64572.000000
3367.237039	64482.000000
3368.291760	64542.000000
3369.343432	64516.000000
3370.394961	64478.000000
3371.447798	64492.000000
3372.497588	64578.000000
3373.548687	64557.000000
3374.596740	64565.000000
3375.647552	64531.000000
3376.695320	64525.000000
3377.742945	64503.000000
3378.790427	64567.000000
3379.836317	64337.000000
3380.883515	64508.000000
3381.927671	64531.000000
3382.974585	64518.000000
3384.019907	64456.000000
3385.062188	64533.000000
3386.104329	64514.000000
3387.147777	64566.000000
3388.191084	64491.000000
3389.232802	64545.000000
3390.274378	64491.000000
3391.315814	64528.000000
3392.355660	64545.000000
3393.393918	64520.000000
3394.433484	64527.000000
3395.472910	64502.000000
3396.510748	64510.000000
3397.546999	64573.000000
3398.583111	64496.000000
3399.620530	64566.000000
3400.654916	64525.000000
3401.690609	64550.000000
3402.726163	64527.000000
3403.758686	64541.000000
3404.793962	64531.000000
3405.826207	64533.000000
3406.858314	64589.000000
3407.888837	64508.000000
3408.920667	64557.000000
3409.952359	64482.000000
3410.981023	64465.000000
3412.009550	64559.000000
3413.039383	64556.000000
3414.069079	64529.000000
3415.095749	64459.000000
3416.123726	64501.000000
3417.148678	64514.000000
3418.176380	64553.000000
3419.201059	64531.000000
3420.227044	64492.000000
3421.251449	64499.000000
3422.275718	64524.000000
3423.298408	64579.000000
3424.320962	64522.000000
3425.344822	64440.000000
3426.365662	64522.000000
3427.386366	64540.000000
3428.408377	64568.000000
3429.427369	64547.000000
3430.446226	64553.000000
3431.466388	64475.000000
3432.483534	64561.000000
