-116.707459	12.666667
-114.037859	55.666667
-111.371194	10.333333
-108.705281	29.333333
-106.042300	17.333333
-103.377890	35.000000
-100.716410	34.666667
-98.053501	18.666667
-95.395698	31.000000
-92.736466	29.333333
-90.077982	2.000000
-87.422422	10.000000
-84.765434	28.666667
-82.113544	1.666667
-79.460224	15.000000
-76.809823	5.333333
-74.157993	26.666667
-71.511254	55.333333
-68.863086	-1.333333
-66.215660	-7.666667
-63.571148	3.000000
-60.925208	43.000000
-58.284349	1.666667
-55.642061	42.666667
-53.002682	26.333333
-50.361873	14.333333
-47.721805	26.333333
-45.086809	-11.666667
-42.450385	36.666667
-39.816863	29.000000
-37.181913	22.666667
-34.552028	6.333333
-31.918551	10.000000
-29.290136	51.333333
-26.662455	18.666667
-24.033345	38.000000
-21.409292	6.333333
-18.781650	43.000000
-16.159061	-6.333333
-13.537204	54.666667
-10.916077	56.666667
-8.295680	120.666667
-5.678172	368.333333
-3.059235	1010.000000
-0.443183	2441.333333
2.172140	2472.000000
4.786736	1087.333333
7.398449	113.000000
10.011591	23.000000
12.619699	51.666667
15.231389	10.333333
17.838048	-30.333333
20.446135	29.666667
23.053498	6.000000
25.655836	17.000000
28.261752	39.000000
30.862646	32.333333
33.464968	53.666667
36.062273	3.000000
38.663153	34.000000
41.259018	12.333333
43.856312	68.000000
46.452886	1.666667
49.044451	40.666667
51.637444	10.333333
54.227576	36.333333
56.819136	18.666667
59.407836	58.000000
61.997963	12.666667
64.583091	40.666667
67.169647	58.333333
69.755489	40.000000
72.338477	44.000000
74.922891	91.000000
77.500177	17.333333
80.081029	52.666667
82.659032	28.666667
85.236325	77.666667
87.815044	32.333333
90.388781	66.333333
92.963946	37.333333
95.536267	95.333333
98.107880	63.333333
100.676653	53.333333
103.246853	85.000000
105.814215	90.000000
108.383002	63.000000
110.948953	110.333333
113.512069	92.000000
116.078741	130.000000
118.636192	224.333333
121.199328	262.333333
123.757504	389.666667
126.319235	599.666667
128.876009	871.333333
131.434210	1323.000000
133.987457	1836.000000
136.540007	2643.000000
139.096107	3716.333333
141.647259	4715.333333
144.197714	5850.333333
146.747471	6498.666667
149.294409	7120.333333
151.840652	7358.000000
154.388320	7419.666667
156.935292	7626.333333
159.477329	7542.333333
162.018672	7541.000000
164.559322	7473.666667
167.101398	7362.333333
169.640662	7302.000000
172.177118	7347.333333
174.712882	7285.333333
177.250072	7335.333333
179.786571	7347.666667
182.320264	7379.666667
184.851153	7228.333333
187.381355	7253.000000
189.912981	7202.333333
192.441806	7269.333333
194.967832	7276.000000
197.493172	7199.666667
200.019937	7270.000000
202.543906	7280.000000
205.067190	7331.000000
207.589789	7338.666667
210.109595	7252.333333
212.628718	7213.666667
215.147158	7247.666667
217.667022	7239.666667
220.179885	7257.333333
222.696279	7341.666667
225.211991	7384.333333
227.722813	7304.666667
230.235060	7388.333333
232.744525	7279.000000
235.253311	7339.666667
237.761418	7282.666667
240.270950	7377.666667
242.775601	7407.000000
245.279576	7450.000000
247.784975	7514.000000
250.285499	7352.333333
252.789547	7413.666667
255.286623	7458.666667
257.787223	7427.000000
260.285051	7483.333333
262.782206	7533.000000
265.278688	7535.666667
267.770307	7583.000000
270.265446	7541.666667
272.757818	7546.333333
275.249520	7480.333333
277.738459	7550.333333
280.228822	7527.333333
282.716422	7548.333333
285.201263	7587.333333
287.689619	7476.333333
290.171035	7423.666667
292.655965	7505.333333
295.136050	7510.666667
297.619647	7514.333333
300.098401	7551.333333
302.578579	7567.333333
305.056004	7538.000000
307.532766	7543.333333
310.008865	7518.000000
312.482215	7599.000000
314.954903	7611.000000
317.426930	7668.666667
319.898296	7680.000000
322.366917	7695.333333
324.834880	7655.333333
327.304264	7654.333333
329.768826	7630.000000
332.236892	7681.666667
334.700138	7546.333333
337.162726	7695.666667
339.624658	7541.000000
342.085933	7567.333333
344.544474	7630.666667
347.004437	7590.333333
349.461667	7435.000000
351.918243	7540.333333
354.374165	7458.666667
356.827357	7457.000000
359.281972	7311.000000
361.731785	7377.666667
364.185094	7374.666667
366.633605	7309.333333
369.081464	7287.666667
371.530746	7116.333333
373.975234	7249.666667
376.421144	7047.333333
378.866404	7024.000000
381.308946	6940.666667
383.750840	6932.666667
386.192087	6942.666667
388.630618	6888.666667
391.070571	6778.000000
393.507810	6821.333333
395.942337	6788.000000
398.380352	6791.000000
400.813590	6701.000000
403.248249	6681.000000
405.678136	6696.666667
408.111508	6692.333333
410.540110	6600.333333
412.968070	6570.000000
415.397452	6508.666667
417.822068	6666.333333
420.248106	6550.666667
422.673503	6563.333333
425.098260	6554.666667
427.518259	6529.666667
429.939679	6596.000000
432.358402	6493.666667
434.778546	6505.333333
437.195995	6528.666667
439.614864	6449.666667
442.031040	6490.000000
444.442468	6509.666667
446.857374	6470.666667
449.269589	6501.666667
451.681170	6506.333333
454.092117	6546.666667
456.500378	6547.666667
458.908006	6507.333333
461.315002	6541.333333
463.721367	6517.666667
466.125049	6568.000000
468.528101	6414.666667
470.930523	6504.666667
473.332315	6452.333333
475.731430	6526.666667
478.131964	6442.666667
480.531869	6539.000000
482.927051	6525.666667
485.325700	6440.333333
487.719629	6390.666667
490.112932	6478.000000
492.505609	6519.666667
494.897661	6464.666667
497.291131	6432.000000
499.679889	6492.333333
502.065981	6348.000000
504.453493	6410.666667
506.840382	6499.000000
509.224607	6474.666667
511.610250	6447.333333
513.993232	6407.333333
516.373553	6263.000000
518.755293	6460.000000
521.134374	6433.000000
523.514874	6440.333333
525.892716	6371.333333
528.267903	6427.333333
530.642472	6359.000000
533.018459	6426.000000
535.391794	6295.333333
537.766546	6395.666667
540.136613	6299.333333
542.506064	6309.666667
544.876933	6146.333333
547.243122	6133.333333
549.610729	6189.000000
551.975690	6112.000000
554.340038	6095.666667
556.703773	5928.666667
559.068926	6051.000000
561.429407	5982.666667
563.791306	5913.666667
566.150564	5799.000000
568.507185	5764.666667
570.867250	5825.333333
573.220624	5813.333333
575.577443	5693.333333
577.931627	5803.666667
580.285202	5644.333333
582.638170	5392.333333
584.988505	5522.666667
587.340258	5525.666667
589.685334	5417.333333
592.035874	5347.000000
594.379740	5427.666667
596.729068	5241.000000
599.073747	5342.666667
601.415802	5276.333333
603.759274	5210.333333
606.100123	5203.333333
608.440370	5219.000000
610.777996	5152.000000
613.119057	5214.333333
615.455480	5084.000000
617.793320	5062.000000
620.128543	5167.666667
622.461150	5137.666667
624.795173	5160.666667
627.126582	5188.000000
629.457393	5107.333333
631.787607	5146.333333
634.117222	5178.666667
636.442214	5205.000000
638.772648	5215.000000
641.098461	5189.666667
643.421666	5136.000000
645.746288	5188.000000
648.068304	5194.666667
650.389726	5176.333333
652.708546	5209.666667
655.028781	5234.666667
657.348423	5350.333333
659.665464	5248.000000
661.981913	5380.000000
664.295764	5237.666667
666.611031	5379.333333
668.923701	5306.000000
671.237786	5327.666667
673.547271	5438.333333
675.858172	5499.000000
678.166480	5495.000000
680.474200	5574.666667
682.783334	5478.333333
685.087876	5511.000000
687.391832	5581.000000
689.695202	5670.333333
691.999986	5697.000000
694.300184	5665.333333
696.601796	5690.333333
698.902823	5723.333333
701.199269	5636.333333
703.497130	5765.333333
705.794407	5794.666667
708.091101	5919.000000
710.383219	5864.333333
712.678748	5920.333333
714.969703	5940.000000
717.262073	5987.666667
719.551868	5998.000000
721.841082	5961.666667
724.129717	5979.666667
726.415779	6058.666667
728.703256	6153.333333
730.988161	6162.666667
733.272489	6096.666667
735.554248	6263.666667
737.837421	6169.000000
740.120017	6255.000000
742.398057	6270.000000
744.677512	6234.000000
746.956390	6430.000000
749.234694	6435.333333
751.508448	6453.666667
753.783615	6483.333333
756.058209	6555.333333
758.330244	6460.333333
760.603692	6683.000000
762.874582	6540.000000
765.142916	6679.000000
767.412663	6605.666667
769.679856	6682.333333
771.946478	6650.000000
774.212530	6835.333333
776.476031	6701.666667
778.740945	6781.666667
781.005289	6804.000000
783.265104	6862.666667
785.526331	6886.000000
787.786991	7029.666667
790.045105	6976.000000
792.300674	6915.000000
794.559634	7010.666667
796.812095	6965.666667
799.069922	6987.666667
801.323231	7015.000000
803.574000	7083.666667
805.826181	7062.666667
808.075823	6990.333333
810.326878	7143.666667
812.573421	7083.000000
814.821376	7118.000000
817.066797	7177.000000
819.313629	7158.333333
821.559900	7134.000000
823.801666	7199.666667
826.046816	7225.000000
828.285493	7272.333333
830.527552	7270.333333
832.765113	7305.000000
835.004086	7367.333333
837.240532	7261.666667
839.478389	7442.333333
841.713721	7314.333333
843.946530	7521.333333
846.180750	7527.000000
848.412447	7525.000000
850.643590	7556.333333
852.874178	7706.333333
855.104212	7843.000000
857.333692	7835.000000
859.558690	7904.666667
861.787063	7888.000000
864.010956	8051.000000
866.236261	8225.000000
868.457090	8260.666667
870.681291	8362.333333
872.901019	8307.333333
875.122157	8559.666667
877.342745	8679.000000
879.560824	8697.666667
881.780312	8874.666667
883.995334	8961.333333
886.209808	8905.333333
888.423735	9109.000000
890.637115	9104.333333
892.849947	9159.333333
895.062233	9176.000000
897.272016	9169.666667
899.481254	9289.666667
901.689947	9141.000000
903.896141	9166.666667
906.103744	9019.666667
908.308849	9005.000000
910.513411	8921.333333
912.715478	8910.666667
914.918954	8701.333333
917.119936	8629.333333
919.320376	8481.666667
921.522225	8497.666667
923.717683	8297.333333
925.916500	8227.333333
928.110878	8062.000000
930.308614	7837.666667
932.501914	7813.333333
934.696623	7751.000000
936.888846	7644.666667
939.080530	7533.666667
941.271677	7423.000000
943.460341	7319.666667
945.648469	7277.000000
947.834116	7269.666667
950.023115	7192.666667
952.207691	7072.333333
954.391732	7129.666667
956.579123	7123.333333
958.758210	7203.000000
960.940648	7229.000000
963.122552	7260.000000
965.301981	7306.000000
967.478938	7186.000000
969.657303	7171.000000
971.837075	7217.000000
974.010498	7225.000000
976.187267	7252.000000
978.359629	7167.000000
980.533399	7153.000000
982.702765	7035.000000
984.875475	7162.666667
987.045720	7026.333333
989.215436	6927.666667
991.384623	6873.666667
993.549413	6855.666667
995.717544	6819.333333
997.881281	6788.000000
1000.046424	6585.333333
1002.209108	6653.000000
1004.371267	6451.333333
1006.530969	6495.666667
1008.690146	6374.000000
1010.850730	6408.333333
1013.008859	6276.333333
1015.166465	6195.333333
1017.323547	6271.000000
1019.480105	6156.666667
1021.632284	6049.000000
1023.785870	5925.333333
1025.938934	6089.333333
1028.089549	5913.000000
1030.241571	5870.333333
1032.389219	5976.666667
1034.540199	5807.333333
1036.686808	5799.666667
1038.832898	5739.666667
1040.978470	5692.333333
1043.125447	5805.000000
1045.266135	5733.333333
1047.410153	5682.333333
1049.551730	5742.666667
1051.692791	5654.666667
1053.835256	5644.000000
1055.971442	5591.666667
1058.110953	5676.000000
1060.246110	5594.000000
1062.384591	5590.333333
1064.518718	5476.000000
1066.652332	5575.333333
1068.787351	5509.666667
1070.918020	5494.000000
1073.050094	5400.666667
1075.179739	5409.666667
1077.308872	5299.666667
1079.437493	5347.666667
1081.565603	5356.333333
1083.691287	5278.333333
1085.816461	5242.333333
1087.943039	5168.666667
1090.065279	5176.666667
1092.188924	5150.666667
1094.308234	5078.000000
1096.432774	5100.666667
1098.551068	4965.333333
1100.670767	5051.333333
1102.788047	4944.333333
1104.904821	4849.000000
1107.021088	4906.000000
1109.134939	4939.666667
1111.250195	4769.333333
1113.361127	4780.333333
1115.475372	4771.333333
1117.585296	4737.666667
1119.696624	4743.333333
1121.807447	4579.000000
1123.913954	4644.333333
1126.023771	4652.666667
1128.129273	4603.333333
1130.236178	4555.666667
1132.336868	4430.000000
1134.442770	4544.666667
1136.544363	4525.666667
1138.647359	4496.666667
1140.749854	4518.000000
1142.846142	4421.000000
1144.947637	4378.000000
1147.044830	4407.000000
1149.141525	4393.666667
1151.237721	4346.666667
1153.333420	4255.333333
1155.428620	4234.333333
1157.521424	4177.000000
1159.615631	4244.000000
1161.703646	4183.666667
1163.796859	4147.333333
1165.883884	4228.333333
1167.974208	4177.333333
1170.060244	4117.333333
1172.149579	4175.666667
1174.232732	4095.666667
1176.317287	4115.666667
1178.403244	4157.333333
1180.484919	4068.333333
1182.567996	4109.333333
1184.648687	4062.333333
1186.728886	4032.000000
1188.808594	4059.666667
1190.887811	4004.666667
1192.964646	3922.000000
1195.039100	3906.000000
1197.116845	4028.333333
1199.190321	3901.000000
1201.265197	3925.000000
1203.335806	3899.666667
1205.407816	3953.666667
1207.477451	3919.333333
1209.548486	3957.333333
1211.619033	4019.000000
1213.685319	3950.000000
1215.753006	3910.666667
1217.818321	3897.666667
1219.885036	3917.000000
1221.947495	3912.666667
1224.013239	3903.000000
1226.074729	3929.666667
1228.137620	3835.000000
1230.198143	3883.333333
1232.258182	3883.000000
1234.317739	3890.000000
1236.374930	3957.666667
1238.431640	3901.666667
1240.485986	3899.000000
1242.543614	3944.666667
1244.598879	3945.000000
1246.649903	3910.666667
1248.702327	3966.666667
1250.754271	3931.666667
1252.803857	3944.333333
1254.852964	3921.333333
1256.901593	3926.666667
1258.949743	3977.666667
1260.997414	3922.000000
1263.040855	3853.666667
1265.087572	3829.666667
1267.131935	3876.333333
1269.175822	3903.333333
1271.217357	4013.666667
1273.256543	3938.333333
1275.299002	3952.666667
1277.337238	3996.000000
1279.376873	3914.000000
1281.416033	3914.333333
1283.450974	3883.000000
1285.487314	3924.333333
1287.521310	3971.333333
1289.556703	3850.000000
1291.587884	3936.000000
1293.620462	3838.000000
1295.652569	3865.000000
1297.682335	3901.000000
1299.713498	3921.000000
1301.740455	3938.333333
1303.768809	3975.666667
1305.792958	3874.000000
1307.820373	3946.666667
1309.843585	3928.666667
1311.868195	3884.666667
1313.890471	3965.666667
1315.914144	3983.000000
1317.935484	3924.666667
1319.956356	3957.666667
1321.976761	3991.000000
1323.992973	3988.666667
1326.010582	3931.666667
1328.025863	3941.333333
1330.044403	4001.666667
1332.058754	3906.000000
1334.070779	3876.333333
1336.086061	3837.333333
1338.097158	3853.333333
1340.109652	3794.666667
1342.117963	3895.666667
1344.129529	3983.333333
1346.135057	3857.333333
1348.143840	3821.666667
1350.148445	3965.666667
1352.156304	3869.333333
1354.163701	3916.333333
1356.165067	3835.666667
1358.167829	3920.333333
1360.170132	3922.000000
1362.171975	3924.666667
1364.173358	3922.333333
1366.172428	3936.666667
1368.171039	3907.000000
1370.169192	3902.666667
1372.166886	3870.666667
1374.160418	3881.000000
1376.155345	3856.000000
1378.149816	3833.666667
1380.143830	3856.000000
1382.135537	3840.000000
1384.126789	3863.333333
1386.115735	3854.333333
1388.106076	3811.000000
1390.095962	3851.333333
1392.083544	3832.333333
1394.070673	3826.333333
1396.055500	3773.666667
1398.041722	3892.000000
1400.025644	3811.666667
1402.009113	3835.000000
1403.992129	3909.333333
1405.972848	3810.333333
1407.954961	3784.333333
1409.934778	3786.000000
1411.914143	3829.333333
1413.889370	3794.333333
1415.867835	3817.666667
1417.844007	3806.000000
1419.819730	3781.666667
1421.795003	3782.333333
1423.767985	3869.333333
1425.740519	3766.000000
1427.712605	3858.666667
1429.684244	3820.333333
1431.651754	3858.000000
1433.624338	3819.333333
1435.589116	3832.333333
1437.558967	3878.000000
1439.524694	3837.333333
1441.491813	3772.333333
1443.456649	3874.333333
1445.417365	3843.333333
1447.383149	3871.666667
1449.342978	3841.333333
1451.304201	3862.333333
1453.266816	3726.000000
1455.225316	3873.333333
1457.183373	3828.000000
1459.140989	3810.000000
1461.098162	3874.666667
1463.053060	3835.666667
1465.009351	3872.000000
1466.963367	3830.333333
1468.916942	3830.333333
1470.868245	3886.666667
1472.820941	3847.666667
1474.771364	3845.000000
1476.721349	3826.666667
1478.670895	3769.666667
1480.618172	3832.666667
1482.563181	3795.666667
1484.509583	3866.000000
1486.455547	3852.666667
1488.401074	3818.666667
1490.344335	3854.333333
1492.287161	3801.666667
1494.227723	3730.666667
1496.169676	3782.333333
1498.109367	3820.333333
1500.048624	3690.333333
1501.987445	3771.000000
1503.924007	3728.666667
1505.861960	3846.666667
1507.797654	3814.000000
1509.732915	3703.333333
1511.665920	3670.000000
1513.598492	3754.333333
1515.530632	3718.666667
1517.462340	3791.666667
1519.391794	3757.333333
1521.322639	3754.333333
1523.253052	3691.000000
1525.179393	3782.666667
1527.107125	3748.333333
1529.032606	3772.333333
1530.957658	3758.333333
1532.882281	3760.666667
1534.806475	3746.333333
1536.728421	3809.000000
1538.651758	3782.666667
1540.572848	3787.000000
1542.491694	3797.000000
1544.411930	3819.666667
1546.329923	3764.333333
1548.247489	3785.333333
1550.162813	3711.000000
1552.079527	3805.666667
1553.992186	3746.000000
1555.908049	3774.666667
1557.821672	3819.333333
1559.733057	3778.666667
1561.645832	3765.666667
1563.554557	3766.000000
1565.464671	3865.333333
1567.374362	3697.000000
1569.283630	3794.000000
1571.190664	3761.666667
1573.095465	3757.666667
1575.001655	3746.666667
1576.905613	3830.666667
1578.809150	3709.000000
1580.712267	3759.333333
1582.613154	3847.000000
1584.515430	3779.333333
1586.415478	3682.666667
1588.316913	3710.000000
1590.214315	3614.666667
1592.111298	3707.333333
1594.007863	3668.333333
1595.905816	3730.666667
1597.797934	3719.333333
1599.693245	3687.666667
1601.588139	3788.333333
1603.480811	3708.333333
1605.373066	3680.333333
1607.263102	3654.666667
1609.152722	3759.000000
1611.041927	3692.666667
1612.930717	3738.666667
1614.817289	3696.666667
1616.705249	3689.666667
1618.589192	3701.000000
1620.474522	3673.666667
1622.359439	3688.000000
1624.242142	3726.666667
1626.126232	3725.000000
1628.006310	3764.333333
1629.887776	3705.000000
1631.767031	3621.000000
1633.647672	3739.333333
1635.522509	3677.333333
1637.402327	3668.666667
1639.278141	3560.333333
1641.153544	3534.000000
1643.030333	3650.000000
1644.901326	3706.333333
1646.775500	3659.666667
1648.645675	3750.333333
1650.519032	3624.333333
1652.390184	3614.333333
1654.259136	3685.666667
1656.129472	3626.333333
1657.995816	3629.333333
1659.863545	3667.666667
1661.729075	3576.666667
1663.595991	3596.333333
1665.458918	3640.000000
1667.323230	3654.666667
1669.185346	3561.333333
1671.047057	3559.000000
1672.910154	3613.000000
1674.771055	3504.333333
1676.629764	3517.333333
1678.488069	3562.333333
1680.347759	3540.666667
1682.201681	3648.666667
1684.058777	3519.000000
1685.915470	3498.000000
1687.768186	3512.666667
1689.624074	3478.333333
1691.475988	3583.000000
1693.327501	3526.666667
1695.178613	3541.000000
1697.029325	3509.333333
1698.879635	3512.000000
1700.727762	3502.000000
1702.577273	3555.333333
1704.421035	3538.333333
1706.269746	3596.666667
1708.112711	3497.333333
1709.958843	3552.000000
1711.801012	3485.000000
1713.646347	3474.000000
1715.485941	3511.000000
1717.326919	3448.666667
1719.169280	3440.666667
1721.007685	3404.666667
1722.847473	3462.000000
1724.685086	3436.333333
1726.522303	3457.333333
1728.357347	3372.333333
1730.193774	3405.333333
1732.028029	3464.666667
1733.861889	3425.333333
1735.695355	3418.333333
1737.524876	3392.333333
1739.357555	3445.000000
1741.186290	3445.000000
1743.018182	3433.000000
1744.846132	3448.333333
1746.673691	3442.333333
1748.500857	3412.000000
1750.327632	3420.666667
1752.154015	3423.666667
1753.976462	3433.666667
1755.802064	3430.333333
1757.623731	3459.333333
1759.446780	3415.333333
1761.267667	3403.333333
1763.088166	3477.333333
1764.910045	3410.000000
1766.726226	3395.333333
1768.545558	3423.333333
1770.360963	3449.666667
1772.179518	3369.000000
1773.994148	3443.000000
1775.808391	3423.333333
1777.622248	3395.666667
1779.435718	3411.333333
1781.247035	3447.333333
1783.059732	3475.666667
1784.872044	3449.333333
1786.680438	3419.666667
1788.490212	3405.666667
1790.296072	3452.666667
1792.105077	3381.333333
1793.910169	3389.333333
1795.716642	3369.000000
1797.522731	3421.333333
1799.324909	3436.333333
1801.130232	3375.333333
1802.931646	3400.000000
1804.734440	3429.666667
1806.533328	3352.666667
1808.333597	3439.666667
1810.133484	3430.333333
1811.931229	3368.000000
1813.728594	3433.000000
1815.525579	3381.333333
1817.322183	3428.666667
1819.116648	3336.666667
1820.912492	3366.666667
1822.702681	3359.000000
1824.497767	3396.000000
1826.287201	3360.000000
1828.079771	3408.666667
1829.870206	3334.333333
1831.658507	3317.666667
1833.449943	3382.666667
1835.235733	3419.000000
1837.022903	3404.333333
1838.807941	3455.666667
1840.596113	3341.333333
1842.380399	3374.000000
1844.162555	3410.333333
1845.946091	3330.666667
1847.727498	3382.000000
1849.510284	3289.333333
1851.289189	3405.000000
1853.069474	3278.666667
1854.847632	3294.000000
1856.627169	3279.333333
1858.404581	3310.000000
1860.179869	3295.333333
1861.956535	3316.000000
1863.731079	3224.666667
1865.507001	3278.333333
1867.277302	3281.666667
1869.050731	3356.666667
1870.822040	3261.000000
1872.592978	3359.000000
1874.365294	3348.666667
1876.131996	3327.666667
1877.901824	3343.000000
1879.667788	3322.666667
1881.436875	3363.666667
1883.202101	3320.333333
1884.966959	3325.333333
1886.733194	3272.333333
1888.495570	3237.000000
1890.257579	3302.666667
1892.019220	3346.000000
1893.780495	3276.333333
1895.541402	3308.333333
1897.301943	3297.666667
1899.060374	3296.666667
1900.818439	3281.000000
1902.574397	3204.000000
1904.331731	3300.000000
1906.088700	3300.333333
1907.843562	3256.333333
1909.596320	3209.333333
1911.348713	3261.666667
1913.102483	3304.666667
1914.854149	3264.333333
1916.603713	3260.000000
1918.354652	3219.000000
1920.105229	3257.333333
1921.851966	3305.666667
1923.600080	3275.333333
1925.346094	3279.000000
1927.093483	3203.333333
1928.838775	3187.666667
1930.581969	3196.333333
1932.326538	3240.333333
1934.069012	3163.666667
1935.811125	3160.666667
1937.552878	3215.666667
1939.294271	3208.333333
1941.033571	3198.333333
1942.772512	3188.333333
1944.511094	3236.000000
1946.247585	3216.666667
1947.983718	3234.833333
1949.721225	3253.000000
1951.454910	3179.666667
1953.189970	3218.666667
1954.922941	3193.000000
1956.655556	3230.000000
1958.387815	3269.000000
1960.119717	3254.000000
1961.849533	3229.000000
1963.577264	3250.000000
1965.306370	3248.333333
1967.035121	3282.000000
1968.761788	3203.333333
1970.488101	3232.666667
1972.215787	3165.333333
1973.937937	3196.666667
1975.663188	3190.666667
1977.384632	3235.000000
1979.109177	3185.000000
1980.831641	3263.666667
1982.550303	3229.000000
1984.272063	3246.000000
1985.990021	3164.333333
1987.709352	3190.000000
1989.424884	3250.333333
1991.145236	3294.333333
1992.861790	3296.000000
1994.574547	3264.666667
1996.290400	3189.000000
1998.004181	3240.000000
1999.717612	3257.000000
2001.428972	3205.333333
2003.141704	3183.000000
2004.850646	3196.666667
2006.562680	3252.666667
2008.269206	3197.333333
2009.978823	3228.666667
2011.686374	3218.333333
2013.393576	3190.666667
2015.098713	3190.666667
2016.803504	3224.333333
2018.509666	3271.333333
2020.212046	3264.666667
2021.915797	3262.666667
2023.617486	3239.333333
2025.318830	3269.333333
2027.019828	3157.666667
2028.718765	3211.666667
2030.419074	3197.333333
2032.115608	3105.333333
2033.813513	3256.666667
2035.509359	3180.333333
2037.208291	3171.666667
2038.901737	3214.000000
2040.596554	3159.666667
2042.291029	3260.666667
2043.981735	3229.333333
2045.675525	3215.333333
2047.365548	3160.000000
2049.056942	3215.333333
2050.746283	3194.000000
2052.436994	3150.333333
2054.123942	3145.333333
2055.810551	3165.000000
2057.498529	3143.333333
2059.182748	3178.666667
2060.868338	3171.333333
2062.553588	3111.666667
2064.236789	3119.666667
2065.921361	3136.666667
2067.600470	3094.666667
2069.284364	3173.333333
2070.962797	3131.666667
2072.644308	3180.000000
2074.322067	3177.000000
2075.999490	3189.666667
2077.678282	3134.000000
2079.355032	3149.333333
2081.029740	3126.000000
2082.705817	3156.000000
2084.379853	3151.333333
2086.053555	3153.000000
2087.726921	3166.666667
2089.398248	3135.333333
2091.069241	3095.333333
2092.739900	3193.333333
2094.410225	3152.333333
2096.080216	3108.333333
2097.748171	3091.000000
2099.415793	3127.333333
2101.081380	3019.000000
2102.748336	3053.000000
2104.413259	3043.000000
2106.077850	3168.000000
2107.740409	3104.333333
2109.404336	3167.000000
2111.066232	3036.333333
2112.727798	3188.333333
2114.389032	3063.333333
2116.048238	3127.333333
2117.707113	3139.666667
2119.365659	3077.000000
2121.023874	3097.333333
2122.678367	3128.666667
2124.335924	3149.333333
2125.993152	3103.666667
2127.646658	3066.333333
2129.301532	3121.666667
2130.952687	3083.000000
2132.606905	3141.333333
2134.257406	3029.000000
2135.909273	3138.000000
2137.555732	3056.000000
2139.206946	3013.000000
2140.854446	3043.666667
2142.503313	3099.333333
2144.150161	3123.333333
2145.796684	3111.000000
2147.442881	3105.000000
2149.085370	3115.666667
2150.730917	3091.666667
2152.372757	3012.666667
2154.017654	3062.000000
2155.658845	3019.333333
2157.299714	3040.666667
2158.940258	3045.333333
2160.578790	3017.666667
2162.218688	3078.000000
2163.854886	3029.000000
2165.492450	2993.333333
2167.129692	2956.666667
2168.764924	2986.000000
2170.399835	2982.000000
2172.034423	2970.000000
2173.668691	3012.666667
2175.299265	2985.000000
2176.932891	3002.333333
2178.562825	2991.000000
2180.194124	2965.000000
2181.823418	2961.000000
2183.452393	2983.666667
2185.081048	2964.666667
2186.709384	2914.666667
2188.335718	3018.000000
2189.961733	2948.333333
2191.585746	3002.000000
2193.211125	2969.333333
2194.834503	2981.666667
2196.459246	2993.000000
2198.080308	3005.666667
2199.701053	3029.000000
2201.323163	2960.000000
2202.943275	2976.000000
2204.561390	3010.000000
2206.179190	2954.666667
2207.796675	3003.000000
2209.413844	2937.333333
2211.030698	2985.333333
2212.647236	2918.333333
2214.261782	2929.333333
2215.874335	2968.666667
2217.488252	2918.333333
2219.100178	2995.333333
2220.713467	2936.666667
2222.324766	2948.333333
2223.934075	2915.333333
2225.544748	2959.666667
2227.153432	2928.333333
2228.761803	2971.333333
2230.368188	2929.666667
2231.975936	2902.333333
2233.581697	2858.666667
2235.187147	2900.666667
2236.790612	2887.333333
2238.395440	2929.666667
2239.998284	2985.333333
2241.599145	2848.000000
2243.201369	2961.333333
2244.801611	2878.000000
2246.403215	2835.000000
2248.001166	2932.000000
2249.600480	2995.000000
2251.197814	2984.000000
2252.794840	2921.666667
2254.393228	2895.333333
2255.987967	2933.666667
2257.580729	2901.333333
2259.174854	2914.333333
2260.770340	2955.000000
2262.362181	2881.000000
2263.953716	2864.666667
2265.546613	2863.666667
2267.134200	2872.666667
2268.726483	2875.000000
2270.313460	2889.000000
2271.903464	2872.000000
2273.488164	2879.666667
2275.077558	2844.333333
2276.661650	2848.666667
2278.247102	2808.000000
2279.830586	2833.333333
2281.417095	2850.000000
2282.999971	2832.666667
2284.582544	2839.333333
2286.164813	2770.333333
2287.743452	2859.333333
2289.325116	2801.000000
2290.903151	2775.333333
2292.484209	2825.000000
2294.061640	2777.500000
2295.637108	2730.000000
2297.215598	2768.000000
2298.790464	2757.000000
2300.365029	2777.000000
2301.939294	2731.666667
2303.513258	2806.000000
2305.086921	2746.666667
2306.660285	2753.666667
2308.230030	2807.333333
2309.799476	2696.333333
2311.371940	2696.666667
2312.939130	2770.000000
2314.509338	2777.666667
2316.075931	2725.666667
2317.643884	2657.333333
2319.209881	2751.666667
2320.775581	2728.333333
2322.340983	2788.333333
2323.904432	2707.000000
2325.469240	2790.000000
2327.030440	2819.666667
2328.594654	2747.333333
2330.153606	2768.666667
2331.715573	2791.333333
2333.275588	2832.333333
2334.835309	2773.333333
2336.393080	2769.000000
2337.950556	2674.000000
2339.507738	2723.666667
2341.062972	2739.666667
2342.617913	2738.000000
2344.172559	2680.000000
2345.726912	2745.666667
2347.280972	2729.000000
2348.834737	2748.666667
2350.386558	2701.333333
2351.936437	2722.666667
2353.489323	2672.333333
2355.036966	2692.000000
2356.587618	2677.333333
2358.134678	2650.666667
2359.683096	2673.333333
2361.231223	2748.666667
2362.775761	2743.333333
2364.321657	2638.000000
2365.865615	2806.000000
2367.410930	2679.666667
2368.952660	2731.666667
2370.495747	2763.666667
2372.036898	2714.666667
2373.577760	2720.333333
2375.118333	2757.666667
2376.658617	2692.666667
2378.198612	2654.000000
2379.735029	2721.333333
2381.274447	2722.000000
2382.810287	2719.333333
2384.347485	2675.333333
2385.881107	2741.666667
2387.417729	2735.333333
2388.952421	2661.333333
2390.485183	2774.333333
2392.017658	2672.333333
2393.548205	2708.333333
2395.081750	2712.666667
2396.610084	2709.666667
2398.139774	2682.666667
2399.669179	2628.333333
2401.198299	2608.333333
2402.727134	2658.666667
2404.250763	2631.000000
2405.779028	2713.333333
2407.302091	2644.000000
2408.829787	2691.000000
2410.350644	2660.000000
2411.876134	2615.333333
2413.398063	2673.666667
2414.921348	2603.666667
2416.442711	2676.666667
2417.962155	2641.000000
2419.482954	2634.333333
2421.001835	2644.333333
2422.520433	2620.000000
2424.037114	2717.666667
2425.555149	2627.000000
2427.072903	2688.666667
2428.587106	2676.333333
2430.101028	2647.000000
2431.614670	2608.333333
2433.129667	2630.666667
2434.641115	2686.000000
2436.153918	2625.666667
2437.664807	2620.666667
2439.175418	2594.666667
2440.684117	2611.333333
2442.195802	2624.333333
2443.703944	2597.333333
2445.211808	2626.333333
2446.719394	2578.666667
2448.223439	2604.666667
2449.730469	2632.666667
2451.235591	2605.666667
2452.740436	2600.666667
2454.243374	2605.333333
2455.746036	2542.333333
2457.248421	2604.333333
2458.748901	2550.666667
2460.250734	2545.666667
2461.750662	2504.666667
2463.250315	2513.000000
2464.749693	2525.666667
2466.247168	2495.333333
2467.742741	2482.333333
2469.241294	2538.333333
2470.736319	2540.000000
2472.232696	2523.000000
2473.725547	2491.000000
2475.219751	2488.666667
2476.713681	2475.333333
2478.204087	2486.000000
2479.697471	2481.666667
2481.188957	2487.000000
2482.678546	2491.666667
2484.167863	2466.666667
2485.655284	2450.000000
2487.145681	2418.333333
2488.632560	2536.000000
2490.120790	2450.000000
2491.605503	2469.333333
2493.089947	2496.333333
2494.575741	2435.000000
2496.059644	2444.666667
2497.544897	2466.000000
2499.025017	2533.666667
2500.508110	2424.666667
2501.989312	2527.666667
2503.470245	2493.333333
2504.949289	2528.333333
2506.428064	2482.666667
2507.906571	2461.000000
2509.384810	2550.333333
2510.862780	2478.000000
2512.337245	2479.000000
2513.814680	2482.000000
2515.288611	2482.333333
2516.763892	2427.333333
2518.238906	2481.000000
2519.710419	2459.000000
2521.183283	2487.333333
2522.654264	2603.000000
2524.126595	2505.666667
2525.593812	2501.333333
2527.063996	2407.000000
2528.532299	2453.000000
2530.000337	2452.333333
2531.468110	2447.000000
2532.935618	2404.666667
2534.402861	2512.000000
2535.866612	2516.333333
2537.331713	2491.333333
2538.794937	2486.333333
2540.259510	2478.666667
2541.720595	2473.333333
2543.183029	2480.333333
2544.645200	2437.333333
2546.103885	2433.333333
2547.567141	2423.000000
2549.025302	2468.666667
2550.484811	2429.666667
2551.939226	2449.000000
2553.398212	2498.666667
2554.855326	2441.666667
2556.310569	2450.666667
2557.765550	2354.333333
2559.218663	2430.000000
2560.673124	2396.333333
2562.125715	2444.333333
2563.578047	2397.666667
2565.028512	2453.000000
2566.481932	2432.000000
2567.930270	2365.333333
2569.381563	2403.666667
2570.830991	2420.333333
2572.276946	2439.333333
2573.725856	2414.000000
2575.171296	2442.333333
2576.618083	2398.000000
2578.063008	2412.333333
2579.507674	2472.000000
2580.953688	2413.000000
2582.396236	2347.000000
2583.840131	2405.666667
2585.280561	2324.000000
2586.722338	2330.333333
2588.162256	2354.333333
2589.603521	2355.333333
2591.041324	2315.000000
2592.482077	2372.666667
2593.917768	2388.000000
2595.356408	2418.666667
2596.793190	2313.333333
2598.228117	2412.666667
2599.665991	2347.000000
2601.098808	2457.000000
2602.532972	2369.000000
2603.965282	2389.666667
2605.398938	2365.666667
2606.830741	2309.666667
2608.262290	2358.000000
2609.693587	2366.000000
2611.123031	2363.000000
2612.552223	2386.666667
2613.979565	2395.333333
2615.408252	2380.000000
2616.836688	2355.666667
2618.261676	2313.666667
2619.688011	2321.333333
2621.112497	2367.666667
2622.538329	2315.333333
2623.960717	2361.333333
2625.384451	2364.666667
2626.806338	2262.666667
2628.227976	2321.333333
2629.647768	2277.000000
2631.068906	2362.333333
2632.489794	2359.333333
2633.907244	2309.000000
2635.327633	2386.333333
2636.744585	2358.666667
2638.161288	2289.666667
2639.577743	2318.333333
2640.993950	2267.333333
2642.409909	2230.000000
2643.824027	2278.333333
2645.237897	2333.333333
2646.649929	2292.000000
2648.063304	2276.333333
2649.473250	2276.666667
2650.886132	2288.666667
2652.295585	2273.000000
2653.704792	2263.000000
2655.112163	2250.333333
2656.522468	2302.333333
2657.930938	2249.000000
2659.337572	2272.666667
2660.743961	2280.000000
2662.148516	2325.666667
2663.554415	2285.000000
2664.958481	2310.000000
2666.362302	2232.333333
2667.765879	2316.000000
2669.167625	2328.333333
2670.570714	2246.666667
2671.970385	2295.000000
2673.371400	2281.000000
2674.768999	2297.000000
2676.169527	2214.666667
2677.566641	2295.000000
2678.965098	2244.666667
2680.361728	2242.333333
2681.758115	2229.333333
2683.154260	2322.333333
2684.548579	2213.666667
2685.944241	2237.333333
2687.336494	2214.000000
2688.730089	2259.666667
2690.121860	2212.333333
2691.514974	2214.000000
2692.906264	2251.333333
2694.295731	2263.333333
2695.684958	2240.666667
2697.073946	2235.000000
2698.464275	2200.333333
2699.849621	2201.333333
2701.237890	2232.333333
2702.624339	2210.666667
2704.010549	2253.333333
2705.396520	2246.666667
2706.779093	2222.333333
2708.163008	2163.000000
2709.546685	2195.000000
2710.930123	2188.666667
2712.310167	2255.000000
2713.691551	2174.000000
2715.071121	2194.000000
2716.452031	2135.666667
2717.831127	2178.333333
2719.208409	2206.333333
2720.587032	2145.666667
2721.963842	2250.333333
2723.340415	2231.666667
2724.716753	2236.666667
2726.091280	2258.666667
2727.467147	2184.666667
2728.839627	2152.333333
2730.215023	2215.666667
2731.585459	2174.000000
2732.957236	2180.000000
2734.328778	2218.666667
2735.698512	2139.333333
2737.069587	2161.000000
2738.438853	2177.333333
2739.807886	2131.000000
2741.175113	2151.333333
2742.542106	2148.666667
2743.908867	2122.000000
2745.275396	2176.000000
2746.640119	2115.666667
2748.004610	2170.333333
2749.368870	2098.000000
2750.732897	2154.000000
2752.096693	2115.666667
2753.457115	2098.666667
2754.820447	2134.000000
2756.178837	2137.000000
2757.540137	2149.333333
2758.898067	2083.000000
2760.258905	2071.333333
2761.617944	2175.333333
2762.973614	2095.333333
2764.332192	2091.666667
2765.687403	2103.000000
2767.042385	2059.000000
2768.395571	2091.666667
2769.751662	2142.333333
2771.104390	1990.666667
2772.456890	2120.666667
2773.809161	2082.000000
2775.162770	2098.000000
2776.513019	2126.666667
2777.861473	2078.333333
2779.212833	2048.333333
2780.560833	2078.333333
2781.910171	2094.333333
2783.257717	2044.666667
2784.605037	2022.333333
2785.952130	2027.333333
2787.297432	2052.333333
2788.642507	2039.666667
2789.987357	2068.000000
2791.331981	2022.666667
2792.673253	1996.666667
2794.015863	2071.666667
2795.358247	2074.000000
2796.700406	2037.000000
2798.039216	2017.666667
2799.380926	2056.666667
2800.719288	2101.333333
2802.058986	2034.333333
2803.396900	2083.333333
2804.733029	2028.666667
2806.068934	2085.666667
2807.406177	2080.333333
2808.741636	2052.000000
2810.076872	2099.666667
2811.410325	2065.000000
2812.745115	2001.666667
2814.076565	2024.333333
2815.410910	2026.333333
2816.740357	2055.333333
2818.071141	2021.333333
2819.401703	1960.333333
2820.730486	2023.666667
2822.060605	2023.333333
2823.388946	2032.333333
2824.717066	2015.666667
2826.043408	2012.333333
2827.371087	2028.333333
2828.695432	1991.333333
2830.021114	2007.333333
2831.345020	1977.333333
2832.668707	2064.333333
2833.993729	1958.000000
2835.315421	2047.000000
2836.636895	1940.333333
2837.958150	1983.000000
2839.279186	1979.333333
2840.598449	1979.000000
2841.919048	1938.333333
2843.237876	1953.000000
2844.556485	1950.666667
2845.873323	1948.000000
2847.189944	2001.000000
2848.506348	1939.000000
2849.820982	1888.333333
2851.136952	1978.333333
2852.449601	1952.666667
2853.763585	1960.333333
2855.077353	1906.333333
2856.390904	1946.333333
2857.702689	1888.333333
2859.012707	1940.000000
2860.324060	1943.666667
2861.632098	1967.333333
2862.941470	1962.666667
2864.250628	2030.000000
2865.559570	1932.666667
2866.866748	2026.666667
2868.172164	1945.000000
2869.478913	1922.333333
2870.783901	1910.000000
2872.088675	2008.000000
2873.391687	1931.666667
2874.697580	1890.000000
2875.998619	1997.333333
2877.300992	1971.333333
2878.601605	1979.000000
2879.903552	1960.333333
2881.205285	1874.333333
2882.503715	1947.000000
2883.803478	1984.000000
2885.101484	1934.666667
2886.399278	1904.666667
2887.695316	1912.000000
2888.992687	1848.666667
2890.288302	1891.333333
2891.583706	1914.666667
2892.878899	1902.666667
2894.170795	1886.000000
2895.465567	1901.000000
2896.757042	1859.666667
2898.049850	1848.666667
2899.342448	1886.000000
2900.631752	1840.000000
2901.922388	1866.000000
2903.211273	1890.333333
2904.501490	1844.666667
2905.788416	1872.000000
2907.076674	1838.333333
2908.363183	1846.000000
2909.649483	1885.000000
2910.935576	1847.000000
2912.219920	1863.000000
2913.507135	1910.666667
2914.789524	1843.000000
2916.073245	1816.333333
2917.355220	1932.000000
2918.636987	1897.000000
2919.917010	1800.000000
2921.199902	1867.666667
2922.481049	1888.000000
2923.758914	1872.000000
2925.039648	1913.000000
2926.317101	1805.000000
2927.594348	1873.000000
2928.869853	1828.000000
2930.148226	1888.666667
2931.421785	1872.000000
2932.698211	1818.666667
2933.972896	1877.666667
2935.245840	1834.000000
2936.520116	1816.333333
2937.792652	1900.333333
2939.064983	1852.333333
2940.334042	1877.666667
2941.605966	1806.000000
2942.876152	1825.333333
2944.146134	1895.000000
2945.415913	1794.000000
2946.683956	1783.000000
2947.950262	1829.666667
2949.216367	1830.666667
2950.483801	1817.000000
2951.749501	1783.000000
2953.014998	1864.666667
2954.280293	1798.000000
2955.542323	1833.000000
2956.805683	1824.000000
2958.068842	1805.000000
2959.330269	1835.333333
2960.593025	1733.333333
2961.854049	1782.000000
2963.113343	1778.666667
2964.372437	1792.666667
2965.631330	1759.333333
2966.890023	1814.666667
2968.148516	1792.666667
2969.405280	1785.333333
2970.661844	1770.333333
2971.916681	1755.000000
2973.172846	1754.666667
2974.425757	1804.000000
2975.679997	1792.000000
2976.934037	1778.333333
2978.186353	1718.000000
2979.438469	1775.000000
2980.688861	1774.666667
2981.942108	1868.000000
2983.190578	1770.000000
2984.441903	1817.000000
2985.689978	1740.333333
2986.937857	1740.000000
2988.185538	1750.666667
2989.433022	1796.666667
2990.678785	1712.000000
2991.924352	1732.333333
2993.171246	1740.000000
2994.414896	1749.666667
2995.659874	1716.000000
2996.901608	1748.333333
2998.146194	1749.666667
2999.389061	1798.666667
3000.628687	1762.000000
3001.871163	1698.000000
3003.110399	1727.000000
3004.350963	1703.333333
3005.589810	1608.000000
3006.828463	1724.666667
3008.065400	1706.333333
3009.303665	1721.666667
3010.540214	1693.000000
3011.776570	1700.000000
3013.012732	1712.333333
3014.247180	1734.333333
3015.481436	1693.666667
3016.715498	1667.333333
3017.947848	1720.000000
3019.178486	1763.333333
3020.411970	1698.000000
3021.643742	1703.333333
3022.873804	1719.666667
3024.103673	1740.666667
3025.331833	1681.333333
3026.561320	1727.000000
3027.789097	1693.666667
3029.016683	1643.333333
3030.245596	1634.333333
3031.469766	1698.333333
3032.696779	1694.666667
3033.920568	1655.333333
3035.145684	1640.333333
3036.369093	1665.333333
3037.592312	1711.666667
3038.813826	1658.000000
3040.038181	1641.333333
3041.257801	1671.666667
3042.478747	1647.666667
3043.699504	1645.333333
3044.918557	1678.333333
3046.138935	1658.666667
3047.356097	1659.333333
3048.574585	1697.666667
3049.791370	1637.666667
3051.007968	1673.666667
3052.224377	1634.000000
3053.437574	1652.333333
3054.653608	1645.000000
3055.866430	1643.666667
3057.082089	1666.666667
3058.293025	1620.333333
3059.505286	1621.333333
3060.717361	1592.000000
3061.929248	1601.333333
3063.139439	1647.666667
3064.349443	1609.666667
3065.559261	1624.666667
3066.767383	1695.333333
3067.975320	1651.000000
3069.181561	1596.333333
3070.389127	1621.000000
3071.594998	1605.500000
3072.800685	1590.000000
3074.006186	1600.666667
3075.209994	1611.000000
3076.415126	1593.666667
3077.618565	1624.000000
3078.820313	1617.666667
3080.021876	1619.666667
3081.223256	1621.333333
3082.424452	1631.333333
3083.623958	1569.666667
3084.823281	1603.000000
3086.023927	1585.666667
3087.222883	1600.333333
3088.418645	1644.333333
3089.617236	1590.000000
3090.812633	1547.666667
3092.009353	1572.333333
3093.202881	1545.000000
3094.399237	1605.666667
3095.593907	1597.666667
3096.785385	1564.666667
3097.981196	1571.000000
3099.172312	1544.666667
3100.364752	1545.000000
3101.554004	1534.000000
3102.746081	1566.333333
3103.936475	1589.000000
3105.123683	1554.666667
3106.312213	1579.666667
3107.502066	1564.666667
3108.688735	1540.666667
3109.875223	1534.000000
3111.061533	1613.333333
3112.249164	1516.333333
3113.433613	1533.666667
3114.616383	1550.666667
3115.801975	1555.333333
3116.985888	1549.333333
3118.168122	1545.666667
3119.350177	1561.000000
3120.532054	1537.666667
3121.713753	1530.000000
3122.893775	1592.000000
3124.072120	1498.666667
3125.253285	1522.666667
3126.431275	1577.666667
3127.609089	1572.666667
3128.786725	1544.333333
3129.962686	1505.666667
3131.138470	1556.000000
3132.315576	1551.000000
3133.491007	1543.000000
3134.664765	1503.666667
3135.836850	1532.333333
3137.010257	1565.666667
3138.183487	1542.333333
3139.355046	1551.333333
3140.527925	1574.666667
3141.697637	1547.333333
3142.868670	1564.333333
3144.038033	1474.666667
3145.205725	1559.000000
3146.376233	1517.333333
3147.542083	1481.666667
3148.712241	1551.333333
3149.877743	1547.666667
3151.043070	1477.000000
3152.208224	1560.333333
3153.373205	1553.000000
3154.539505	1521.666667
3155.701153	1512.333333
3156.864120	1525.333333
3158.026915	1481.000000
3159.189537	1473.333333
3160.350494	1476.666667
3161.511278	1461.333333
3162.671890	1441.000000
3163.830838	1461.333333
3164.989615	1470.666667
3166.148220	1483.666667
3167.306652	1450.000000
3168.464914	1508.333333
3169.621513	1437.000000
3170.776451	1435.000000
3171.932708	1436.000000
3173.087304	1467.000000
3174.241730	1460.000000
3175.394496	1472.333333
3176.547091	1497.666667
3177.699517	1435.000000
3178.851773	1475.666667
3180.003858	1420.000000
3181.152798	1435.000000
3182.304544	1473.000000
3183.454632	1401.666667
3184.603064	1415.000000
3185.751326	1473.000000
3186.899420	1421.666667
3188.047345	1464.666667
3189.193614	1429.333333
3190.339715	1510.333333
3191.484162	1456.666667
3192.628441	1500.333333
3193.772552	1423.666667
3194.917980	1452.333333
3196.060270	1464.333333
3197.202393	1408.666667
3198.344348	1444.666667
3199.486136	1424.666667
3200.627757	1465.000000
3201.766243	1501.666667
3202.906046	1429.666667
3204.047167	1417.000000
3205.185153	1449.666667
3206.321490	1421.666667
3207.457661	1388.666667
3208.595149	1440.666667
3209.730989	1394.666667
3210.868146	1434.333333
3212.000690	1421.333333
3213.137516	1399.333333
3214.269730	1345.666667
3215.403261	1424.333333
3216.536628	1418.000000
3217.666867	1356.000000
3218.799904	1374.000000
3219.929815	1380.666667
3221.061042	1419.333333
3222.189145	1318.666667
3223.320044	1351.000000
3224.449299	1348.000000
3225.576911	1342.333333
3226.701400	1352.666667
3227.830165	1368.333333
3228.955808	1363.666667
3230.081289	1337.333333
3231.205128	1345.000000
3232.331761	1349.666667
3233.453797	1386.666667
3234.577149	1367.666667
3235.700339	1370.000000
3236.823366	1339.333333
3237.944755	1335.000000
3239.065981	1380.000000
3240.185570	1382.666667
3241.304997	1398.000000
3242.422786	1349.333333
3243.543367	1355.000000
3244.660835	1361.000000
3245.778142	1385.333333
3246.895289	1335.666667
3248.010800	1321.666667
3249.127625	1394.333333
3250.241341	1392.333333
3251.357846	1403.333333
3252.472717	1410.333333
3253.584479	1331.666667
3254.696081	1426.000000
3255.808999	1393.000000
3256.921757	1393.333333
3258.031409	1347.666667
3259.142376	1374.000000
3260.253184	1390.000000
3261.362360	1362.000000
3262.469906	1378.333333
3263.578765	1331.333333
3264.687467	1357.000000
3265.793066	1367.000000
3266.899979	1380.333333
3268.005263	1317.000000
3269.111861	1392.000000
3270.215359	1326.666667
3271.320172	1275.000000
3272.424827	1376.000000
3273.526383	1384.666667
3274.627783	1290.666667
3275.730497	1386.666667
3276.833055	1332.000000
3277.932516	1367.000000
3279.034761	1334.000000
3280.133910	1356.333333
3281.231435	1360.333333
3282.328804	1304.000000
3283.428955	1359.000000
3284.526014	1340.333333
3285.622917	1351.666667
3286.719665	1318.666667
3287.811855	1280.000000
3288.908293	1398.000000
3290.003109	1326.666667
3291.097771	1328.000000
3292.190811	1315.333333
3293.283696	1349.333333
3294.374962	1280.333333
3295.467539	1283.666667
3296.558497	1328.000000
3297.647835	1352.333333
3298.737020	1335.666667
3299.827518	1300.333333
3300.914931	1296.666667
3302.002191	1333.333333
3303.090764	1331.333333
3304.179185	1291.333333
3305.263058	1357.333333
3306.351173	1267.000000
3307.436206	1312.000000
3308.519624	1273.000000
3309.604354	1310.333333
3310.687468	1251.333333
3311.771895	1301.666667
3312.853243	1307.333333
3313.935903	1302.000000
3315.016949	1295.666667
3316.097844	1266.666667
3317.177125	1323.000000
3318.256256	1285.000000
3319.336699	1280.666667
3320.414067	1260.000000
3321.492747	1312.333333
3322.569815	1303.333333
3323.646734	1294.000000
3324.722041	1298.333333
3325.797199	1258.000000
3326.873668	1239.666667
3327.947067	1235.000000
3329.020317	1256.000000
3330.094877	1244.000000
3331.167829	1270.666667
3332.239172	1260.000000
3333.311826	1297.333333
3334.381414	1314.333333
3335.452312	1220.000000
3336.521603	1208.666667
3337.592205	1252.000000
3338.661200	1219.000000
3339.728589	1208.000000
3340.794373	1219.333333
3341.864383	1201.333333
3342.931330	1242.333333
3343.995215	1208.333333
3345.061868	1254.333333
3346.126916	1214.000000
3347.190361	1225.000000
3348.253660	1291.333333
3349.316812	1219.666667
3350.379818	1239.000000
3351.442678	1228.333333
3352.503936	1142.666667
3353.562137	1236.000000
3354.624558	1207.000000
3355.683924	1215.666667
3356.743144	1226.000000
3357.803673	1288.000000
3358.859694	1208.000000
3359.918478	1216.333333
3360.972755	1223.666667
3362.029796	1258.666667
3363.085238	1224.000000
3364.141990	1205.000000
3365.197143	1177.000000
3366.250699	1272.666667
3367.302659	1259.666667
3368.357380	1190.666667
3369.409052	1231.666667
3370.460581	1223.666667
3371.513418	1207.666667
3372.563208	1202.666667
3373.614307	1209.333333
3374.662360	1252.666667
3375.713172	1172.333333
3376.760940	1220.000000
3377.808565	1210.666667
3378.856047	1225.333333
3379.901937	1194.000000
3380.949135	1212.000000
3381.993291	1209.666667
3383.040205	1170.000000
3384.085527	1202.333333
3385.127808	1197.666667
3386.169949	1169.000000
3387.213397	1241.000000
3388.256704	1175.666667
3389.298422	1172.333333
3390.339998	1206.000000
3391.381433	1242.666667
3392.421280	1193.666667
3393.459538	1221.000000
3394.499104	1143.666667
3395.538530	1164.000000
3396.576368	1213.000000
3397.612619	1182.000000
3398.648731	1177.666667
3399.686150	1246.333333
3400.720536	1192.666667
3401.756229	1177.333333
3402.791783	1146.000000
3403.824306	1158.333333
3404.859582	1229.666667
3405.891827	1155.000000
3406.923934	1213.000000
3407.954457	1238.333333
3408.986287	1180.333333
3410.017979	1131.666667
3411.046643	1136.000000
3412.075170	1203.000000
3413.105003	1206.333333
3414.134699	1185.333333
3415.161369	1146.666667
3416.189346	1202.000000
3417.214298	1159.000000
3418.242000	1236.000000
3419.266679	1198.000000
3420.292664	1198.000000
3421.317069	1186.333333
3422.341338	1160.333333
3423.364028	1220.666667
3424.386582	1157.333333
3425.410442	1141.000000
3426.431282	1166.666667
3427.451986	1138.333333
3428.473997	1109.333333
3429.492989	1146.666667
3430.511845	1186.333333
3431.532008	1126.000000
3432.549154	1131.000000
